Time,Rectus Femoris right,Rectus Femoris left,Hamstrings right,Hamstrings left,TibilaisÂ Anterior right,TibilaisÂ Anterior left,Gastrocnemius right,Gastrocnemius left
0.0,0.037708593011417595,0.001506887417072437,0.0015656023137565946,-0.00130144476090115,-0.002289311067182665,0.0024697725241200823,-0.00040951945547350766,0.014857152060884313
0.0004655,0.03803288510559985,0.001896429792004513,0.0015755026543485264,-0.001142881137313171,-0.002150771919693664,0.002772064041380645,-0.00024474592112222005,0.015454439628489745
0.000931,0.03835668701318305,0.0022867982926076807,0.0015854079717421124,-0.0009840641771679346,-0.002010951365332035,0.003075940676458773,-7.955187756259835e-05,0.016053111960110635
0.0013966,0.03867994711507015,0.002677953329516433,0.0015953174852172067,-0.0008250104319153706,-0.001869856150104385,0.0033813799996941134,8.604754241682201e-05,0.016653099934866033
0.0018621,0.03900261380260397,0.0030698552005346967,0.0016052304324518552,-0.00066573646391967,-0.0017274932964367786,0.003688359351461292,0.0002520371865135908,0.017254334138750025
0.0023276,0.039324635493689336,0.003462464101209997,0.0016151460702935265,-0.0005062588413148484,-0.0015838701039271076,0.003996855848441212,0.00041840188796927926,0.01785674488538242
0.0027931,0.03964596064890634,0.003855740135374786,0.0016250636755334477,-0.0003465941328809086,-0.001438994150062274,0.004306846389939717,0.0005851264706249417,0.018460262236826508
0.0032586,0.039966537787600315,0.004249643325646539,0.0016349825456836225,-0.00018675890294545837,-0.0012928732909006592,0.0046183076642486755,0.0007521957539706422,0.01906481602445536
0.0037241,0.040286315503934224,0.004644133623878591,0.0016449019997561356,-2.676970631530398e-05,-0.0011455156617202354,0.004931216155044574,0.0009195945581856267,0.019670335869849266
0.0041897,0.040605242482889395,0.005039170921554108,0.001654821379044363,0.00013335691675790324,-0.0009969296776325442,0.005245548147819741,0.0010873077091657958,0.020276751205707766
0.0046552,0.040923267516200575,0.0054347150601159935,0.0016647400479057211,0.00029360444557439795,-0.0008471240341626168,0.005561279736341321,0.0012553200435352447,0.02088399129676093
0.0051207,0.04124033951821106,0.005830725841225816,0.0016746573945455913,0.0004539563839423038,-0.0006961077077947625,0.005878386829133196,0.0014236164136387853,0.021491985260665643
0.0055862,0.041556407541633554,0.006227163036945021,0.001684572831802054,0.0006143962650901438,-0.0005438899564839958,0.006196845155976189,0.001592181692512539,0.02210066208887361
0.0060517,0.041871420793202364,0.006623986399831794,0.0016944857979310501,0.0007749076565332962,-0.0003904803201327426,0.006516630274422136,0.0017610007788298556,0.0227099506674587
0.0065172,0.04218532864920257,0.007021155672947012,0.0017043957573915874,0.0009354741648919356,-0.00023588862103232427,0.006837717576317892,0.001930058601819952,0.02331977979789182
0.0069828,0.042498080670861964,0.007418630599762877,0.0017143022016305836,0.001096079440658061,-8.012496426860288e-05,0.0071600822943357605,0.002099340126156791,0.02393007821775205
0.0074483,0.042809626619591735,0.007816370933968012,0.0017242046498669378,0.0012567071829092747,7.680026190895067e-05,0.007483699508507265,0.0022688303568158324,0.02454077462136324
0.0079138,0.043119916472062036,0.008214336449163093,0.0017341026498744103,0.0014173411439670608,0.00023487638575561185,0.007808544152757441,0.0024385143438964297,0.0251517976803461
0.0083793,0.043428900435098824,0.008612486948441371,0.0017439957787628762,0.0015779651339974203,0.0003940924517381315,0.00813459102143697,0.0026083771874077714,0.025763076064076136
0.0088448,0.04373652896038863,0.00901078227384873,0.0017538836437575149,0.0017385630255518285,0.0005544372202808819,0.008461814775849601,0.0027784040420163773,0.026374538460038243
0.0093103,0.04404275275897822,0.009409182315718223,0.0017637658829754866,0.001899118758046631,0.000715899167552541,0.008790189950772312,0.0029485801217532352,0.026986113594068807
0.0097759,0.04434752281555692,0.009807647021874345,0.0017736421661996408,0.0020596163421791208,0.0008784664852945004,0.009119690960965795,0.0031188907046787156,0.02759773025047633
0.0102414,0.04465079040251043,0.010206136406702652,0.0017835121956487998,0.0022200398642786825,0.0010421270806922347,0.00945029210767288,0.0032893211375034127,0.0282093172920314
0.0107069,0.04495250709373556,0.010604610560080573,0.0017933757067441602,0.0023803734905915547,0.0012068685762909156,0.009781967585102538,0.0034598568401630904,0.028820803679816934
0.0111724,0.04525262477820672,0.011003029656165567,0.0018032324688713637,0.002540601471497901,0.0013726783099565875,0.010114691486897193,0.003630483310345934,0.02943211849292971
0.0116379,0.04555109567328582,0.011401353962036906,0.0018130822861377822,0.002700708145660071,0.0015395433348842516,0.010448437812581056,0.0038011861279703563,0.030043190948024098
0.0121034,0.045847872337768165,0.011799543846187411,0.0018229249981245603,0.0028606779441010793,0.0017074504196542208,0.010783180473987188,0.003971950959611675,0.030653950418688902
0.012569,0.04614290768465782,0.012197559786861515,0.00183276048063296,0.0030204953942124984,0.0018763860483381263,0.011118893301660996,0.0041427635628760485,0.031264326454648085
0.0130345,0.046436154993666434,0.01259536238023603,0.001842588646424545,0.003180145123691055,0.002046336420655955,0.0114555500512378,0.004313609790720118,0.031874248800775884
0.0135,0.04672756792343003,0.012992912348439968,0.0018524094459547518,0.0033396118644033524,0.002217287452185506,0.011793124409792135,0.004484475595714876,0.03248364741591693
0.0139655,0.04701710052343835,0.013390170547409897,0.001862222868099407,0.003498880456178156,0.0023892247746256545,0.012131590002156366,0.004655347034252344,0.03309245249150179
0.014431,0.04730470724567231,0.013787097974577493,0.0018720289408737714,0.003657935850525714,0.00256213373611481,0.012470920397206334,0.004826210270693704,0.033700594469948206
0.0148966,0.04759034295594573,0.014183655776386346,0.0018818277321437011,0.0038167631142836064,0.00273599940160596,0.012811089114111553,0.004997051581457654,0.03430800406283845
0.0153621,0.04787396294494858,0.014579805255635535,0.0018916193503285292,0.003975347433188566,0.0029108065532996805,0.013152069628547603,0.00516785735904792,0.03491461226886303
0.0158276,0.0481555229389905,0.014975507878648245,0.0019014039450952712,0.004133674115373719,0.0030865396911364923,0.013493835378868266,0.00533861411601897,0.035520350391521356
0.0162931,0.04843497911044501,0.015370725282264306,0.00191118170804376,0.004291728594790673,0.00326318303334994,0.013836359772234847,0.005509308488879096,0.03612515005657052
0.0167586,0.048712288087895836,0.01576541928065643,0.0019209528733823147,0.004449496434555888,0.0034407205170817424,0.014179616190700116,0.005679927241930077,0.036728943229213704
0.0172241,0.04898740696598859,0.016159551871970414,0.001930717718593549,0.004606963330220737,0.003619135799060385,0.014523577997244191,0.00585045727104263,0.03733166223102077
0.0176897,0.049260293314991925,0.016553085244790076,0.0019404765650899148,0.0047641151129647315,0.0037984122563444887,0.01486821854175959,0.006020885607366868,0.03793323975657413
0.0181552,0.04953090519007237,0.016945981784427973,0.0019502297788585726,0.004920937752711342,0.003978532987132311,0.015213511166982599,0.006191199420976988,0.03853360888983366
0.0186207,0.049799201140287463,0.017338204079042865,0.0019599777710951885,0.005077417361165942,0.00415948081163874,0.015559429214368073,0.0063613860244494625,0.03913270312021445
0.0190862,0.0500651402173016,0.017729714925585012,0.0019697209988262542,0.00523354019477532,0.0043412382730411625,0.015905946029904604,0.006531432876374058,0.03973045635837155
0.0195517,0.050328681983828956,0.018120477335570324,0.001979459965519532,0.005389292657608307,0.004523787638495594,0.016253034969866936,0.0067013275847970675,0.04032680295168587
0.0200172,0.050589786521807616,0.018510454540684503,0.0019891952216822195,0.005544661304156987,0.004707110900224475,0.016600669406502493,0.006871057910596183,0.04092167769944521
0.0204828,0.050848414440308694,0.018899609998218235,0.0019989273654464346,0.0056996328420580574,0.004891189776677549,0.01694882273364872,0.00704061177078647,0.041515015867714535
0.0209483,0.051104526883183996,0.019287907396334677,0.002008657043141641,0.005854194134733924,0.005076005713767196,0.017297468372278028,0.007209977241756915,0.04210675320388934
0.0214138,0.05135808553645539,0.01967531065917045,0.0020183849498536296,0.0060083322039531884,0.0052615398861796,0.017646579775967043,0.007379142562437067,0.04269682595092578
0.0218793,0.05160905263544892,0.020061783951771422,0.002028111829969702,0.006162034232310296,0.0054477731987630845,0.017996130436286818,0.007548096137393252,0.043285170861241735
0.0223448,0.05185739097167605,0.0204472916848647,0.0020378384777097,0.006315287565624136,0.005634686287994937,0.01834609388811059,0.007716826539853866,0.043871725210282896
0.0228103,0.05210306389946444,0.020831798519468397,0.0020475657376425476,0.006468079715255469,0.005822259523527995,0.018696443714835784,0.007885322514663222,0.04445642680974876
0.0232759,0.05234603534234018,0.02121526937134119,0.002057294505187963,0.006620398360343055,0.006010473009818244,0.019047153553517125,0.008053572981163376,0.04503921402047332
0.0237414,0.05258626979916331,0.021597669415273878,0.0020670257271030233,0.006772231349958423,0.0061993065878346515,0.01939819709990782,0.008221567036003376,0.04562002576495584
0.0242069,0.05282373235001792,0.021978964089225613,0.0020767604019532484,0.0069235667051792335,0.00638873983685244,0.019749548113406217,0.008389293955875307,0.046198801539537517
0.0246724,0.053058388661858205,0.022359119098307578,0.002086499580567888,0.007074392621081184,0.006578752076330951,0.02010118042190541,0.008556743200176485,0.04677548142622023
0.0251379,0.053290204993911565,0.022738100418617162,0.0020962443664790846,0.007224697468648402,0.00676932236787726,0.020453067926543545,0.008723904413597114,0.0473500061041245
0.0256034,0.05351914820283989,0.023115874300925602,0.002105995916344597,0.00737446979660224,0.006960429517296677,0.02080518460635261,0.008890767428632729,0.04792231686058416
0.026069,0.053745185747660074,0.023492407274222044,0.0021157554403537777,0.007523698333148395,0.007152052076731269,0.021157504522803662,0.009057322268020813,0.04849235560187623
0.0265345,0.053968285694424516,0.02386766614911695,0.0021255242026165205,0.007672371987642212,0.007344168346887531,0.021510001824246627,0.009223559147101063,0.04906006486358448
0.027,0.05418841672066233,0.0242416180211077,0.002135303521534891,0.007820479852172088,0.007536756379354346,0.021862650750243223,0.009389468476098844,0.04962538782059546
0.0274655,0.05440554811958168,0.024614230273709087,0.002145094770157167,0.00796801120306095,0.007729793979012392,0.022215425635791805,0.009555040862331493,0.05018826829672618
0.027931,0.054619649804033076,0.024985470581451456,0.0021548993765139915,0.008114955502285885,0.007923258706536124,0.0225683009154432,0.0097202671123371,0.05074865077398341
0.0283966,0.054830692310233256,0.025355306912748864,0.0021647188239363522,0.008261302398816148,0.008117127880989455,0.022921251127306815,0.009885138233925386,0.0513064804014556
0.0288621,0.05503864680124885,0.02572370753263982,0.0021745546513550745,0.00840704172986995,0.008311378582516259,0.023274250916946477,0.010049645438150265,0.05186170300383951
0.0293276,0.055243485070238636,0.026090641005402877,0.0021844084535815093,0.008552163522090537,0.008505987655126706,0.02362727504116552,0.010213780141203572,0.05241426508960498
0.0297931,0.055445179543453446,0.026456076197049462,0.0021942818815690996,0.008696657992642272,0.008700931709580459,0.02398029837168083,0.01037753396622946,0.05296411385880179
0.0302586,0.055643703282992556,0.02681998227769644,0.0022041766426554787,0.008840515550227454,0.008896187126367645,0.024333295898685808,0.01054089874505892,0.053511197210513
0.0307241,0.05583902998931636,0.027182328723820974,0.0022140945007847607,0.008983726796024811,0.009091730058788482,0.024686242734302293,0.010703866519863771,0.054055463749959363
0.0311897,0.056031134003515594,0.02754308532040011,0.0022240372767096546,0.00912628252455068,0.009287536436132369,0.025039114115921902,0.0108664295447295,0.05459686279525925
0.0316552,0.056219990309338205,0.027902222162937654,0.002234006848173021,0.009268173724444004,0.00948358196695721,0.02539188540943767,0.011028580287146218,0.05513534438384878
0.0321207,0.056405574534975585,0.02825970965938053,0.0022440051500684788,0.0094093915791764,0.00967984214246966,0.025744532112367238,0.011190311429416929,0.0556708592785663
0.0325862,0.05658786295461025,0.028615518531926877,0.00225403417457966,0.00954992746768858,0.009876292240006955,0.026097029856869375,0.011351615869982217,0.0562033589734059
0.0330517,0.056766832489727255,0.028969619818727848,0.0022640959712976923,0.009689772964954428,0.010072907326620915,0.02644935441265581,0.011512486724660445,0.0567327956989447
0.0335172,0.05694246071019169,0.029321984875485218,0.0022741926473164795,0.009828919842474021,0.010269662262764665,0.02680148168980041,0.011672917327802396,0.05725912242744913
0.0339828,0.057114725835094464,0.02967258537694683,0.0022843263673053595,0.009967360068696921,0.010466531706082536,0.02715338774144772,0.011832901233359333,0.05778229287766599
0.0344483,0.05728360673336903,0.03002139331830197,0.002294499353558713,0.010105085809376966,0.010663490115303579,0.027505048766422714,0.011992432215863253,0.0583022615193052
0.0349138,0.057449082924182576,0.030368381016478808,0.0023047138860221106,0.01024208942785985,0.010860511754239051,0.027856441111743506,0.012151504271318123,0.05881898357722136
0.0353793,0.0576111345771055,0.030713521111346214,0.00231497230229458,0.010378363485304794,0.011057570695884122,0.028207541275038682,0.012310111618000791,0.05933241503530171
0.0358448,0.057769742512064334,0.031056786566822116,0.0023252769976065805,0.010513900740841627,0.011254640826624055,0.028558325906870838,0.012468248697170113,0.059842512640068124
0.0363103,0.05792488819908401,0.031398150671890536,0.0023356304247732634,0.010648694151664646,0.011451695850544901,0.02890877181296796,0.012625910173682801,0.0603492339040007
0.0367759,0.05807655375782599,0.03173758704152921,0.0023460350941225984,0.010782736873064766,0.01164870929384875,0.029258855956364127,0.012783090936514429,0.06085253710859046
0.0372414,0.05822472195692898,0.032075069617549475,0.0023564935733979366,0.010916022258401483,0.011845654509373462,0.029608555459451128,0.012939786099183925,0.06135238130712843
0.0377069,0.05836937621315897,0.032410572669349935,0.0023670084876346036,0.011048543859016286,0.01204250468121672,0.029957847605942486,0.013095991000079936,0.061848726327238646
0.0381724,0.058510500590375374,0.032744070794585224,0.002377582519010092,0.011180295424089116,0.012239232829464116,0.030306709842751193,0.01325170120268732,0.0623415327731624
0.0386379,0.058648079798319604,0.03307553891975119,0.0023882184066674208,0.01131127090043958,0.012435811815020974,0.03065511978178236,0.013406912495712027,0.06283076202780147
0.0391034,0.058782099191232715,0.033404952300687886,0.0023989189465112287,0.011441464432274574,0.01263221434454738,0.031003055201641826,0.013561620893102639,0.06331637625452735
0.039569,0.05891254476630869,0.03373228652300209,0.00240968699097615,0.011570870360884077,0.012828412975495966,0.03135049404926147,0.013715822633966928,0.06379833839876356
0.0400345,0.059039403161990515,0.034057517502411545,0.002420525448767037,0.011699483224286957,0.013024380121251851,0.03169741444144193,0.013869514182381918,0.06427661218934758
0.0405,0.05916266165611655,0.03438062148501323,0.002431437284570586,0.011827297756828616,0.013220088056374037,0.03204379466631342,0.014022692227096064,0.06475116213967876
0.0409655,0.05928230816392501,0.03470157504747837,0.002442425518737953,0.011954308888732383,0.01341550892193759,0.032389613184715074,0.014175353681122433,0.06522195354865797
0.041431,0.059398331235924966,0.03502035509717667,0.0024534932269379382,0.012080511745606556,0.013610614730975806,0.03273484863149322,0.014327495681221823,0.0656889525014244
0.0418966,0.05951072005564205,0.0353369388722325,0.00246464353978032,0.01220590164790888,0.013805377374021521,0.033079479816718806,0.014479115587274946,0.0661521258698945
0.0423621,0.05961946443724709,0.0356513039415151,0.002475879642408921,0.012330474110370233,0.01399976862474665,0.03342348572682401,0.014630210981542963,0.06661144131310744
0.0428276,0.05972455482307526,0.035963428204565495,0.0024872047740639824,0.012454224841379171,0.014193760145698925,0.03376684552565781,0.014780779667815849,0.06706686727738116
0.0432931,0.0598259822810433,0.03627328989146241,0.0024986222276134253,0.012577149742328859,0.014387323494134725,0.03410953855546028,0.014930819670448433,0.0675183729962827
0.0437586,0.059923738501972086,0.03658086756262987,0.0025101353490525743,0.012699244906927866,0.014580430127946757,0.03445154433775523,0.015080329233284095,0.06796592849041576
0.0442241,0.06001781579682163,0.03688614010858922,0.002521747536971927,0.01282050662047618,0.01477305141168528,0.034792842574161126,0.015229306818466359,0.06840950456702877
0.0446897,0.06010820709384559,0.03718908674965834,0.0025334622419925725,0.012940931359107758,0.01496515862267144,0.03513341314711981,0.015377751105138697,0.06884907281944619
0.0451552,0.06019490593567195,0.037489687035600544,0.0025452829661688882,0.013060515789000776,0.015156722957201187,0.03547323612054279,0.015525660988032939,0.0692846056263257
0.0456207,0.06027790647631716,0.03778792084522584,0.0025572132623581808,0.013179256765556669,0.015347715536838101,0.03581229174037452,0.0156730355759468,0.0697160761507433
0.0460862,0.06035720347814045,0.03808376838594697,0.0025692567335569715,0.013297151332549027,0.015538107414793367,0.03615056043507207,0.01581987419011106,0.07014345833910887
0.0465517,0.06043279230874517,0.0383772101932928,0.00258141703220367,0.013414196721243221,0.015727869582391016,0.036488022816000054,0.015966176362446956,0.07056672691991471
0.0470172,0.06050466893783358,0.03866822713038157,0.002593697859447417,0.013530390349487553,0.01591697297561643,0.03682465967774007,0.016111941833714307,0.07098585740231965
0.0474828,0.06057282993402143,0.03895680038735646,0.002606102964382923,0.013645729820776643,0.01610538848174598,0.03716045199831332,0.016257170551550834,0.07140082607457197
0.0479483,0.06063727246161821,0.03924291148078578,0.002618636143251178,0.013760212923287727,0.01629308694605556,0.03749538093931567,0.01640186266840308,0.07181161000227453
0.0484138,0.06069799427737862,0.0395265422530301,0.0026313012386059514,0.01387383762889048,0.01648003917860555,0.03782942784596429,0.016546018539349228,0.07221818702649563
0.0488793,0.06075499372723069,0.039807674871578165,0.002644102138446016,0.01398660209213092,0.01666621596109982,0.03816257424705575,0.016689638719814198,0.0726205357617293
0.0493448,0.060808269742985324,0.04008629182835365,0.002657042775313073,0.014098504649189951,0.016851588053815987,0.03849480185483549,0.016832723963177317,0.07301863559370819
0.0498103,0.06085782183903235,0.04036237593899461,0.0026701271253553446,0.014209543816817126,0.01703612620260426,0.03882609256477926,0.016975275218272894,0.07341246667707253
0.0502759,0.06090365010902753,0.04063591034210735,0.0026833592073568393,0.014319718291240126,0.017219801145951927,0.03915642845528704,0.017117293626784078,0.07380200993289876
0.0507414,0.06094575522257493,0.04090687849849667,0.0026967430817322773,0.014429026947050496,0.017402583622110616,0.03948579178729022,0.0172587805205304,0.0741872470460909
0.0512069,0.06098413842190894,0.04117526419037471,0.002710282849487708,0.014537468836066037,0.017584444376283162,0.039814165003772495,0.0173997374186496,0.07456816046263764
0.0516724,0.06101880151858002,0.04144105152055038,0.0027239826511468303,0.01464504318617019,0.017765354167867165,0.040141530729204934,0.017540166024674363,0.0749447333867376
0.0521379,0.061049746890148374,0.041704224911601515,0.0027378466656430562,0.014751749400128642,0.017945283777751987,0.04046787176889547,0.01768006822350495,0.07531694977779523
0.0526034,0.061076977476889845,0.041964769105031684,0.0027518791091773512,0.014857587054383274,0.018124204015666008,0.04079317110825285,0.017819446078278726,0.07568479434728921
0.053069,0.061100496778517734,0.04222266916041357,0.0027660842340418647,0.014962555897823505,0.018302085727570822,0.04111741191196497,0.01795830182713779,0.07604825255551496
0.0535345,0.061120308850924315,0.04247791045452055,0.0027804663274093775,0.01506665585053489,0.01847889980309901,0.04144057752309154,0.018096637879895964,0.07640731060820248
0.054,0.06113641830294509,0.04273047868044822,0.0027950297100885653,0.015169887002524817,0.018654617183032077,0.04176265146207091,0.018234456814606375,0.07676195545301057
0.0544655,0.06114883029314847,0.042980359846727295,0.002809778735245075,0.015272249612425013,0.018829208866815005,0.04208361742564119,0.01837176137403106,0.07711217477589766
0.054931,0.06115755052665313,0.043227540276429076,0.0028247177870884214,0.015373744106170541,0.019002645920103898,0.04240345928567614,0.01850855446201387,0.07745795699736929
0.0553966,0.06116258525197471,0.043472006606264504,0.0028398512795247224,0.015474371075654907,0.019174899482343074,0.04272216108793656,0.01864483913975813,0.07779929126860165
0.0558621,0.061163941257903615,0.04371374578567755,0.002855183654775347,0.015574131277360933,0.01934594077436801,0.04303970705073921,0.018780618622010508,0.07813616746744013
0.0563276,0.06116162587041506,0.04395274507593324,0.002870719381961567,0.015673025630967,0.019515741106030344,0.04335608156354503,0.01891589627315292,0.07846857619427207
0.0567931,0.061155646949612556,0.04418899204920099,0.002886462955655378,0.01577105521792832,0.019684271883841184,0.04367126918546936,0.019050675603204344,0.07879650876777247
0.0572586,0.061146012886705764,0.04442247458763373,0.002902418894396707,0.01586822128003286,0.019851504618628883,0.04398525464371631,0.019184960263735312,0.07911995722052244
0.0577241,0.06113273260102318,0.04465318088244355,0.002918591739177261,0.015964525217931597,0.020017410933207334,0.044298022831939975,0.019318754043698084,0.07943891429450028
0.0581897,0.06111581553706024,0.04488109943297445,0.0029349860518913446,0.016059968589642717,0.020181962570050914,0.044609558808534885,0.01945206086517625,0.07975337343644598
0.0586552,0.06109527166156316,0.045106219045772875,0.0029516064137539975,0.016154553109029378,0.020345131398972035,0.04491984779485811,0.019584884779057878,0.08006332879309969
0.0591207,0.06107111146064852,0.04532852883365636,0.0029684574236868728,0.01624828064425058,0.02050688942479727,0.04522887517338521,0.019717229960636535,0.08036877520631516
0.0595862,0.06104334593695918,0.04554801821478058,0.0029855436966723017,0.016341153216184637,0.020667208795038063,0.045536626485802326,0.019849100705144628,0.08066970820804917
0.0600517,0.061011986606856736,0.04576467691170474,0.003002869862076037,0.016433172996824664,0.020826061807551973,0.04584308743103669,0.01998050142322359,0.08096612401522808
0.0605172,0.06097704549765072,0.0459784949504554,0.003020440561939203,0.016524342307645483,0.020983420918190433,0.046148243863227675,0.02011143663633524,0.08125801952449373
0.0609828,0.06093853514486481,0.046189462659588704,0.0030382604492400437,0.016614663617941356,0.021139258748429052,0.04645208178964057,0.020241910972118825,0.08154539230683078
0.0614483,0.060896468589539475,0.04639757066925123,0.003056334186126106,0.016704139543134204,0.021293548092976466,0.04675458736852532,0.020371929159698033,0.08182824060207897
0.0619138,0.06085085937557053,0.04660280991023959,0.003074666442117559,0.016792772843052056,0.021446261927357754,0.0470557469069227,0.020501496024942473,0.08210656331333317
0.0623793,0.060801721547082486,0.046805171613059256,0.003093261892282406,0.01688056642017784,0.021597373415468454,0.047355546858420326,0.02063061648568802,0.0823803600012343
0.0628448,0.060749069645834944,0.04700464730698268,0.003112125215384395,0.016967523317868664,0.021746855917095124,0.04765397382086132,0.020759295546920634,0.08264963087815407
0.0633103,0.06069291870866036,0.047201228819106884,0.0031312610920044637,0.01705364671854593,0.021894682995398585,0.04795101453400809,0.020887538295928425,0.08291437680227626
0.0637759,0.06063328426493064,0.0473949082734106,0.0031506742026365855,0.01713893994185662,0.022040828424355986,0.048246655877163966,0.0210153498974267,0.08317459927157758
0.0642414,0.06057018233404985,0.04758567808981031,0.0031703692257588813,0.01722340644280594,0.02218526619615822,0.04854088486675511,0.021142735588660956,0.08343030041771102
0.0647069,0.06050362942296996,0.04777353098321494,0.0031903508358808873,0.01730704980986149,0.022327970528559542,0.04883368865387494,0.021269700674492735,0.08368148299979439
0.0651724,0.060433642523726405,0.04795845996257824,0.0032106237015678495,0.017389873763028977,0.022468915872176844,0.049125054521793145,0.02139625052247333,0.083928150398107
0.0656379,0.06036023911098978,0.0481404583299478,0.0032311924834429006,0.017471882151899508,0.022608076917736544,0.04941496988343096,0.02152239055791014,0.08417030660769703
0.0661034,0.060283437139629976,0.04831951967950982,0.0032520618321679753,0.017553078953668266,0.022745428603267497,0.049703422278804234,0.021648126258930575,0.08440795623190224
0.066569,0.060203255042288704,0.04849563789662849,0.0032732363864042967,0.017633468271124404,0.022880946121238657,0.04999039937243531,0.021773463151548295,0.08464110447578681
0.0670345,0.06011971172695632,0.04866880715687965,0.0032947207707532647,0.017713054330612002,0.02301460492564077,0.050275888950734954,0.021898406804736363,0.08486975713949749
0.0675,0.06003282657454838,0.04883902192507918,0.0033165195936785833,0.017791841479961903,0.023146380739011492,0.0505598789193547,0.02202296282551195,0.08509392061154175
0.0679655,0.05994261943647741,0.049006276954307516,0.0033386374454104657,0.017869834186394325,0.023276249559403665,0.05084235730051008,0.022147136854036947,0.08531360186199077
0.068431,0.059849110632215395,0.049170567284932895,0.003361078895832792,0.01794703703439227,0.023404187667296638,0.05112331223027472,0.022270934558738777,0.0855288084356094
0.0688966,0.05975232094684221,0.04933188824363658,0.0033838484923540994,0.018023454723545843,0.023530171632450622,0.051402731955845146,0.022394361631455677,0.08573954844491465
0.0693621,0.05965227162857527,0.049490235442443686,0.0034069507577633293,0.018099092066367523,0.023654178320704197,0.05168060483277589,0.022517423782610534,0.08594583056316378
0.0698276,0.0595489843862753,0.049645604777763246,0.00343039018807128,0.018173953986078573,0.023776184900715088,0.05195691932218457,0.022640126736417337,0.08614766401727213
0.0702931,0.0594424813869233,0.04979799242944109,0.0034541712503387456,0.018248045514366717,0.0238961688506442,0.052231663987925975,0.022762476226124134,0.0863450585806604
0.0707586,0.059332785253063215,0.04994739485982879,0.0034782983804923415,0.018321371789115273,0.024014107964782917,0.05250482749373451,0.022884477989296298,0.08653802456603096
0.0712241,0.05921991906020519,0.05009380881287159,0.003502775981129056,0.018393938052103948,0.02412998036012358,0.05277639860033412,0.023006137763143718,0.08672657281807197
0.0716897,0.05910390633418361,0.05023723131321818,0.003527608419310571,0.018465749646681347,0.02424376448287281,0.05304636616251496,0.023127461279895508,0.08691071470608779
0.0721552,0.05898477104846415,0.050377659665354846,0.0035528000243484226,0.0185368120154093,0.024355439114907142,0.0533147191261764,0.02324845426222553,0.0870904621165547
0.0726207,0.05886253762139413,0.05051509145276605,0.0035783550855811013,0.018607130697678838,0.024464983380170464,0.05358144652533681,0.02336912241873192,0.08726582744560106
0.0730862,0.058737230913390615,0.0506495245371234,0.003604277850144218,0.01867671132729777,0.024572376751012405,0.05384653747911063,0.023489471439473664,0.08743682359141193
0.0735517,0.058608876224061426,0.05078095705750429,0.0036305725207349203,0.018745559630049553,0.02467759905446697,0.054109981188654024,0.02360950699156713,0.08760346394655961
0.0740172,0.05847749928925442,0.050909387429641385,0.00365724325337178,0.018813681421223246,0.02478063047847048,0.054371766934080384,0.023729234714845306,0.08776576239026225
0.0744828,0.05834312627803092,0.051034814345203836,0.003684294155151402,0.018881082603114257,0.0248814515780181,0.05463188407134772,0.0238486602175823,0.08792373328057339
0.0749483,0.058205783789559214,0.0511572367711105,0.003711729282003027,0.018947769162495385,0.024980043281258062,0.054890322029120225,0.023967789072285556,0.08807739144650639
0.0754138,0.058065498849924166,0.05127665394887568,0.003739552636442387,0.019013747168057694,0.025076386895522926,0.05514707030560652,0.024086626811558213,0.08822675218009832
0.0758793,0.05792229890884876,0.051393065393987254,0.003767768165326076,0.019079022767820537,0.025170464113297132,0.05540211846537721,0.024205178924033836,0.08837183122841878
0.0763448,0.05777621183632367,0.05150647089531678,0.0037963797576076705,0.01914360218650998,0.025262257018120307,0.05565545613616471,0.0243234508503858,0.08851264478552934
0.0768103,0.057627265919141225,0.05161687051456094,0.0038253912420968023,0.019207491722904813,0.025351748090425723,0.05590707300564855,0.024441447979413652,0.08864920948439885
0.0772759,0.057475489857330184,0.05172426458571361,0.0038548063852223767,0.01927069774714927,0.02543892021331329,0.0561569588182295,0.02455917564420881,0.08878154238878007
0.0777414,0.05732091276048829,0.05182865371456773,0.003884628888801086,0.019333226698031534,0.025523756678256508,0.056405103371796106,0.02467663911840182,0.08890966098505203
0.0782069,0.05716356414400923,0.05193003877824638,0.003914862387812354,0.019395085080227168,0.025606241190742823,0.05665149651448733,0.024793843612493534,0.08903358317403295
0.0786724,0.05700347392520084,0.05202842092476289,0.003945510448180822,0.019456279461506607,0.02568635787584682,0.05689612814145454,0.02491079427027247,0.08915332726276802
0.0791379,0.056840672419291194,0.05212380157260959,0.003976576564567438,0.01951681646990599,0.02576409128373572,0.057138988191626404,0.02502749616532063,0.08926891195629695
0.0796034,0.05667519033531942,0.05221618241037511,0.004008064158170222,0.019576702790860625,0.025839426395106627,0.05738006664447967,0.025143954297610006,0.08938035634940587
0.080069,0.05650705877190893,0.052305565396389454,0.004039976574535717,0.019635945164300686,0.02591234862655508,0.05761935351681943,0.025260173590192135,0.08948767991836777
0.0805345,0.05633630921292135,0.05239195275839601,0.004072317081382158,0.01969455038170879,0.025982843835874354,0.05785683885957218,0.025376158885982686,0.08959090251267593
0.081,0.05616297352299043,0.0524753469932493,0.004105088866435342,0.01975252528313925,0.026050898327285153,0.05809251275459527,0.025491914944643188,0.08969004434677488
0.0814655,0.05598708394293659,0.052555750866636684,0.004138295035278181,0.019809876754198732,0.02611649885659521,0.058326365311506395,0.02560744643956161,0.08978512599179285
0.081931,0.05580867308506377,0.05263316741282226,0.004171938609214876,0.019866611722988148,0.02617963263628841,0.05855838666453647,0.025722757954933357,0.08987616836727999
0.0823966,0.055627773928340896,0.05270759993441099,0.0042060225231506446,0.019922737157005585,0.02624028734054303,0.058788566969409185,0.025837853982944154,0.08996319273295658
0.0828621,0.05544441981347075,0.05277905200213131,0.004240549623487908,0.019978260060010262,0.026298451110178644,0.05901689640024997,0.025952738921055974,0.09004622068047462
0.0833276,0.05525864443784918,0.05284752745463487,0.0042755226660398105,0.020033187468847684,0.026354112557531315,0.05924336514652716,0.026067417069397043,0.09012527412519648
0.0837931,0.05507048185041715,0.05291303039831211,0.004310944313961957,0.020087526450236447,0.026407260771256495,0.059467963410027976,0.026181892628256737,0.09020037529799428
0.0842586,0.05487996644640803,0.052975565207122925,0.004346817135703225,0.02014128409751721,0.026457885321059207,0.05969068140187219,0.026296169695686024,0.09027154673707286
0.0847241,0.054687132961992124,0.05303513652244159,0.00438314360297651,0.020194467527364417,0.026505976262350846,0.05991150933956625,0.02641025226520397,0.09033881127981995
0.0851897,0.05449201646882013,0.05309174925291497,0.004419926088750217,0.020247083876461378,0.026551524140831964,0.06013043744410124,0.026524144223610758,0.09040219205468641
0.0856552,0.05429465236846703,0.053145408574332864,0.00445716686526131,0.02029914029813947,0.026594519997000254,0.06034745593709814,0.02663784934890777,0.09046171247309975
0.0861207,0.05409507638677721,0.053196119929509324,0.00449486810205069,0.020350643958982662,0.026634955370582854,0.060562555038004354,0.026751371308325347,0.09051739622141472
0.0865862,0.053893324568111814,0.05324388902817348,0.004533031864021627,0.020401602035399063,0.0266728223048919,0.060775724961345125,0.02686471365645897,0.09056926725290403
0.0870517,0.053689433269498626,0.05328872184686869,0.004571660109521944,0.020452021710161968,0.02670811335110213,0.06098695591403405,0.026977879833514535,0.09061734977979236
0.0875172,0.0534834391546847,0.053330624628858604,0.004610754688450638,0.02050191016892321,0.026740821572449214,0.06119623809274694,0.027090873163663622,0.09066166826533667
0.0879828,0.053275379188091276,0.05336960388403893,0.004650317340389559,0.020551274596702026,0.02677094054834714,0.061403561681363655,0.027203696853509488,0.09070224741595477
0.0884483,0.05306529062867026,0.05340566638885398,0.004690349692760782,0.02060012217435264,0.026798464378422752,0.061608916848482534,0.027316353990664632,0.09073911217340433
0.0889138,0.05285321102366129,0.053438819186217186,0.004730853259010267,0.020648460075013784,0.026823387686465545,0.0618122937450123,0.02742884754244068,0.09077228770701402
0.0893793,0.052639178202247436,0.05346906958543488,0.004771829436818368,0.020696295460543298,0.0268457056242904,0.0620136825018458,0.027541180354651265,0.09080179940596826
0.0898448,0.05242323026910772,0.05349642516213313,0.004813279506337764,0.020743635477940912,0.026865413875510984,0.06221307322761951,0.027653355150528303,0.09082767287164732
0.0903103,0.0522054055978641,0.05352089375818719,0.004855204628459375,0.020790487255762397,0.02688250865922115,0.06241045600656259,0.027765374529751922,0.09084993391002451
0.0907759,0.05198574282441987,0.05354248348165372,0.004897605843106747,0.02083685790052811,0.026896986733581853,0.0626058208964388,0.027877240967594037,0.09086860852412228
0.0912414,0.051764280840186264,0.053561202706705634,0.004940484067559459,0.020882754493129017,0.02690884539931078,0.06279915792658367,0.027988956814175327,0.09088372290652895
0.0917069,0.05154105878519364,0.05357706007356982,0.004983840094806057,0.020928184085233007,0.02691808250307185,0.06299045709603923,0.02810052429383518,0.0908953034319771
0.0921724,0.051316116041083104,0.053590064488467884,0.005027674591927057,0.020973153695694285,0.026924696440761724,0.06317970837178814,0.028211945504613842,0.0909033766499842
0.0926379,0.051089492223974645,0.05360022512356007,0.005071988098508572,0.021017670306968352,0.02692868616069033,0.06336690168708824,0.02832322241784585,0.09090796927755561
0.0931034,0.05086122717720738,0.05360755141689302,0.0051167810250871545,0.02106174086153508,0.02693005116665238,0.06355202693990857,0.028434356877863626,0.09090910819194961
0.093569,0.05063136096394801,0.05361205307235205,0.00516205365162645,0.02110537225833202,0.026928791520886775,0.06373507399146712,0.028545350601809925,0.09090682042350309
0.0940345,0.050399933859664306,0.05361374005961926,0.0052078061260263184,0.021148571349200146,0.026924907846920903,0.06391603266487048,0.028656205179557682,0.09090113314851642
0.0945,0.0501669863444613,0.053612622614138815,0.005254038462665059,0.021191344935343862,0.026918401332296577,0.06409489274385503,0.028766922073735674,0.09089207368219558
0.0949655,0.0499325590952792,0.053608711237090795,0.005300750540975423,0.02123369976380712,0.026909273731174504,0.06427164397162956,0.028877502619858376,0.09087966947164963
0.095431,0.049696692977953115,0.05360201669537518,0.005347942104055102,0.02127564252396727,0.026897527366814142,0.06444627604981865,0.028987948026558186,0.09086394808894167
0.0958966,0.04945942903913669,0.05359255002160744,0.005395612757312389,0.02131717984404815,0.026883165133925784,0.06461877863750683,0.02909825937591812,0.09084493722419222
0.0963621,0.04922080849809215,0.05358032251412735,0.005443761967147744,0.021358318287653756,0.026866190500891653,0.06478914135038326,0.029208437623903058,0.09082266467873396
0.0968276,0.048980872738350244,0.053565345737022506,0.005492389059671987,0.021399064350323706,0.02684660751185298,0.06495735375998717,0.029318483600887398,0.09079715835831831
0.0972931,0.04873966329924403,0.05354763152016771,0.005541493219461894,0.021439424456111595,0.02682442078865986,0.06512340539305463,0.029428398012277136,0.09076844626637343
0.0977586,0.04849722186732004,0.05352719195928142,0.005591073488353911,0.02147940495418717,0.026799635532680867,0.06528728573096723,0.029538181439224334,0.09073655649731352
0.0982241,0.04825359026763095,0.053504039415999814,0.005641128764276758,0.02151901211546325,0.0267722575264694,0.06544898420930344,0.02964783433943214,0.09070151722989905
0.0986897,0.04800881045491373,0.05347818651796886,0.005691657800123599,0.021558252129247914,0.02674229313528373,0.06560849021749417,0.02975735704804856,0.09066335672064661
0.0991552,0.0477629245046582,0.053449646158954416,0.005742659202664489,0.021597131099922732,0.02670974930845775,0.06576579309858448,0.029866749778647003,0.09062210329728691
0.0996207,0.047515974604071046,0.053418431498970124,0.0057941314314997345,0.021635655043647332,0.026674633580619504,0.06592088214910408,0.029976012624291636,0.09057778535226844
0.1000862,0.047268003042941056,0.05338455596442253,0.005846072798054852,0.021673829885090663,0.02663695407275438,0.0660737466190505,0.030085145558685397,0.09053043133630377
0.1005517,0.04701905220441191,0.053348033248273086,0.005898481464617816,0.02171166145418924,0.026596719493110033,0.06622437571198878,0.03019414843739825,0.09048006975195562
0.1010172,0.046769164555668846,0.053308877310216794,0.005951355443419314,0.021749155482932596,0.026553939137939957,0.06637275858527203,0.03030302099917318,0.09042672914725888
0.1014828,0.046518382638545866,0.05326710237687698,0.006004692595756771,0.021786317602176274,0.026508622892082705,0.06651888435038615,0.03041176286730731,0.09037043810937473
0.1019483,0.04626674906005975,0.05322272294201601,0.006058490631162968,0.021823153338482594,0.02646078122937368,0.06666274207342207,0.030520373551105283,0.09031122525827286
0.1024138,0.046014306482877076,0.05317575376676167,0.006112747106620052,0.021859668110989616,0.026410425212886442,0.06680432077567844,0.03062885244740208,0.09024911924043716
0.1028793,0.045761097615720066,0.05312620987984905,0.006167459425819864,0.021895867228308653,0.02635756649500052,0.0669436094343971,0.030737198842152383,0.0901841487225905
0.1033448,0.04550716520371678,0.05307410657787798,0.006222624838471445,0.02193175588545068,0.026302217317292476,0.06708059698363375,0.030845411912083478,0.09011634238543459
0.1038103,0.045252552018700674,0.05301945942558603,0.00627824043965665,0.021967339160781977,0.02624439051024724,0.06721527231526533,0.030953490726408784,0.09004572891740172
0.1042759,0.04499730084946444,0.05296228425613707,0.006334303169234824,0.02200262201300946,0.026184099492786522,0.06734762428013626,0.031061434248598946,0.08997233700841567
0.1047414,0.04474145449197274,0.05290259717142525,0.006390809811297484,0.022037609278195987,0.026121358271611165,0.06747764168934477,0.031169241338207285,0.08989619534366089
0.1052069,0.04448505573953803,0.052840414542394104,0.006447756993673999,0.022072305666806052,0.02605618144035432,0.06760531331567056,0.03127691075274631,0.08981733259735974
0.1056724,0.04422814737296365,0.05277575300937005,0.006505141187489308,0.022106715760782276,0.025988584178542346,0.0677306278951442,0.031384441149611905,0.08973577742655833
0.1061379,0.04397077215065835,0.0527086294824096,0.006562958706774688,0.022140844010653193,0.025918582250360207,0.06785357412875888,0.03149183108805167,0.08965155846492173
0.1066034,0.04371297279872685,0.052639061141659366,0.006621205708132681,0.022174694732673104,0.025846192003218218,0.06797414068432411,0.03159907903117383,0.08956470431654066
0.107069,0.043454792001041145,0.052567065437727635,0.006679878190457241,0.022208272105994947,0.025771430366116916,0.06809231619846094,0.031706183347993085,0.0894752435497524
0.1075345,0.043196272389298344,0.05249266009206607,0.006738971994710233,0.022241580169877373,0.025694314847806713,0.06820808927873719,0.03181314231550958,0.08938320469097967
0.108,0.04293745653307053,0.052415863097359815,0.006798482803755392,0.02227462282092756,0.02561486353473906,0.06832144850594114,0.031919954120817266,0.08928861621859195
0.1084655,0.04267838692985265,0.052336692717924065,0.00685840614225088,0.022307403810381397,0.02553309508880579,0.06843238243649145,0.03202661686323809,0.08919150655679423
0.108931,0.04241910599511426,0.05225516749010473,0.006918737376601543,0.022339926741422888,0.02544902874486383,0.06854087960498043,0.03213312855647871,0.08909190406954783
0.1093966,0.04215965605236055,0.05217130622268074,0.006979471714971969,0.022372195066544517,0.02536268430804282,0.06864692852684787,0.03223948713080668,0.08898983705452901
0.1098621,0.04190007932320787,0.05208512799726511,0.0070406042073613935,0.022404212084950727,0.025274082150834175,0.06875051770118233,0.032345690435243504,0.08888533373713052
0.1103276,0.04164041791747856,0.051996652168702175,0.007102129745741459,0.022435980940006813,0.025183243209960977,0.06885163561364674,0.0324517362397716,0.08877842226451167
0.1107931,0.04138071382331965,0.051905898365458274,0.007164043064257788,0.022467504616736106,0.025090188983028998,0.0689502707395258,0.03255762223755284,0.08866913069970175
0.1112586,0.041121008897349744,0.05181288649000329,0.007226338739496301,0.022498785939368476,0.024994941524960054,0.06904641154689342,0.03266334604715578,0.0885574870157614
0.1117241,0.040861344854837875,0.051717636719180546,0.007289011190815097,0.022529827568943454,0.024897523444209677,0.06914004649989887,0.03276890521478914,0.08844351909000597
0.1121897,0.040601763259918176,0.05162016950456244,0.007352054680742725,0.0225606320009714,0.024797957898771546,0.06923116406217038,0.03287429721653884,0.08832725469829472
0.1126552,0.040342305515843856,0.05152050557278928,0.0074154633154435755,0.022591201563156024,0.024696268591971788,0.06931975270033543,0.03297951946060618,0.08820872150938844
0.1131207,0.04008301285528393,0.051418665925888285,0.007479231045251126,0.022621538413181614,0.02459247976805666,0.06940580088765622,0.03308456928954467,0.08808794707937871
0.1135862,0.03982392633066627,0.05131467184156959,0.007543351665269644,0.022651644536568427,0.024486616207577312,0.06948929710777868,0.033189443982493017,0.08796495884619135
0.1140517,0.039565086804570326,0.05120854487349603,0.007607818816045006,0.022681521744599795,0.024378703222575574,0.06957022985859353,0.03329414075740198,0.0878397841241666
0.1145172,0.0393065349401731,0.051100306851522975,0.007672625984305171,0.02271117167232489,0.02426876665157486,0.06964858765620748,0.03339865677325273,0.08771245009871916
0.1149828,0.03904831119175163,0.05098997988190512,0.0077377665037708975,0.02274059577664107,0.024156832854380243,0.0697243590390232,0.03350298913226458,0.08758298382108179
0.1154483,0.0387904557952452,0.050877586347466315,0.0078032335560371995,0.022769795334459858,0.02404292870669174,0.06979753257192639,0.033607134882089974,0.087451412203136
0.1159138,0.03853300875888032,0.050763148907728976,0.007869020171526069,0.02279877144096057,0.023927081594534674,0.06986809685057803,0.03371109101799491,0.08731776201233397
0.1163793,0.038276009853861426,0.050646690498999405,0.007935119230510936,0.022827525007935466,0.023809319408510863,0.06993604050580961,0.03381485448502267,0.08718205986671594
0.1168448,0.03801949860512998,0.05052823433440499,0.008001523464213326,0.022856056762230195,0.023689670537874286,0.0700013522081187,0.03391842218013919,0.08704433223002733
0.1173103,0.037763514282195064,0.05040780390387976,0.008068225455972114,0.02288436724428299,0.0235681638644346,0.07006402067226195,0.03402179095435827,0.08690460540693963
0.1177759,0.037508095890038395,0.050285422974094676,0.008135217642485757,0.02291245680676613,0.023444828756291853,0.0701240346619419,0.034124957614844985,0.08676290553837901
0.1182414,0.037253282160096976,0.050161115588329065,0.00820249231512783,0.022940325613332806,0.02331969506140547,0.0701813829945844,0.034227918926995574,0.08661925859696638
0.1187069,0.036999111541326485,0.050034906066279486,0.008270041621336105,0.022967973637472407,0.023192793101000562,0.07023605454620195,0.03433067161649212,0.08647369038257269
0.1191724,0.036745622191348484,0.04990681900380236,0.008337857566075453,0.022995400661477237,0.023064153662814637,0.0702880382563393,0.034433212371330554,0.08632622651799354
0.1196379,0.03649285196768457,0.04977687927258625,0.008405932013374768,0.023022606275523314,0.022933807994187688,0.07033732313309625,0.03453553784382064,0.08617689244474724
0.1201034,0.03624083841908038,0.04964511201975002,0.008474256687938086,0.02304958987686798,0.022801787794998748,0.07038389825822351,0.034637644652557205,0.0860257134190003
0.120569,0.03598961877692259,0.04951154266736283,0.008542823176830071,0.023076350669166808,0.022668125210452136,0.07042775279228704,0.034739529384361846,0.08587271450762515
0.1210345,0.03573922994675182,0.04937619691188176,0.008611622931235975,0.023102887661912173,0.022532852823716663,0.07046887597989755,0.03484118859619508,0.08571792058439474
0.1215,0.03548970849987445,0.049239100723502606,0.008680647268296173,0.023129199669995656,0.022396003648421217,0.07050725715500164,0.03494261881703867,0.08556135632631907
0.1219655,0.035241090665076254,0.04910028034541938,0.008749887373015342,0.023155285313396355,0.022257611121010348,0.07054288574623163,0.035043816549748134,0.08540304621012905
0.122431,0.03499341232044065,0.04895976229298747,0.008819334300246312,0.02318114301699695,0.022117709092963445,0.07057575128231158,0.035144778272875765,0.08524301450891297
0.1228966,0.03474670898527423,0.04881757335278567,0.008888978976748636,0.023206771010529165,0.02197633182288122,0.07060584339751706,0.035245500442464384,0.0850812852889114
0.1233621,0.03450101581214215,0.04867374058157179,0.008958812203321861,0.023232167328650175,0.0218335139684432,0.07063315183718667,0.03534597949381281,0.08491788240647576
0.1238276,0.03425636757901549,0.048528291305126765,0.009028824657013506,0.02325732981115134,0.021689290578239998,0.07065766646328374,0.03544621184321368,0.08475282950519604
0.1242931,0.03401279868153298,0.04838125311698252,0.009099006893401654,0.023282256103300487,0.02154369708348412,0.07067937726000668,0.035546193889664436,0.08458615001320262
0.1247586,0.033770343125378716,0.04823265387702885,0.009169349348952121,0.023306943656318895,0.021396769289603188,0.07069827433944631,0.03564592201655204,0.08441786714064665
0.1252241,0.033529034518777916,0.04808252170999489,0.00923984234345004,0.023331389727994083,0.021248543367719405,0.07071434794728791,0.03574539259331188,0.08424800387736359
0.1256897,0.03328890606511234,0.04793088500380125,0.009310476082505657,0.02335559138342936,0.021099055846019215,0.07072758846855645,0.03584460197706117,0.08407658299072346
0.1261552,0.033049990555657334,0.04777777240777902,0.009381240660134052,0.023379545495931024,0.020948343601017147,0.07073798643340214,0.03594354651420702,0.08390362702367145
0.1266207,0.03281232036244258,0.047623212830752076,0.009452126061408479,0.02340324874803398,0.020796443848717892,0.07074553252292365,0.03604222254202906,0.08372915829296104
0.1270862,0.032575927431238834,0.04746723543897969,0.009523122165186873,0.023426697632666364,0.020643394135680622,0.07075021757502592,0.03614062639023669,0.0835531988875823
0.1275517,0.032340843274673056,0.04730986965395662,0.009594218746911074,0.02344988845445357,0.02048923232998974,0.0707520325903088,0.03623875438250072,0.08337577066738666
0.1280172,0.03210709896547468,0.04715114515006797,0.009665405481478194,0.023472817331162018,0.020333996612136116,0.07075096873798299,0.03633660283795939,0.08319689526190996
0.1284828,0.03187472512985556,0.046991091852096434,0.009736671946183524,0.02349548019528269,0.02017772546581303,0.07074701736180963,0.03643416807269885,0.08301659406939536
0.1289483,0.03164375194102616,0.04682973993257944,0.009808007623734247,0.023517872795754406,0.020020457668631055,0.07074016998605946,0.0365314464012077,0.08283488825601862
0.1294138,0.03141420911285052,0.04666711980901395,0.009879401905333153,0.02353999069982657,0.019862232282756107,0.07073041832148735,0.03662843413780554,0.08265179875531814
0.1298793,0.03118612589364251,0.04650326214090733,0.009950844093831504,0.02356182929506095,0.019703088645474952,0.07071775427131785,0.03672512759804481,0.08246734626783268
0.1303448,0.030959531060105988,0.046338197826672825,0.010022323406950077,0.023583383791472026,0.01954306635969249,0.0707021699372367,0.03682152310008529,0.08228155126094915
0.1308103,0.030734452911421888,0.046171958000368614,0.01009382898056737,0.02360464922380522,0.01938220528436513,0.07068365762538356,0.036917616966040116,0.08209443396896286
0.1312759,0.030510919263485516,0.046004574028279864,0.010165349872073877,0.023625620453952282,0.019220545524874594,0.07066220985234077,0.0370134055232922,0.08190601439335231
0.1317414,0.030288957443297647,0.04583607750534295,0.010236875063791322,0.023646292173503038,0.019058127423346376,0.07063781935111374,0.03710888510577965,0.0817163123032694
0.1322069,0.030068594283513196,0.04566650025141115,0.010308393466455576,0.02366665890643254,0.01889499154891721,0.07061047907709854,0.037204052055248835,0.08152534723624644
0.1326724,0.029849856117151203,0.04549587430736111,0.010379893922762055,0.023686715011922595,0.0187311786879556,0.07058018221403305,0.037298902722473895,0.08133313849911974
0.1331379,0.02963276877246993,0.04532423193103933,0.010451365210972209,0.023706454687316542,0.018566729834239612,0.07054692217992807,0.03739343346844181,0.08113970516916966
0.1336034,0.02941735756801044,0.045151605593047955,0.01052279604857973,0.023725871971206014,0.01840168617909588,0.07051069263297532,0.037487640665502454,0.08094506609547616
0.134069,0.029203647307812074,0.044978027972369584,0.010594175096034988,0.023744960746648214,0.0182360891015037,0.07047148747742897,0.03758152069848369,0.08074923990048863
0.1345345,0.028991662276802863,0.04480353195183085,0.010665490960526137,0.02376371474451224,0.01806998015816796,0.07042930086945728,0.03767506996577165,0.08055224498180802
0.135,0.02878142623636772,0.044628150613404784,0.010736732199815238,0.02378212754695267,0.01790340107356469,0.07038412722296128,0.03776828488035671,0.0803540995141791
0.1354655,0.028572962420097082,0.04445191723335221,0.01080788732612769,0.023800192591008684,0.017736393729962652,0.07033596121535635,0.03786116187084583,0.08015482145168994
0.135931,0.028366293529718374,0.04427486527720228,0.010878944810093168,0.023817903172326637,0.017569000157424557,0.07028479779331376,0.03795369738244232,0.07995442853017565
0.1363966,0.028161441731212374,0.04409702839457232,0.010949893084736142,0.023835252449004016,0.01740126252379118,0.07023063217845876,0.03804588787789457,0.07975293826982273
0.1368621,0.027958428651116453,0.0439184404138271,0.011020720549513988,0.023852233445552345,0.017233223124651597,0.07017345987302333,0.038137729838415735,0.07955036797797016
0.1373276,0.02775727537301632,0.04373913533657728,0.011091415574400625,0.02386883905697654,0.017064924373302648,0.07011327666545197,0.03822921976457726,0.07934673475210278
0.1377931,0.027558002434227877,0.04355914733201742,0.011161966504013509,0.02388506205296797,0.016896408790700503,0.07005007863595974,0.03832035417717908,0.07914205548303248
0.1382586,0.027360629822670398,0.04337851073110365,0.011232361661781676,0.023900895082208364,0.016727718995407224,0.0699838621620418,0.038411129618099914,0.07893634685826262
0.1387241,0.02716517697393217,0.04319726002057136,0.01130258935415254,0.02391633067678153,0.01655889769353491,0.06991462392393397,0.03850154265113065,0.07872962536553138
0.1391897,0.02697166276852956,0.04301542983679366,0.011372637874835003,0.023931361256689716,0.016389987668690025,0.0698423609100232,0.03859158986279389,0.07852190729652893
0.1396552,0.026780105529360283,0.042833054959481365,0.011442495509076344,0.02394597913447138,0.01622103177192032,0.06976707042220681,0.0386812678631523,0.07831320875078378
0.1401207,0.02659052301935156,0.04265017030522515,0.011512150537970374,0.023960176519916953,0.01605207291166661,0.06968875008119874,0.03877057328660832,0.07810354563971293
0.1405862,0.02640293243930361,0.04246681092088074,0.0115815912427942,0.02397394552487917,0.015883154043721707,0.06960739783178087,0.038859502792697356,0.07789293369082972
0.1410517,0.02621735042592888,0.04228301197679759,0.011650805909370997,0.02398727816817441,0.015714318161198657,0.0695230119479972,0.03894805306687619,0.07768138845210305
0.1415172,0.02603379305008718,0.042098808759891616,0.011719782832456175,0.024000166380571373,0.01554560828451041,0.06943559103828793,0.03903622082130841,0.07746892529646056
0.1419828,0.02585227581521678,0.04191423666656264,0.011788510320144255,0.024012602009863573,0.015377067451363026,0.06934513405056052,0.039124002795648115,0.07725555942642823
0.1424483,0.02567281365596127,0.0417293311954573,0.011856976698293829,0.024024576826021937,0.015208738706764494,0.06925164027719466,0.03921139575782349,0.07704130587889835
0.1429138,0.02549542093699186,0.041544127940079244,0.011925170314967874,0.02403608252642389,0.01504066509305127,0.06915510935997779,0.039298396504821774,0.07682617953001716
0.1433793,0.025320111452024587,0.0413586625812488,0.011993079544886806,0.02404711074115515,0.014872889639934682,0.06905554129496749,0.039385001863477334,0.07661019510018331
0.1438448,0.02514689842303165,0.04117297087941529,0.012060692793891577,0.024057653038380544,0.014705455354569333,0.06895293643727764,0.0394712086912645,0.07639336715914803
0.1443103,0.024975794499646032,0.040987088666825204,0.012127998503414141,0.02406770092977985,0.014538405211645743,0.06884729550578517,0.03955701387709686,0.07617571013120794
0.1447759,0.02480681175875846,0.040801051839550156,0.012194985154952721,0.024077245876044918,0.014371782143509534,0.06873861958775476,0.03964241434213458,0.075957238300482
0.1452414,0.02463996170430547,0.040614896349377864,0.012261641274549205,0.024086279292433954,0.014205629030309475,0.06862691014337964,0.03972740704060113,0.07573796581626566
0.1457069,0.02447525526724751,0.040428658195570046,0.012327955437265972,0.024094792554379147,0.014039988690176834,0.06851216901023718,0.03981198896061093,0.07551790669845622
0.1461724,0.02431270280573556,0.0402423734164909,0.01239391627165942,0.024102777003143408,0.01387490386943852,0.06839439840765842,0.03989615712500896,0.0752970748430443
0.1466379,0.02415231410546476,0.04005607808111041,0.012459512464247348,0.02411022395152224,0.013710417232866527,0.06827360094101058,0.0399799085922237,0.07507548402766716
0.1471034,0.023994098380213234,0.039869808280386915,0.012524732763967253,0.02411712468958661,0.013546571353966235,0.06814977960589212,0.0400632404571341,0.07485314791721952
0.147569,0.023838064272564238,0.03968360011853398,0.012589565986622546,0.024123470490462845,0.013383408705306096,0.06802293779223945,0.040146149851951446,0.07463008006951824
0.1480345,0.023684219854809306,0.03949748970417709,0.012654001019313578,0.02412925261614553,0.013220971648891256,0.06789307928834487,0.040228633947116656,0.0744062939410169
0.1485,0.023532572630030144,0.03931151314140593,0.01271802682485026,0.024134462323339594,0.013059302426583576,0.06776020828478492,0.0403106899522133,0.07418180289256682
0.1489655,0.023383129533356594,0.03912570652072842,0.01278163244614304,0.02413909086932771,0.012898443150570512,0.06762432937825788,0.040392315116896456,0.07395662019522094
0.149431,0.023235896933398004,0.03894010590993241,0.012844807010568893,0.02414312951785897,0.01273843579388522,0.06748544757532922,0.04047350673183736,0.07373075903607695
0.1498966,0.023090880633844995,0.03875474734486124,0.012907539734309015,0.02414656954505473,0.012579322180980183,0.06734356829608362,0.040554262129683695,0.07350423252415582
0.1503621,0.022948085875238472,0.03856966682010926,0.012969819926655144,0.02414940224532749,0.012421143978356523,0.06719869737768171,0.040634578686035226,0.07327705369631161
0.1508276,0.02280751733690262,0.0383849002796432,0.013031636994281462,0.02415161893730836,0.012263942685251137,0.06705084107781976,0.04071445382043433,0.07304923552316861
0.1512931,0.02266917913903846,0.03820048360735557,0.013092980445479512,0.024153210969778564,0.012107759624383653,0.06690000607809005,0.04079388499737081,0.0728207909150807
0.1517586,0.02253307484497434,0.03801645261755635,0.013153839894353675,0.024154169727600462,0.01195263593276522,0.06674619948723895,0.040872869727300254,0.07259173272810805
0.1522241,0.02239920746356974,0.037832843045409195,0.013214205064975027,0.024154486637643083,0.011798612552571,0.06658942884432016,0.04095140556767498,0.07236207377000545
0.1526897,0.022267579451768785,0.03764969053731854,0.013274065795491417,0.024154153174697494,0.011645730222078161,0.06642970212173936,0.04102949012398696,0.07213182680621602
0.1531552,0.022138192717299977,0.03746703064127418,0.013333412042191701,0.024153160867376993,0.011494029466671152,0.06626702772818745,0.041107121050822155,0.07190100456586383
0.1536207,0.0220110486215186,0.03728489879715965,0.013392233883522082,0.024151501303997167,0.01134355058991583,0.06610141451145914,0.0411842960529263,0.07166961974773836
0.1540862,0.02188614798238849,0.03710333032703136,0.013450521524052534,0.024149166138430784,0.011194333664704076,0.06593287176115398,0.04126101288628226,0.07143768502626396
0.1545517,0.02176349107759997,0.03692236042537544,0.013508265298391435,0.024146147095932435,0.011046418524470374,0.06576140921125669,0.04133726935919964,0.07120521305744723
0.1550172,0.021643077647820683,0.03674202414934967,0.013565455675046724,0.024142435978927596,0.010899844754481807,0.06558703704259389,0.04141306333341696,0.07097221648479532
0.1554828,0.021524906900076166,0.036562356409018365,0.013622083260232298,0.024138024672760834,0.010754651683202766,0.06540976588516448,0.04148839272521707,0.07073870794519821
0.1559483,0.021408977511256838,0.03638339195758809,0.013678138801618639,0.024132905151397877,0.010610878373735746,0.06522960682034094,0.041563255506555916,0.07050470007476743
0.1564138,0.021295287631748105,0.036205165381652485,0.013733613192026954,0.024127069483076174,0.010468563615339396,0.06504657138293908,0.04163764970620465,0.07027020551462368
0.1568793,0.021183834889180294,0.03602771109145439,0.013788497473066395,0.024120509835898793,0.010327745915025006,0.06486067156315328,0.04171157341090485,0.07003523691662508
0.1573448,0.021074616392295006,0.03585106331117359,0.013842782838714169,0.024113218483366436,0.010188463489232543,0.0646719198083547,0.04178502476653643,0.06979980694902779
0.1578103,0.020967628734924526,0.03567525606924799,0.013896460638838405,0.024105187809842533,0.0100507542555873,0.06448032902474932,0.041858001979297774,0.06956392830206998
0.1582759,0.02086286800008095,0.035500323188736256,0.01394952238266368,0.024096410315946466,0.009914655824738163,0.0642859125788934,0.0419305033168975,0.06932761369347025
0.1587414,0.020760329764151556,0.035326298277729457,0.01400195974217909,0.024086878623869927,0.00978020549227847,0.06408868429906436,0.04200252710975726,0.06909087587383109
0.1592069,0.020660009101197026,0.03515321471981925,0.014053764555488716,0.024076585482611556,0.009647440230750358,0.06388865847648574,0.04207407175222478,0.06885372763193803
0.1596724,0.020561900587348907,0.03498110566462967,0.014104928830104209,0.024065523773125014,0.00951639668173345,0.06368584986640624,0.04214513570379672,0.06861618179994557
0.1601379,0.020465998305302602,0.034810004018419674,0.014155444746179309,0.024053686513375645,0.009387111148018655,0.06348027368903317,0.04221571749035084,0.0683782512584414
0.1606034,0.02037229584890208,0.03463994243476291,0.01420530465968608,0.024041066863301076,0.009259619585867794,0.06327194563032139,0.042285815705387544,0.06813994894138152
0.161069,0.020280786327812265,0.03447095330531172,0.014254501105532722,0.024027658129671406,0.009133957597359764,0.06306088184261954,0.042355429011281004,0.06790128784088945
0.1615345,0.0201914623722751,0.03430306875065174,0.014303026800622887,0.024013453770844774,0.009010160422823828,0.06284709894517523,0.042424556140540484,0.06766228101191342
0.162,0.020104316137945118,0.03413632061125385,0.014350874646856472,0.023998447401414557,0.008888262933360692,0.06263061402450126,0.042493195897082565,0.06742294157673598
0.1624655,0.02001933931080041,0.033970740438529635,0.014398037734071969,0.02398263279674447,0.008768299623451988,0.06241144463460449,0.0425613471575152,0.06718328272933022
0.162931,0.019936523112124873,0.03380635948599667,0.014444509342930434,0.023966003897388337,0.008650304603658811,0.06218960879707862,0.04262900887243441,0.0669433177395574
0.1633966,0.019855858303557728,0.03364320870055931,0.014490282947741191,0.02394855481339152,0.008534311593409907,0.061965125001062,0.04269618006773447,0.06670305995720095
0.1638621,0.019777335192206157,0.033481318713910885,0.014535352219229346,0.02393027982847137,0.008420353913880142,0.06173801220306112,0.04276285984593239,0.06646252281583191
0.1643276,0.01970094363581704,0.03332071983406242,0.014579711027245206,0.023911173404074258,0.008308464480959791,0.061508289826640125,0.042829047387507486,0.06622171983650195
0.1647931,0.019626673048003796,0.033161442037003205,0.014623353443415678,0.023891230183306845,0.008198675798315123,0.0612759777619769,0.042894741952256794,0.06598066463125994
0.1652586,0.01955451240352445,0.03300351495849805,0.014666273743737584,0.023870444994739247,0.008091019950540715,0.06104109636528599,0.04295994288066715,0.06573937090648849
0.1657241,0.019484450243607065,0.03284696788602602,0.014708466411112923,0.023848812856077838,0.007985528596403864,0.0608036664581089,0.04302464959530478,0.06549785246605742
0.1661897,0.01941647468131869,0.03269182975086498,0.014749926137825971,0.023826328977705515,0.00788223296218138,0.06056370932647229,0.04308886160222317,0.06525612321429144
0.1666552,0.01935057340697397,0.03253812912032614,0.014790647827962185,0.02380298876608791,0.007781163835089112,0.06032124671991469,0.04315257849239005,0.06501419715875022
0.1671207,0.01928673369357986,0.03238589419014262,0.014830626599768972,0.023778787827044724,0.007682351556804515,0.06007630085038239,0.04321579994313409,0.06477208841281996
0.1675862,0.019224942402312872,0.032235152777015726,0.014869857787958372,0.023753721968886442,0.0075858260170825935,0.059828894390995216,0.043278525719612305,0.06452981119811659
0.1680517,0.019165185988025704,0.03208593231132232,0.014908336945951839,0.023727787205417464,0.007491616647465647,0.05957905047468339,0.04334075567629897,0.06428737984670144
0.1685172,0.01910745050478054,0.031938259829986694,0.014946059848067229,0.023700979758807444,0.007399752415087264,0.05932679269269629,0.043402489758497656,0.06404480880311127
0.1689828,0.019051721611406836,0.03179216196951981,0.014983022491648259,0.023673296062332774,0.007310261816571011,0.05907214509298415,0.04346372800387777,0.06380211262620399
0.1694483,0.018997984577081926,0.03164766495922871,0.0150192210991365,0.023644732762990638,0.007223172872024279,0.058815132178453,0.043524470544037186,0.0635593059908222
0.1699138,0.01894622428693325,0.03150479461459853,0.015054652120086052,0.023615286723987973,0.007138513119127743,0.05855577890509299,0.04358471760609258,0.06331640368927652
0.1703793,0.01889642524766134,0.03136357633084938,0.015089312233120865,0.023584955027108046,0.0070563096073208,0.05829411067997986,0.043644469514298616,0.06307342063265123
0.1708448,0.018848571593183042,0.031224035076670063,0.01512319834783465,0.023553734974957406,0.006976588892083317,0.0580301533591494,0.04370372669169703,0.06283037185193474
0.1713103,0.018802647090294573,0.031086195388130303,0.015156307606633222,0.02352162409309611,0.006899377029314007,0.057763933245344325,0.043762489661796335,0.06258727249897746
0.1717759,0.018758635144354587,0.030950081362773055,0.015188637386519013,0.02348862013205409,0.006824699569805691,0.05749547708563319,0.043820759050282515,0.06234413784727944
0.1722414,0.018716518804987665,0.030815716653888037,0.015220185300817484,0.023454721069236458,0.006752581553817725,0.0572248120689006,0.043878535586761136,0.062100983292610434
0.1727069,0.018676280771809044,0.03068312446496745,0.0152509492008451,0.023419925110720375,0.006683047505745841,0.05695196582320808,0.04393582010653069,0.061857824353464576
0.1731724,0.018637903400171598,0.030552327544344567,0.01528092717751851,0.023384230692946158,0.006616121428889708,0.05667696641302427,0.043992613552386935,0.061614676671352106
0.1736379,0.018601368706936214,0.030423348180015644,0.015310117562904554,0.023347636484304907,0.006551826800318516,0.05639984233632314,0.044048916976457776,0.061371556010930216
0.1741034,0.01856665837626673,0.030296208194645305,0.0153385189317107,0.023310141386625183,0.006490186565834974,0.05612062252154822,0.04410473154206764,0.061128478259975035
0.174569,0.018533753765450564,0.03017092894075534,0.015366130102715361,0.023271744536560945,0.006431223135038089,0.05583933632444122,0.04416005852563025,0.06088545942919677
0.1750345,0.018502635910746155,0.03004753129609666,0.015392950140137564,0.023232445306882978,0.006374958376485115,0.05555601352473303,0.044214899318568195,0.06064251565189971
0.1755,0.01847328553325808,0.029926035659203924,0.015418978354945288,0.02319224330767602,0.006321413612953038,0.05527068432269527,0.04426925542925731,0.060399663183488966
0.1759655,0.018445683044840754,0.029806461945132236,0.015444214306101807,0.023151138387443503,0.006270609616799922,0.05498337933555043,0.044323128484993785,0.06015691840082573
0.176431,0.018419808554031417,0.029688829581375076,0.015468657801749254,0.023109130634121636,0.0062225666054263945,0.054694129593738976,0.04437652023398143,0.059914297801432495
0.1768966,0.01839564187201301,0.029573157503962628,0.015492308900328686,0.023066220376004583,0.006177304236837543,0.05440296653704171,0.04442943254733648,0.059671818002550066
0.1773621,0.018373162518607464,0.029459464153739255,0.015515167911635876,0.02302240818258231,0.006134841605305401,0.05410992201055581,0.04448186742110737,0.05942949574004776
0.1778276,0.01835234972829988,0.029347767472818746,0.01553723539781206,0.022977694865292476,0.006095197237132199,0.05381502826052321,0.044533826978307156,0.05918734786718889
0.1782931,0.018333182456293947,0.029238084901215763,0.015558512174268794,0.022932081478187562,0.00605838908651453,0.05351831793000946,0.04458531347095664,0.05894539135325386
0.1787586,0.018315639384598896,0.029130433373651878,0.015578999310546189,0.022885569318518505,0.00602443453150854,0.053219824054431826,0.04463632928213627,0.058703643282023515
0.1792241,0.018299698928148197,0.02902482931653449,0.015598698131103683,0.02283815992723564,0.0059933503700962685,0.05291958005693461,0.044686876928044864,0.05846212085012568
0.1796897,0.018285339240950244,0.028921288645107297,0.01561761021604258,0.022789855089407802,0.005965152816353266,0.052617619743610546,0.044736959060063405,0.05822084136524799
0.1801552,0.018272538222271126,0.028819826760771126,0.01563573740175954,0.022740656834560113,0.005939857496717639,0.05231397729856674,0.044786578466821665,0.05797982224421998
0.1806207,0.018261273522849585,0.02872045854857445,0.015653081781530288,0.022690567436930938,0.0059174794463607355,0.05200868727883412,0.044835738076265425,0.05773908101096784
0.1810862,0.018251522551144237,0.0286231983748728,0.01566964570602277,0.022639589415648326,0.0058980331056597175,0.051701784609119214,0.04488444095772139,0.05749863529434557
0.1815517,0.01824326247961319,0.0285280600851565,0.015685431783738962,0.022587725534826162,0.00588153231677232,0.05139330457639709,0.04493269032395715,0.05725850282584621
0.1820172,0.01823647025102592,0.028435057002046068,0.01570044288138454,0.022534978803579984,0.005867990320314119,0.05108328282434467,0.04498048953323258,0.05701870143719757
0.1824828,0.018231122584807385,0.028344201923454417,0.015714682124165626,0.022481352475962564,0.005857419752138584,0.05077175534761345,0.045027842091339254,0.05677924905784631
0.1829483,0.018227195983414084,0.02825550712091515,0.01572815289601173,0.022426850050819163,0.005849832640220239,0.05045875848594113,0.045074751653623873,0.05654016371233455
0.1834138,0.018224666738741707,0.028168984338076214,0.015740858839723974,0.022371475271562646,0.005845240401641174,0.05014432891810198,0.04512122202699203,0.056301463517572585
0.1838793,0.018223510938563833,0.028084644789358466,0.015752803857047658,0.022315232125868553,0.005843653839681201,0.049828503655695924,0.04516725717188833,0.056063166680010976
0.1843448,0.01822370447300102,0.02800249915877892,0.015763992108668058,0.02225812484529042,0.00584508314101192,0.049511320036777336,0.04521286120424905,0.05582529149271517
0.1848103,0.018225223041019475,0.02792255759893886,0.015774428014128334,0.022200157904795747,0.005849537872994959,0.0491928157193248,0.045258038397423865,0.055587856332345344
0.1852759,0.018228042156958373,0.027844829730177163,0.015784116251668222,0.022141336022222898,0.005857026981084614,0.04887302867455428,0.045302793184063064,0.05535087965604403
0.1857414,0.01823213715708481,0.027769324639889514,0.01579306175798216,0.02208166415765947,0.005867558786335115,0.048551997180078216,0.04534713015796701,0.05511437999823439
0.1862069,0.018237483206175176,0.027696050882014246,0.015801269727895337,0.0220211475127424,0.005881140983012649,0.048229759812914504,0.04539105407589475,0.05487837596733141
0.1866724,0.01824405530412175,0.027625016476685606,0.015808745613956083,0.02195979152988033,0.005897780636312314,0.047906355442349585,0.045434569859328935,0.0546428862423684
0.1871379,0.01825182829256325,0.027556228910055183,0.015815495125942835,0.021897601891398617,0.005917484180180085,0.04758182322266089,0.045477682596193954,0.05440792956954069
0.1876034,0.018260776861538038,0.027489695134282083,0.015821524230283896,0.021834584518607317,0.005940257415239838,0.04725620258570443,0.04552039754252432,0.05417352475866821
0.188069,0.018270875556158736,0.02742542156769238,0.015826839149388136,0.02177074557079263,0.005966105506825469,0.04692953323337331,0.045562720124080476,0.05393969067957811
0.1885345,0.0182820987833069,0.027363414095108028,0.015831446360884738,0.02170609144413221,0.0059950329831180834,0.04660185512993318,0.045604655937908946,0.05370644625840855
0.189,0.01829442081834668,0.02730367806834536,0.01583535259677011,0.021640628770534857,0.006027043733388189,0.0462732084942405,0.045646210753844244,0.053473810473834635
0.1894655,0.01830781581185632,0.027246218306883015,0.01583856484246012,0.021574364416405048,0.006062141006342777,0.04594363379184942,0.04568739051595006,0.05324180235321734
0.189931,0.01832225779637629,0.027191039098699125,0.015841090335745836,0.021507305481332895,0.006100327408577166,0.045613171727012965,0.045728201343897885,0.05301044096867681
0.1903966,0.018337720693173066,0.02713814420127718,0.01584293656565108,0.021439459296709953,0.006141604903131424,0.045281863234584094,0.0457686495342816,0.052779745433091024
0.1908621,0.01835417831901747,0.027087536842780077,0.015844111271190064,0.021370833424271544,0.006185974808151178,0.044949749471822016,0.04580874156186662,0.05254973489602124
0.1913276,0.01837160439297638,0.02703921972339163,0.015844622440023607,0.021301435654566152,0.00623343779565261,0.04461687181010925,0.045848484080772155,0.05232042853956566
0.1917931,0.018389972543216712,0.02699319501682448,0.015844478307012518,0.02123127400535275,0.0062839938903914575,0.044283271826584716,0.04588788392558506,0.05209184557414297
0.1922586,0.01840925631382043,0.026949464371993533,0.01584368735266703,0.02116035671992679,0.006337642468835826,0.04394899129569803,0.04592694811240372,0.0518640052342073
0.1927241,0.01842942917160934,0.026908028914853725,0.01584225830149133,0.021088692265375738,0.006394382258242657,0.04361407218068993,0.045965683839810666,0.051636926773896356
0.1931897,0.01845046451297827,0.026868889250400815,0.01584020012022256,0.021016289330765024,0.006454211335837682,0.0432785566250037,0.04600409848977232,0.051410629462614266
0.1936552,0.01847233567073533,0.026832045464833733,0.01583752201596378,0.02094315682525523,0.0065171271280987765,0.04294248694363213,0.046042199628464744,0.0511851325805504
0.1941207,0.01849501592094767,0.026797497127876938,0.015834233434210723,0.020869303876151227,0.006583126410142644,0.04260590561440462,0.04607999500702398,0.05096045541413569
0.1945862,0.018518478489791206,0.02676524329526102,0.015830344056772593,0.02079473982688379,0.006652205305214886,0.042268855269218385,0.04611749256221945,0.05073661725143744
0.1950517,0.018542696560402656,0.026735282511359714,0.01582586379958761,0.020719474234924172,0.006724359284283668,0.041931378685218124,0.04615470041704944,0.050513637377493925
0.1955172,0.018567643279732,0.026707612811981526,0.015820802810434718,0.02064351686963194,0.006799583165737295,0.041593518775927894,0.0461916268812575,0.05029153506958991
0.1959828,0.018593291765393444,0.02668223172731412,0.01581517146654326,0.020566877710036246,0.00687787111518615,0.04125531858233934,0.046228280451769556,0.0500703295924744
0.1964483,0.018619615112512845,0.02665913628501954,0.015808980372102977,0.02048956694255056,0.006959216645369531,0.040916821263960235,0.0462646698130516,0.04985004019352258
0.1969138,0.018646586400569393,0.02663832301347842,0.015802240355676834,0.020411594958620737,0.007043612616168033,0.04057807008982707,0.046300803837388285,0.04963068609784428
0.1973793,0.01867417870022944,0.02661978794518131,0.015794962467519186,0.020332972352306227,0.0071310512347222,0.04023910842948546,0.04633669158508284,0.04941228650334223
0.1978448,0.0187023650801703,0.02660352662026503,0.015787157976801882,0.020253709917794,0.007221524055658239,0.03989997974394158,0.04637234230457837,0.049194860575723406
0.1983103,0.018731118613891925,0.026589534090192116,0.015778838368750662,0.020173818646844824,0.007315021981421655,0.03956072757658785,0.046407765432500296,0.048978427443467434
0.1987759,0.01876041238651438,0.026577804921571115,0.015770015341694168,0.020093309726171404,0.007411535262719725,0.03922139554410566,0.04644297059361959,0.048763006192755906
0.1992414,0.018790219501559187,0.026568333200115552,0.01576070080402778,0.020012194534747757,0.007511053499073731,0.03888202732734772,0.04647796760073607,0.04854861586236697
0.1997069,0.018820513087712654,0.02656111253473923,0.015750906871094327,0.019930484641049483,0.0076135656394819015,0.038542666662202456,0.0465127664544803,0.048335275438539396
0.2001724,0.01885126630556937,0.0265561360617854,0.015740645861983614,0.019848191800224558,0.007719059983193946,0.038203357330442715,0.04654737734303316,0.04812300384981009
0.2006379,0.01888245235435405,0.026553396449387187,0.015729930296252678,0.019765327951194622,0.007827524180598072,0.0378641431505609,0.04658181064176142,0.047911819961828854
0.2011034,0.01891404447861996,0.026552885901956556,0.0157187728905685,0.019681905213687005,0.007938945234221348,0.037525067968592875,0.046616076912768076,0.04770174257215373
0.201569,0.018946015974922223,0.026554596164798976,0.015707186555274866,0.019597935885198026,0.008053309499844265,0.03718617564893288,0.0466501869043565,0.04749279040502992
0.2020345,0.018978340198464335,0.026558518528850602,0.01569518439088499,0.019513432437888487,0.008170602687730361,0.0368475100651419,0.046684151550407525,0.0472849821061548
0.2025,0.01901099056971626,0.02656464383553483,0.015682779684501456,0.019428407515412388,0.008290809863971777,0.03650911509075169,0.04671798196966886,0.04707833623743151
0.2029655,0.01904394058100256,0.026572962481734935,0.01566998590616506,0.019342873929680093,0.008413915451951578,0.03617103459006701,0.04675168946495665,0.04687287127171283
0.203431,0.019077163803059228,0.026583464424879286,0.015656816705133997,0.01925684465755713,0.008539903233923717,0.035833312408968386,0.046785285522268426,0.046668605587537305
0.2038966,0.01911063389155782,0.026596139188135637,0.015643285906094935,0.01917033283749992,0.008668756352711457,0.035495992365718064,0.04681878180980728,0.04646555746385905
0.2043621,0.019144324593595795,0.026610975865710797,0.0156294075053074,0.01908335176612969,0.008800457313525065,0.03515911824177158,0.04685219017691697,0.04626374507477299
0.2048276,0.019178209754151868,0.02662796312825179,0.015615195666682935,0.01899591489474578,0.008934987985899635,0.03482273377259756,0.046885522652927766,0.04606318648423726
0.2052931,0.019212263322505238,0.026647089228344526,0.015600664717800439,0.01890803582577968,0.009072329605753892,0.03448688263850805,0.04691879144591331,0.04586389964079475
0.2057586,0.01924645935861758,0.026668342006106082,0.01558582914585916,0.01881972830919115,0.009212462777570868,0.03415160845550146,0.046952008941358495,0.0456659023722957
0.2062241,0.019280772039476528,0.026691708894866772,0.015570703593570647,0.018731006238807996,0.00935536747670134,0.03381695476612008,0.04698518770073866,0.04546921238062362
0.2066897,0.019315175665399406,0.02671717692693844,0.01555530285499092,0.018641883648611097,0.009501023051790996,0.03348296503032382,0.04701834046001067,0.04527384723642686
0.2071552,0.019349644666295993,0.026744732739465617,0.015539641871294054,0.018552374708966257,0.009649408227332252,0.03314968261638194,0.04705148012801694,0.0450798243738582
0.2076207,0.019384153607889157,0.026774362580356353,0.015523735726488304,0.018462493722804407,0.009800501106341708,0.03281715079178417,0.04708461978480443,0.044887161085324694
0.2080862,0.019418677197892344,0.026806052314289695,0.015507599643075819,0.0183722551217515,0.009954279173164233,0.03248541271417298,0.04711777267986093,0.044695874516250435
0.2085517,0.01945319029214303,0.026839787428796676,0.01549124897765703,0.018281673462209387,0.010110719296404676,0.032154511422298415,0.04715095223027128,0.044505981659854456
0.2090172,0.019487667900691404,0.02687555304041158,0.015474699216480809,0.018190763421388798,0.01026979773198819,0.031824489826996906,0.04718417201879649,0.04431749935194602
0.2094828,0.019522085193843682,0.026913333900890242,0.015457965970941564,0.018099539793295413,0.010431490126350185,0.03149539070219553,0.047217445791878705,0.04413044426573965
0.2099483,0.019556417508159507,0.026953114403491837,0.015441064973024483,0.01800801748466994,0.010595771519756896,0.031167256675942966,0.047250787457575036,0.04394483290669214
0.2104138,0.019590640352402964,0.026994878589320606,0.015424012070700219,0.01791621151088296,0.010762616349757479,0.030840130221468507,0.04728421108342381,0.043760681607363856
0.2108793,0.019624729413446725,0.027038610153723625,0.015406823223270265,0.017824136991785262,0.010931998454768615,0.03051405364827035,0.04731773089424693,0.04357800652230666
0.2113448,0.019658660562128834,0.027084292452740834,0.01538951449666427,0.01773180914751441,0.011103891077792506,0.030189069093234433,0.04735136126989244,0.043396823622980904
0.2118103,0.019692409859061434,0.027131908509603342,0.01537210205869053,0.017639243294258145,0.011278266870269109,0.029865218511785033,0.04738511674292146,0.04321714869270359
0.2122759,0.01972595356039068,0.027181441021276093,0.01535460217424082,0.017546454839975387,0.011455097896063453,0.029542543669068177,0.047419011996243286,0.04303899732162968
0.2127414,0.019759268123506913,0.027232872365041336,0.015337031200450697,0.01745345928007568,0.011634355635588798,0.029221086131168722,0.04745306186070231,0.04286238490176843
0.2132069,0.0197923302127041,0.02728618460511954,0.01531940558181633,0.01736027219305795,0.011816010990066374,0.028900887256361803,0.04748728131261999,0.04268732662203691
0.2136724,0.019825116704787326,0.02734135949932483,0.015301741845268859,0.01726690923610967,0.012000034285922404,0.02858198818639917,0.04752168547129497,0.042513837463352806
0.2141379,0.01985760469462722,0.02739837850575245,0.015284056595207216,0.01717338614066763,0.012186395279323034,0.02826442983783084,0.047556289596464456,0.04234193219376912
0.2146034,0.019889771500659913,0.027457222789496204,0.015266366508490347,0.01707971870794182,0.01237506316084776,0.027948252893362373,0.04759110908572993,0.04217162536365361
0.215069,0.01992159467033121,0.027517873229394245,0.015248688329389665,0.016985922804403898,0.012566006560301915,0.027633497793248057,0.04762615947195011,0.042002931300915834
0.2155345,0.019953051985483496,0.02758031042480195,0.015231038864502475,0.016892014357241976,0.012759193551668713,0.027320204726720553,0.04766145642060404,0.04183586410628469
0.216,0.019984121467683788,0.027644514702390807,0.015213434977627106,0.01679800934978346,0.012954591658201333,0.027008413623457697,0.04769701572712702,0.041670437648639175
0.2164655,0.020014781383491272,0.027710466122972247,0.015195893584600417,0.016703923816887765,0.013152167857655456,0.0266981641450873,0.0477328533142217,0.04150666556039503
0.216931,0.02004501024966248,0.027778144488345306,0.015178431648098446,0.01660977384031088,0.013351888587662654,0.026389495676730997,0.04776898522914644,0.041344561232949675
0.2173966,0.020074786838292176,0.027847529348167015,0.015161066172401023,0.016515575544043627,0.013553719751244999,0.026082447318588473,0.04780542764098265,0.04118413781218768
0.2178621,0.020104090181887937,0.027918600006844225,0.01514381419812136,0.016421345089625696,0.013757626722471201,0.025777057877563733,0.047842196837882676,0.04102540819404849
0.2183276,0.02013289957837615,0.027991335530445523,0.015126692796901696,0.01632709867143744,0.013963574352254567,0.025473365858935438,0.04787930922429952,0.04086838502015818
0.2187931,0.020161194596037067,0.02806571475363183,0.015109719066076265,0.016232852511971475,0.014171526974292997,0.02517140945807354,0.04791678131819968,0.040713080673526594
0.2192586,0.020188955078366422,0.028141716286603925,0.015092910123303034,0.016138622857086015,0.014381448411151201,0.024871226552204542,0.047954629748259946,0.04055950727431141
0.2197241,0.020216161148860903,0.02821931852206528,0.015076283101165792,0.016044425971241824,0.014593301980485281,0.02457285469222772,0.04799287125104895,0.040407676675650706
0.2201897,0.020242793215724815,0.02829849964219818,0.015059855141748318,0.01595027813272468,0.01480705050140972,0.024276331094584803,0.04803152266819428,0.04025760045956593
0.2206552,0.020268831976495167,0.02837923762565118,0.0150436433911825,0.01585619562885521,0.015022656301006885,0.023981692633185624,0.048070600943535616,0.04010928993293724
0.2211207,0.02029425842258244,0.02846151025453566,0.015027664994172256,0.015762194751188046,0.015240081220979048,0.023688975831392324,0.0481101231202642,0.03996275612355327
0.2215862,0.020319053843724216,0.028545295121429292,0.015011937088495022,0.015668291790702324,0.015459286624442894,0.02339821685406486,0.048150106338048386,0.039818009776237694
0.2220517,0.020343199832348856,0.028630569636383885,0.014996476799482584,0.015574503032985776,0.015680233402866516,0.023109451499670534,0.04819056783014481,0.03967506134905491
0.2225172,0.020366678287846357,0.02871731103393505,0.014981301234482916,0.01548084475341471,0.015902881983148955,0.02282271519246046,0.048231524920494546,0.03953392100959731
0.2229828,0.020389471420743557,0.028805496380111057,0.014966427477304606,0.015387333212332373,0.01612719233484234,0.02253804297471594,0.04827299502080286,0.03939459863135693
0.2234483,0.020411561756780897,0.028895102579437892,0.014951872582645489,0.015293984650228291,0.016353123977516676,0.02225546949906787,0.04831499562760118,0.03925710379018396
0.2239138,0.020432932140887896,0.028986106381937587,0.014937653570507031,0.015200815282921215,0.01658063598826723,0.02197502902089268,0.04835754431928946,0.03912144576083473
0.2243793,0.020453565741054596,0.029078484390116736,0.014923787420596014,0.015107841296748338,0.016809687009364367,0.021696755390788573,0.04840065875315681,0.03898763351361174
0.2248448,0.02047344605209613,0.029172213065942098,0.014910291066715192,0.015015078843763524,0.01704023525604564,0.02142068204713576,0.04844435666237794,0.03885567571109809
0.2253103,0.020492556899307502,0.029267268737800303,0.014897181391144576,0.014922544036947096,0.017272238524449767,0.02114684200874465,0.04848865585298295,0.03872558070498871
0.2257759,0.020510882442005572,0.029363627607438783,0.014884475219015147,0.014830252945429754,0.017505654199692196,0.02087526786759567,0.04853357420079745,0.03859735653302029
0.2262414,0.020528407176955192,0.029461265756885242,0.01487218931267689,0.014738221589733034,0.017740439264081913,0.020605991781674382,0.04857912964834986,0.03847101091600184
0.2267069,0.020545115941676465,0.029560159155343095,0.014860340366063067,0.014646465937028647,0.01797655030547912,0.020339045467905322,0.04862534020174227,0.038346551254947576
0.2271724,0.020560993917630156,0.029660283666060428,0.01484894499905283,0.014555001896418849,0.018213943525793527,0.020074460195187847,0.04867222392748108,0.03822398462831361
0.2276379,0.02057602663327838,0.02976161505317012,0.014838019751834337,0.01446384531423997,0.01845257474962296,0.01981226677753713,0.048719798949263156,0.03810331778933979
0.2281034,0.020590199967017844,0.02986412898849868,0.014827581079270617,0.014373011969391093,0.01869239943303196,0.01955249556733321,0.04876808344471333,0.03798455716349782
0.228569,0.020603500149983082,0.02996780105834138,0.014817645345270455,0.0142825175686898,0.01893337267247009,0.019295176448680902,0.04881709564206822,0.03786770884604656
0.2290345,0.02061591376871722,0.030072606770201127,0.014808228817166709,0.014192377742256889,0.019175449213829566,0.019040338830883328,0.048866853816801566,0.03775277859969525
0.2295,0.0206274277677082,0.030178521559488258,0.014799347660104507,0.014102608038931878,0.019418583461641957,0.0187880116420317,0.0489173762881857,0.03763977185237522
0.2299655,0.020638029451788456,0.03028552079617836,0.014791017931441771,0.014013223921721118,0.01966272948841376,0.01853822332271405,0.04896868141578373,0.037528693695120886
0.230431,0.02064770648839652,0.030393579791425065,0.014783255575164538,0.013924240763280386,0.019907841044100753,0.018291001819845557,0.04902078759586673,0.03741954888006089
0.2308966,0.020656446909699266,0.030502673804124854,0.014776076416319537,0.013835673841433789,0.020153871565721015,0.01804637458062313,0.04907371325775013,0.03731234181852051
0.2313621,0.020664239114574073,0.030612778047431063,0.014769496155466367,0.013747538334730915,0.020400774187106577,0.017804368546606837,0.049127476860043054,0.037207076579236505
0.2318276,0.020671071870450454,0.030723867695214353,0.014763530363151622,0.013659849318044173,0.02064850174879346,0.01756501014793068,0.04918209688680449,0.03710375688668577
0.2322931,0.020676934315011185,0.030835917888467037,0.014758194474407224,0.01357262175820823,0.020897006808049814,0.017328325297645056,0.04923759184360053,0.03700238611952916
0.2327586,0.0206818159577533,0.030948903741648798,0.014753503783275189,0.013485870509703393,0.021146241649041747,0.01709433938619318,0.04929398025345715,0.0369029673091723
0.2332241,0.02068570668140945,0.03106280034897133,0.014749473437360978,0.013399610310384717,0.021396158293136354,0.016863077276023528,0.04935128065270403,0.03680550313844489
0.2336897,0.02068859674323027,0.03117758279061945,0.014746118432417549,0.013313855777258602,0.021646708509341177,0.016634563296340252,0.04940951158670506,0.03670999594040034
0.2341552,0.020690476776128394,0.0312932261389064,0.014743453606962071,0.013228621402308452,0.02189784382487924,0.016408821237993525,0.04946869160547239,0.036616447697237285
0.2346207,0.02069133778968481,0.031409705464361004,0.014741493636927366,0.013143921548371032,0.022149515535898622,0.016185874348511518,0.049528839259160476,0.0365248600393446
0.2350862,0.02069117117101812,0.031526995841744676,0.014740253030350012,0.01305977044506507,0.022401674718315327,0.015965745327275734,0.04958997309343747,0.036435234244471655
0.2355517,0.020689968685517417,0.031645072355996534,0.014739746122097103,0.012976182184773588,0.02265427223878805,0.015748456320841323,0.04965211164473077,0.036347571237025394
0.2360172,0.020687722477439583,0.031763910108105156,0.014739987068633614,0.012893170718681454,0.022907258765823328,0.015534028918403843,0.049715273435344,0.0362618715874961
0.2364828,0.02068442507037192,0.03188348422090591,0.014740989842832296,0.012810749852869658,0.023160584781009172,0.015322484147413837,0.04977947696844253,0.036178135512013425
0.2369483,0.02068006936756111,0.03200376984480309,0.01474276822882789,0.012728933244467788,0.023414200590375297,0.015113842469340518,0.04984474072290438,0.036096362872034465
0.2374138,0.020674648652109683,0.03212474216341636,0.014745335816917416,0.012647734397866154,0.023668056335877777,0.014908123775585726,0.049911083148033636,0.036016553174165265
0.2378793,0.020668156587041315,0.03224637639915085,0.014748705998508135,0.012567166660989062,0.023922102007005765,0.014705347383549247,0.04997852265813351,0.03593870557011707
0.2383448,0.020660587215236278,0.032368647818690366,0.01475289196111474,0.012487243221630629,0.02417628745250778,0.014505532032846451,0.0500470776269368,0.03586281885679826
0.2388103,0.020651934959238595,0.032491531738413,0.014757906683407233,0.012407977103854663,0.02443056239223484,0.014308695881679136,0.050116766381892566,0.03578889147654281
0.2392759,0.020642194620936534,0.032615003529728515,0.014763762930310998,0.012329381164459963,0.024684876429097655,0.014114856503360394,0.0501876071983085,0.03571692151747569
0.2397414,0.02063136138111825,0.03273903862433651,0.014770473248160535,0.012251468089512475,0.024939179061134673,0.013924030882994235,0.05025961829334971,0.03564690671401555
0.2402069,0.020619430798904465,0.03286361251940457,0.014778049959908366,0.01217425039094557,0.025193419693687887,0.013736235414310554,0.050332817819895265,0.03557884444751434
0.2406724,0.020606398811060345,0.03298870078266509,0.01478650516039064,0.01209774040322969,0.02544754765168293,0.013551485896655974,0.05040722386025425,0.0355127317470338
0.2411379,0.020592261731188798,0.03311427905742978,0.014795850711650876,0.012021950280112461,0.025701512192009966,0.01336979753214095,0.05048285441974409,0.0354485652902579
0.2416034,0.020577016248807638,0.03324032306752046,0.01480609823832328,0.011946891991430321,0.025955262516001554,0.013191184922943402,0.050559727420134384,0.03538634140454053
0.242069,0.020560659428313144,0.03336680862211479,0.014817259123076963,0.011872577319992635,0.026208747782003706,0.013015662068769062,0.05063786069296071,0.03532605606808717
0.2425345,0.020543188707832647,0.03349371162050552,0.014829344502122371,0.011799017858539177,0.02646191711803609,0.012843242364468682,0.05071727197271349,0.0352677049112693
0.243,0.02052460189796892,0.0336210080567717,0.01484236526078117,0.01172622500677182,0.026714719634537164,0.01267393859781214,0.050797978889907794,0.03521128321806988
0.2434655,0.02050489718043918,0.033748674024360534,0.014856332029120829,0.011654209968461218,0.026967104437189967,0.01250776294741953,0.050879998964040225,0.035156785927658106
0.243931,0.020484073106611548,0.03387668572057839,0.01487125517765522,0.011582983748629176,0.027219020639824162,0.012344726980849301,0.050963349596438716,0.03510420763609159
0.2443966,0.020462128595941913,0.03400501945098993,0.0148871448131127,0.011512557150807307,0.02747041737738969,0.01218484165284342,0.05104804806301136,0.03505354259814365
0.2448621,0.020439062934313953,0.034133651633724345,0.014904010774273295,0.01144294077437258,0.027721243818997376,0.012028117303729635,0.05113411150689962,0.03500478472925365
0.2453276,0.020414875772285294,0.034262558803687955,0.01492186262787686,0.011374145011960213,0.027971449181021592,0.011874563657980761,0.05122155693104119,0.03495792760759793
0.2457931,0.020389567123242573,0.03439171761668232,0.014940709664604236,0.011306180046954346,0.028220982740259845,0.011724189822930864,0.051310401190647115,0.034912964476279056
0.2462586,0.020363137361468116,0.034521104853427145,0.014960560895133574,0.011239055851056829,0.028469793847144185,0.011577004287648143,0.051400660985597806,0.03486988824563061
0.2467241,0.020335587220120816,0.03465069742348735,0.014981425046274062,0.011172782181934347,0.02871783193899911,0.011433014921964219,0.05149235285276193,0.0348286914956349
0.2471897,0.02030691778913366,0.03478047236910363,0.015003310557179489,0.011107368580944084,0.028965046553340926,0.011292228975659508,0.05158549315824199,0.034789366478450615
0.2476552,0.02027713051303019,0.03491040686892595,0.015026225575643967,0.011042824370937994,0.02921138734121336,0.011154653077804262,0.051680098089549896,0.03475190512104735
0.2481207,0.02024622718866208,0.035040478241649485,0.015050177954482224,0.010979158654145746,0.02945680408055464,0.011020293236254806,0.05177618364771557,0.03471629902794399
0.2485862,0.020214209962869878,0.035170663949552455,0.015075175247996737,0.010916380310136342,0.029701246689591357,0.010889154837304554,0.05187376563933114,0.034682539484047814
0.2490517,0.02018108133006876,0.03530094160193566,0.015101224708534026,0.01085449799385836,0.029944665240254683,0.010761242645489168,0.05197285966853287,0.03465061745759139
0.2495172,0.02014684412976117,0.035431288958463654,0.015128333283132322,0.010793520133758753,0.030187009971614664,0.010636560803545327,0.0520734811289228,0.03462052360316453
0.2499828,0.020111501543977887,0.03556168393240785,0.015156507610262816,0.010733454929980136,0.030428231303328557,0.010515112832522383,0.05217564519543172,0.03459224826483862
0.2504483,0.020075057094649185,0.03569210459379233,0.015185754016666653,0.010674310352636475,0.03066827984909903,0.01039690163204627,0.052279366816125106,0.03456578147938082
0.2509138,0.02003751464090746,0.03582252917244314,0.015216078514289745,0.010616094140167093,0.030907106430138068,0.01028192948073495,0.052384660703953756,0.034541112979555894
0.2513793,0.01999887837632271,0.035952936060942124,0.015247486797317316,0.010558813797768823,0.03114466208863221,0.010170198036764746,0.052491541328450804,0.034518232197513675
0.2518448,0.01995915282607216,0.03608330381748626,0.015279984239310089,0.010502476595906184,0.03138089810120452,0.01006170833858698,0.05260002290737694,0.03449712826826037
0.2523103,0.01991834284404518,0.03621361116865353,0.015313575890443827,0.010447089568899299,0.03161576599236853,0.009956460805794383,0.052710119398315505,0.0344777900332122
0.2527759,0.019876453609884787,0.03634383701207612,0.015348266474853819,0.010392659513589296,0.03184921754796911,0.009854455240136745,0.05282184449021907,0.03446020604382978
0.2532414,0.019833490625966822,0.03647396041902218,0.01538406038808592,0.010339192988080897,0.032081204828605256,0.009755690826685268,0.05293521159490917,0.034444364565331655
0.2537069,0.019789459714317885,0.03660396063688686,0.015420961694655544,0.010286696310561907,0.03231168018302953,0.009660166135144999,0.05305023383853062,0.03443025358048525
0.2541724,0.019744367013473228,0.0367338170915938,0.01545897412571595,0.010235175558199338,0.03254059626151893,0.009567879121314713,0.053166924052962035,0.034417860793473684
0.2546379,0.019698218975275694,0.036863509389907755,0.015498101076837132,0.010184636566111982,0.03276790602921202,0.009478827128693506,0.05328529476718363,0.03440717363383664
0.2551034,0.01965102236161676,0.03699301732165888,0.015538345605896361,0.010135084926419296,0.03299356277940723,0.0093930068902333,0.05340535819860347,0.03439817926048368
0.255569,0.01960278424112094,0.03712232086187893,0.015579710431081473,0.010086525987366524,0.03321752014681693,0.009310414530236353,0.05352712624434274,0.034390864565778036
0.2560345,0.019553511985774708,0.037251400172849565,0.015622197929007858,0.01003896485252602,0.033439732120772066,0.009231045566396841,0.05365061047248141,0.03438521617968916
0.2565,0.019503213267501467,0.03738023560606286,0.015665810132950035,0.009992406380074745,0.033660153058372,0.009154894911985444,0.05377582211326531,0.03438122047401178
0.2569655,0.0194518960546841,0.03750880770409408,0.01571054873118873,0.009946855182147918,0.0338787376975738,0.009081956878175826,0.05390277205027683,0.03437886356664929
0.257431,0.019399568608636793,0.037637097202387296,0.015756415065474275,0.009902315624268741,0.034095441170215575,0.009012225176511823,0.05403147081157211,0.03437813132595903
0.2578966,0.01934623948002788,0.037765085030954514,0.015803410129607235,0.009858791824854126,0.034310219014967884,0.00894569292151407,0.05416192856078809,0.03437900937515671
0.2583621,0.019291917505255586,0.037892752315989285,0.015851534568137045,0.009816287654796259,0.03452302719020755,0.00888235263342476,0.05429415508822331,0.03438148309677745
0.2588276,0.0192366118027784,0.038020080381395725,0.01590078867517944,0.009774806737119753,0.034733822086807774,0.008822196241089195,0.0544281598018963,0.03438553763719042
0.2592931,0.019180331769401933,0.03814705075023418,0.015951172393353277,0.009734352446714093,0.03494256054083877,0.008765215084972675,0.05456395171858509,0.034391157911164226
0.2597586,0.01912308707652384,0.038273645146084966,0.01600268531283728,0.009694927910140948,0.035149199846172915,0.00871139992031127,0.0547015394548512,0.03439832860647997
0.2602241,0.019064887666338473,0.03839984549433216,0.01605532667054716,0.009656536005515907,0.035353697766988594,0.008660740920394944,0.05484093121805163,0.03440703418858858
0.2606897,0.019005743748002644,0.03852563392336976,0.016109095349433448,0.009619179362464082,0.03555601255016659,0.008613227679981478,0.054982134797342,0.03441725890530924
0.2611552,0.01894566579376384,0.038650992765732785,0.016163989877900332,0.009582860362148936,0.03575610293757292,0.008568849218839557,0.05512515755467501,0.03442898679156528
0.2616207,0.018884664535052154,0.038775904559156214,0.016220008429345695,0.00954758113737365,0.0359539281782218,0.008527593985419432,0.05527000641579853,0.03444220167415379
0.2620862,0.018822750958537183,0.03890035204756438,0.016277148821822476,0.00951334357275424,0.03614944804031233,0.008489449860649518,0.05541668786125887,0.034456887176545166
0.2625517,0.018759936302150865,0.039024318181993735,0.016335408517821424,0.00948014930496361,0.036342622823132435,0.00845440416185733,0.055565207917415003,0.03447302672370847
0.2630172,0.018696232051077333,0.039147786121451617,0.016394784624175245,0.009447999723045622,0.03653341336882339,0.008422443646813113,0.05571557214747028,0.034490603546958314
0.2634828,0.018631649933710765,0.03927073923371399,0.01645527389208421,0.009416895968798248,0.03672178107399832,0.00839355451789463,0.05586778564252842,0.03450960068881894
0.2639483,0.018566201917582018,0.039393161096065055,0.016516872717263275,0.009386838937224792,0.03690768790120788,0.008367722426371514,0.056021853012681616,0.03453000100790092
0.2644138,0.018499900205254934,0.03951503549598163,0.01657957714021094,0.00935782927705212,0.0370910963902462,0.008344932476807697,0.05617777837813875,0.03455178718378565
0.2648793,0.01843275723019305,0.039636346431765286,0.016643382846600243,0.009329867391314797,0.037271969669290174,0.008325169231580337,0.05633556536040266,0.03457494172191279
0.2653448,0.018364785652597464,0.039757078113125136,0.016708285167792505,0.009302953438004009,0.03745027146586482,0.008308416715513734,0.056495217073505584,0.03459944695846547
0.2658103,0.018295998355216437,0.039877214961713786,0.01677427908147488,0.009277087330780098,0.037625966117627654,0.008294658420626641,0.05665673611531164,0.03462528506524793
0.2662759,0.01822640843912737,0.039996741611619126,0.01684135921242288,0.009252268739747525,0.03779901858296509,0.008283877310991342,0.05682012455889619,0.03465243805455015
0.2667414,0.018156029219491693,0.04011564290981399,0.01690951983338937,0.009228497092291068,0.03796939445139422,0.008276055827702865,0.05698538394401206,0.0346808877839939
0.2672069,0.018084874221283277,0.04023390391656563,0.016978754866121337,0.00920577157397203,0.038137059953764055,0.008271175893956643,0.057152515268653524,0.03471061596135438
0.2676724,0.018012957174990928,0.04035150990580681,0.017049057882505988,0.009184091129483258,0.03830198197225077,0.008269218920233025,0.0573215189807297,0.03474160414935194
0.2681379,0.01794029201229553,0.04046844636547002,0.01712042210584739,0.009163454463661737,0.038464128050142446,0.008270165809587024,0.057492394969859195,0.034773833770408207
0.2686034,0.017866892861722383,0.040584698997786384,0.01719284041227487,0.009143860042557534,0.038623466401409304,0.008273996963041739,0.05766514255929811,0.034807286111361385
0.269069,0.017792774044269318,0.04070025371955095,0.017266305332284272,0.009125306094557853,0.03877996592005613,0.00828069228508389,0.05783976049801317,0.03484194232813583
0.2695345,0.017717950069011005,0.04081509666235603,0.017340809052413038,0.009107790611565015,0.038933596189253857,0.008290231189259862,0.05801624695291178,0.034877783450361244
0.27,0.017642435628679922,0.040929214172794416,0.017416343417049972,0.00909131135022714,0.03908432749024794,0.008302592603870645,0.05819459950124013,0.034914790385937644
0.2704655,0.017566245595224295,0.041042592812634345,0.01749289993038038,0.009075865833220313,0.03923213081104152,0.008317754977764004,0.058374815123160284,0.03495294392554309
0.270931,0.017489395015343155,0.04115521935896792,0.017570469758467298,0.009061451350581062,0.03937697785485191,0.008335696286222096,0.058556890194516695,0.03499222474708153
0.2713966,0.017411899105998618,0.041267080804334465,0.01764904373146945,0.009048064961087983,0.039518841048339415,0.008356394036942867,0.05874082047980228,0.035032613420068824
0.2718621,0.017333773249905246,0.04137816435682021,0.01772861234599644,0.009035703493691403,0.03965769354960775,0.008379825276113452,0.058926601125333544,0.035074090409955065
0.2723276,0.017255032990996292,0.04148845744013514,0.017809165767601633,0.009024363548990002,0.03979350925597576,0.008405966594574078,0.05911422665264426,0.03511663608238187
0.2727931,0.017175694029866427,0.04159794769366795,0.017890693833413174,0.009014041500753345,0.039926262811519946,0.008434794134070953,0.05930369095210651,0.035160230707373466
0.2732586,0.01709577221919048,0.041706622972519446,0.01797318605490351,0.009004733497489243,0.04005592961438729,0.008466283593596836,0.05949498727678792,0.035204854463461145
0.2737241,0.017015283559117595,0.04181447134751516,0.018056631620797667,0.008996435464054856,0.040182485823877775,0.008500410235818052,0.05968810823655323,0.03525048744174122
0.2741897,0.016934244192640127,0.041921481105197334,0.018141019400120476,0.00898914310331037,0.04030590836729583,0.008537148893586692,0.059883045792418474,0.03529710964986702
0.2746552,0.016852670400936624,0.04202764074779666,0.018226337945382795,0.008982851897814052,0.04042617494656951,0.0085764739765368,0.06007979125116523,0.03534470101597637
0.2751207,0.0167705785986882,0.04213293899318405,0.018312575495906758,0.008977557111557411,0.04054326404463611,0.008618359477763333,0.060278335260222415,0.03539324139255592
0.2755862,0.016687985329367685,0.04223736477480219,0.018399719981289947,0.008973253791739176,0.040657154931592464,0.008662778980582621,0.06047866780282238,0.035442710560244554
0.2760517,0.016604907260501033,0.04234090724157676,0.018487759025008366,0.008969936770576756,0.04076782767060815,0.00870970566537304,0.060680778193438076,0.03549308823157818
0.2765172,0.016521361178900615,0.04244355575780686,0.018576679948158006,0.008967600667153844,0.04087526312359916,0.008759112316494526,0.06088465507350746,0.035544354054678214
0.2769828,0.01643736398587011,0.04254529990303395,0.018666469773334787,0.008966239889302863,0.04097944295665963,0.008810971329285575,0.06109028640745093,0.035596487616886496
0.2774483,0.016352932692380816,0.04264612947188862,0.018757115228652536,0.008965848635521018,0.0410803496452487,0.008865254717136218,0.0612976594789873,0.03564946844834903
0.2779138,0.016268084414219265,0.042746034473914354,0.01884860275189853,0.008966420896918703,0.04117796647912928,0.008921934118635531,0.061506760887753344,0.03570327602555101
0.2783793,0.016182836367106043,0.04284500513336746,0.01894091849482604,0.008967950459199125,0.04127227756705534,0.008980980804792107,0.06171757654623157,0.03575788977480549
0.2788448,0.016097205861785625,0.042943031888992775,0.01903404832758323,0.008970430904667885,0.04136326784120374,0.00904236568632589,0.06193009167699051,0.03581328907569757
0.2793103,0.01601121029908707,0.04304010539377402,0.019127977843277563,0.008973855614271322,0.041450923061346547,0.009106059321029723,0.06214429081024132,0.03586945326448612
0.2797759,0.015924867164955146,0.04313621651465873,0.01922269236267487,0.00897821776966231,0.04153522981875944,0.009172031921198939,0.06236015778171416,0.035926361637464765
0.2802414,0.015838194025451596,0.04323135633225723,0.019318176939031994,0.00898351035529222,0.041616175539861404,0.009240253361127269,0.06257767573085729,0.03598399345428398
0.2807069,0.015751208521725988,0.043325516140516294,0.019414416363062032,0.008989726160527744,0.04169374848958075,0.009310693184667382,0.06279682709936157,0.03604232794123629
0.2811724,0.015663928364955712,0.04341868744636884,0.019511395168030837,0.008996857781791335,0.04176793777444225,0.009383320612854358,0.06301759363001244,0.03610134429450676
0.2816379,0.015576371331254658,0.04351086196936126,0.019609097634983492,0.009004897624724121,0.041838733345369895,0.009458104551590447,0.06323995636587104,0.03616102168339123
0.2821034,0.015488555256550374,0.04360203164126078,0.01970750779809935,0.00901383790637035,0.04190612600019958,0.009535013599389514,0.06346389564978594,0.0362213392534847
0.282569,0.015400498031429661,0.04369218860564521,0.01980660945017422,0.009023670657382668,0.041970107385895815,0.009614016055179624,0.06368939112423622,0.03628227612984235
0.2830345,0.015312217595953087,0.043781325217477476,0.019906386148228157,0.00903438772424775,0.04203067000046637,0.009695079926162278,0.0639164217315064,0.03634381142011547
0.2835,0.015223731934439311,0.04386943404266717,0.020006821219237227,0.009045980771532004,0.042087807194568484,0.009778172935726845,0.06414496571419324,0.03640592421766429
0.2839655,0.015135059070220558,0.043956507857621355,0.02010789776598744,0.009058441284147194,0.04214151317280051,0.009863262531418877,0.06437500061604394,0.03646859360464946
0.284431,0.015046217060371037,0.044042539648787016,0.020209598673048952,0.00907176056963588,0.04219178299467262,0.00995031589296103,0.06460650328312495,0.03653179865510364
0.2848966,0.014957223990410431,0.044127522612187386,0.020311906612868517,0.009085929760476532,0.04223861257525095,0.010039299940325416,0.06483944986532104,0.03659551843798441
0.2853621,0.014868097968984724,0.044211450152954856,0.02041480405197791,0.009100939816408162,0.04228199868546984,0.010130181341856207,0.06507381581816325,0.036659732020209675
0.2858276,0.014778857122526816,0.04429431588486268,0.020518273257316054,0.009116781526774313,0.04232193895210803,0.010222926522441337,0.06530957590498493,0.03672441846967629
0.2862931,0.014689519589899353,0.044376113629858216,0.020622296302662397,0.009133445512886265,0.04235843185742546,0.01031750167173218,0.06554670419940516,0.036789556858262795
0.2867586,0.014600103517022246,0.0444568374175999,0.020726855075178942,0.009150922230405478,0.042391476738458465,0.01041387275241004,0.06578517408813886,0.03685512626481666
0.2872241,0.014510627051487396,0.04453648148500029,0.020831931282058205,0.009169201971745386,0.04242107378597206,0.010512005508498304,0.06602495827413357,0.036921105778126746
0.2876897,0.014421108337163294,0.0446150402757774,0.0209375064572743,0.0091882748684928,0.04244722404306879,0.01061186547371913,0.06626602878003364,0.03698747449988119
0.2881552,0.014331565508792323,0.04469250844001608,0.02104356196843411,0.00920813089384925,0.04246992940345411,0.010713417979893475,0.06650835695197253,0.03705421154761105
0.2886207,0.014242016686583791,0.04476888083374157,0.021150079023725444,0.009228759865092598,0.04248919260935904,0.010816628165383228,0.06675191346369443,0.037121296057619865
0.2890862,0.014152479970805812,0.04484415251850723,0.021257038678958888,0.009250151446059188,0.04250501724912135,0.010921460983574171,0.06699666832100562,0.03718870718789945
0.2895517,0.014062973436379161,0.04491831876099799,0.021364421844699947,0.00927229514964682,0.042517407754427354,0.011027881211398447,0.06724259086655658,0.03725642412103238
0.2900172,0.013973515127476289,0.04499137503265185,0.021472209293487848,0.009295180340338792,0.04252636939721727,0.011135853457895157,0.06748964978495574,0.03732442606708217
0.2904828,0.01388412305212863,0.04506331700930102,0.02158038166713732,0.009318796236749211,0.04253190828625764,0.011245342172807636,0.06773781310821611,0.03739269226647175
0.2909483,0.013794815176845318,0.04513414057083463,0.021688919484119492,0.009343131914189865,0.04253403136338518,0.011356311655215915,0.06798704822153638,0.03746120199285155
0.2914138,0.01370560942124637,0.045203841800884784,0.021797803147017937,0.0093681763072589,0.04253274639942712,0.011468726062202774,0.06823732186941778,0.037529934555957954
0.2918793,0.013616523652713323,0.04527241698653709,0.02190701295005581,0.00939391821245157,0.0425280619898035,0.011582549417551817,0.06848860016211826,0.03759886930446357
0.2923448,0.013527575681060392,0.0453398626180671,0.022016529086689832,0.009420346290793375,0.04251998754981721,0.011697745620475935,0.06874084858244464,0.0376679856288204
0.2928103,0.013438783253229178,0.04540617538870349,0.02212633165726686,0.009447449070495821,0.04250853330963752,0.011814278454374572,0.06899403199288308,0.03773726296409721
0.2932759,0.013350164048009922,0.04547135219441895,0.02223640067673873,0.009475214949635062,0.04249371030898294,0.011932111595618241,0.06924811464306767,0.03780668079281243
0.2937414,0.013261735670792415,0.04553539013374931,0.022346716082431013,0.009503632198853702,0.04247553039150866,0.012051208622358712,0.06950306017758616,0.03787621864776354
0.2942069,0.013173515648349579,0.04559828650764138,0.02245725774186142,0.009532688964085982,0.04245400619890366,0.012171533023363244,0.06975883164412151,0.037945856114853994
0.2946724,0.013085521423656795,0.04566003881932985,0.02256800546060359,0.009562373269306569,0.04242915116470217,0.012293048206871217,0.07001539150192743,0.038015572835918485
0.2951379,0.012997770350749933,0.045720644774243535,0.02267893899019203,0.009592673019303222,0.04240097950781383,0.012415717509471414,0.0702727016306353,0.03808534851154723
0.2956034,0.01291027968962508,0.04578010227994149,0.022790038036064185,0.009623576002473535,0.042369506225776656,0.012539504204998102,0.0705307233393899,0.03815516290390975
0.296069,0.012823066601182811,0.045838409446079385,0.022901282265535432,0.009655069893645929,0.042334747087736546,0.01266437151344407,0.0707894173763105,0.038224995839578405
0.2965345,0.01273614814221979,0.04589556458440661,0.023012651315803084,0.009687142256924984,0.04229671862715701,0.012790282609888659,0.07104874393827405,0.0382948272123519
0.297,0.012649541260470394,0.04595156620879423,0.023124124801975295,0.009719780548561199,0.04225543813426232,0.012917200633438798,0.07130866268101621,0.038364636986078934
0.2974655,0.012563262789700992,0.04600641303529359,0.02323568232512097,0.009752972119845124,0.04221092364821756,0.013045088696181036,0.07156913272954671,0.038434405197482036
0.297931,0.012477329444859379,0.04606010398222497,0.023347303480336555,0.009786704220025921,0.04216319394904839,0.013173909892142522,0.07183011268887435,0.03850411195898223
0.2983966,0.012391757817281742,0.046112638170295456,0.02345896786482575,0.009820963999254353,0.042112268549303854,0.013303627306258895,0.07209156065503747,0.038573737461524635
0.2988621,0.01230656436995953,0.04616401492274457,0.02357065508598815,0.009855738511550166,0.04205816768546508,0.01343420402334699,0.07235343422643484,0.038643261977405474
0.2993276,0.012221765432868396,0.046214233765516075,0.02368234476951308,0.009891014717793785,0.042000912309103015,0.013565603137080263,0.07261569051545183,0.03871266586310048
0.2997931,0.012137377198361351,0.04626329442745383,0.02379401656747509,0.009926779488742188,0.04194052407778822,0.013697787758964755,0.07287828616037607,0.038781929562094884
0.3002586,0.012053415716628166,0.04631119684051925,0.023905650166427893,0.00996301960806878,0.04187702534575581,0.013830721027313432,0.07314117733759619,0.03885103360771464
0.3007241,0.011969896891222924,0.04635794114002785,0.024017225295493657,0.009999721775426936,0.041810439154328756,0.013964366116216712,0.07340431977407669,0.03891995862595839
0.3011897,0.011886836474661622,0.046403527664902175,0.02412872173444476,0.010036872609536885,0.0417407892221029,0.014098686244506936,0.0736676687601015,0.03898868533832941
0.3016552,0.011804250064091564,0.04644795695793814,0.02424011932177499,0.010074458651295458,0.04166809993489736,0.014233644684714662,0.0739311791622781,0.039057194564666664
0.3021207,0.011722153097034197,0.046491229766081825,0.024351397962757218,0.01011246636690822,0.0415923963354745,0.014369204772014636,0.07419480543679417,0.03912546722597356
0.3025862,0.011640560847202984,0.046533347040713616,0.02446253763748432,0.010150882151043386,0.04151370411303382,0.014505329913159358,0.07445850164291848,0.039193484347243165
0.3030517,0.011559488420397824,0.0465743099379361,0.024573518408890025,0.010189692330006888,0.04143204959248482,0.014641983595398247,0.07472222145673733,0.039261227060278216
0.3035172,0.011478950750477387,0.04661411981886201,0.024684320430746268,0.010228883164937868,0.041347459723504246,0.014779129395380336,0.07498591818511861,0.03932867660650432
0.3039828,0.01139896259541068,0.04665277824989827,0.024794923955633253,0.01026844085502389,0.04125996206938356,0.014916730988038453,0.07524954477989487,0.039395814339774425
0.3044483,0.011319538533409085,0.04669028700302166,0.024905309342878587,0.010308351540735049,0.04116958479567277,0.015054752155452789,0.07551305385225723,0.039462621729162484
0.3049138,0.011240692959140043,0.04672664805604166,0.025015457066461643,0.010348601307076138,0.041076356658627446,0.015193156795691607,0.07577639768735178,0.0395290803617442
0.3053793,0.011162440080023482,0.046761863592845516,0.02512534772287943,0.010389176186856012,0.04098030699346571,0.015331908931626798,0.07603952825906972,0.03959517194536238
0.3058448,0.011084793912612008,0.04679593600362075,0.02523496203897006,0.010430062163973226,0.04088146570244253,0.015470972719721926,0.07630239724502237,0.039660878311374444
0.3063103,0.0110077682790559,0.04682886788504966,0.02534428087969016,0.010471245176717048,0.04077986324274878,0.015610312458790269,0.07656495604169154,0.03972618141737933
0.3067759,0.010931376803653805,0.04686066204047078,0.025453285255842426,0.010512711121082846,0.04067553061424263,0.015749892598720294,0.07682715577974539,0.03979106334992119
0.3072414,0.010855632909490005,0.04689132148000216,0.02556195633174953,0.010554445854100945,0.04056849934702085,0.01588967774916588,0.07708894733950943,0.039855506327167126
0.3077069,0.010780549815159,0.04692084942062132,0.02567027543287043,0.01059643519717793,0.04045880148883782,0.016029632688198663,0.07735028136658219,0.03991949270155624
0.3081724,0.010706140531578192,0.04694924928619683,0.02577822405335499,0.010638664939449424,0.04034646959238009,0.016169722370919556,0.07761110828758525,0.03998300496241744
0.3086379,0.010632417858889305,0.046976524707466466,0.02588578386353268,0.010681120841143367,0.04023153670240477,0.016309911938026563,0.07787137832603744,0.040046025738553925
0.3091034,0.010559394383449109,0.04700267952195696,0.02599293671733079,0.010723788636952808,0.0401140363427501,0.01645016672433581,0.07813104151834346,0.040108537800792834
0.309569,0.010487082474910047,0.04702771777384019,0.02609966465961758,0.010766654039417243,0.03999400250322694,0.01659045226725258,0.07839004772988685,0.04017052406449898
0.3100345,0.010415494283391178,0.04705164371372063,0.026205949933465447,0.010809702742311524,0.03987146962639991,0.016730734315189042,0.07864834667121721,0.04023196759205245
0.3105,0.010344641736739945,0.04707446179834916,0.02631177498732915,0.010852920424041396,0.03974647259426692,0.016870978835925362,0.07890588791432125,0.040292851595289475
0.3109655,0.010274536537885159,0.04709617669025797,0.02641712248213413,0.010896292751044694,0.03961904671484602,0.017011152024910776,0.07916262090896663,0.040353159437906974
0.311431,0.010205190162281566,0.047116793257310996,0.026521975298270002,0.010939805381197239,0.03948922770867801,0.01715122031350129,0.0794184949991073,0.04041287463783079
0.3118966,0.010136613855446331,0.04713631657216427,0.02662631654248465,0.010983443967222421,0.03935705169525323,0.017291150377130634,0.07967345943933893,0.040471980869548216
0.3123621,0.010068818630587726,0.04715475191163007,0.026730129554674725,0.01102719416010344,0.03922255517937074,0.017430909143411128,0.07992746341139266,0.04053046196640526
0.3128276,0.010001815266326273,0.04717210475593843,0.026833397914568798,0.0110710416124971,0.03908577503743772,0.017570463800161147,0.08018045604065555,0.040588301922869045
0.3132931,0.009935614304508567,0.04718838078788946,0.026936105448299646,0.011114971982148088,0.03894674850371679,0.017709781803355883,0.08043238641270604,0.04064548489675573
0.3137586,0.00987022604811397,0.04720358589188977,0.02703823623486248,0.01115897093530252,0.0388055131565285,0.017848830884998154,0.08068320358985327,0.0407019952114239
0.3142241,0.009805660559254303,0.04721772615286654,0.027139774612456036,0.011203024150119586,0.038662106904416384,0.017987579060906006,0.0809328566276688,0.040757817357933594
0.3146897,0.009741927657266659,0.04723080785505288,0.027240705184703413,0.011247117320080047,0.03851656797228126,0.0181259946384138,0.08118129459149988,0.04081293599717066
0.3151552,0.009679036916899425,0.047242837480638344,0.027341012826749493,0.011291236157390307,0.03836893488749173,0.01826404622398356,0.08142846657295279,0.04086733596193617
0.3156207,0.009616997666591569,0.047253821708278826,0.027440682691231538,0.011335366396380803,0.038219246465977484,0.01840170273072322,0.08167432170633507,0.04092100225900044
0.3160862,0.009555818986845153,0.04726376741146066,0.027539700214119542,0.011379493796897504,0.03806754179831183,0.01853893338580842,0.08191880918504589,0.040973920071121266
0.3165517,0.009495509708691003,0.0472726816567144,0.027638051120422676,0.011423604147685389,0.03791386023578984,0.018675707737804473,0.08216187827790468,0.041026074759026115
0.3170172,0.009436078412247386,0.04728057170167445,0.027735721429758255,0.011467683269762831,0.03775824137650824,0.018811995663885077,0.08240347834540938,0.04107745186335818
0.3174828,0.00937753342537145,0.047287444992981695,0.027832697461779785,0.011511717019785872,0.03760072505145299,0.018947767376944313,0.08264355885591708,0.04112803710658658
0.3179483,0.009319882822403116,0.04729330916402679,0.027928965841460974,0.011555691293401404,0.03744135131060047,0.019082993432598335,0.08288206940174038,0.041177816394881155
0.3184138,0.009263134423001022,0.04729817203253209,0.028024513504232892,0.011599592028588365,0.03728016040903808,0.019217644736073035,0.0831189597151537,0.04122677581995239
0.3188793,0.009207295791070057,0.047302041597970176,0.02811932770097179,0.01164340520898598,0.03711719279311039,0.019351692548973932,0.08335417968430346,0.04127490166085713
0.3193448,0.00915237423377995,0.04730492603881751,0.028213396002835192,0.011687116867208107,0.03695248908659667,0.019485108495934367,0.08358767936901611,0.04132218038577081
0.3198103,0.009098376800674327,0.047306833709642566,0.028306706305943778,0.011730713088142773,0.03678609007692586,0.01961786457113806,0.08381940901649776,0.0413685986537269
