Time,Rectus Femoris right,Rectus Femoris left,Hamstrings right,Hamstrings left,TibilaisÂ Anterior right,TibilaisÂ Anterior left,Gastrocnemius right,Gastrocnemius left
0.0,-0.0016981732940249536,-0.031239763171539425,0.06602558944634337,-0.006180772455817611,0.004199211774013721,0.01755724813268831,-0.047239144102104405,0.024630080359938748
0.0004655,-0.0015319333724268791,-0.02972995360252185,0.06748694420736052,-0.005966466638284486,0.004495461651956878,0.01779450589712993,-0.04604112405747118,0.026279538688444258
0.000931,-0.001363070733739367,-0.028226899179129357,0.06895938327769398,-0.005751898625452868,0.004794789486031649,0.018032816398778743,-0.044842496157467514,0.02792289888793519
0.0013966,-0.0011915682408156943,-0.02673082922500909,0.07044276792686746,-0.0055370875716873,0.005097189819023923,0.018272164980145694,-0.04364338280594686,0.029559893095921698
0.0018621,-0.0010174088870539212,-0.025241971295817928,0.07193695622740165,-0.005322052555780392,0.005402656688706176,0.018512536991606213,-0.04244390610872324,0.031190254515657795
0.0023276,-0.0008405757991797057,-0.02376055109939463,0.07344180307068156,-0.005106812574361615,0.005711183625551367,0.018753917798910436,-0.04124418783779197,0.03281371750085169
0.0027931,-0.000661052240025953,-0.022286792416805885,0.07495716018386378,-0.004891386535380192,0.00602276365049664,0.018996292790679856,-0.040044349395906835,0.034430017640002045
0.0032586,-0.00047882161130917693,-0.02082091702433766,0.07648287614782223,-0.004675793251668026,0.006337389272755323,0.01923964738588161,-0.0388445117815372,0.036038891840308375
0.0037241,-0.00029386745640241533,-0.019363144616498976,0.07801879641613071,-0.004460051434588304,0.006655052487675759,0.01948396704127171,-0.03764479555422743,0.03764007841110444
0.0041897,-0.00010617346310451634,-0.017913692730099993,0.0795647633350803,-0.004244179687775162,0.0069757447746455195,0.019729237258798316,-0.036445320800380654,0.039233317146763626
0.0046552,8.427653359442985e-05,-0.016472776669460728,0.08112061616472951,-0.004028196500969513,0.0072994570950396945,0.01997544359295623,-0.03524620709948787,0.040818349409025984
0.0051207,0.0002774985487517939,-0.015040609432801064,0.08268619110098527,-0.003812120243955856,0.007626179890212029,0.020222571658083714,-0.03404757349082273,0.042394918208697105
0.0055862,0.0004735084447155823,-0.013617401639857923,0.08426132129871189,-0.0035959691606046056,0.00795590307952787,0.020470607135592782,-0.03284953844062155,0.04396276828666952
0.0060517,0.0006723219283724849,-0.0122033614607718,0.08584583689586574,-0.003379761363024159,0.008288616058438069,0.020719535781124433,-0.031652219809767464,0.045521646194217946
0.0065172,0.0008739545484012498,-0.010798694546282288,0.08743956503865195,-0.0031635148258266394,0.008624307696593107,0.02096934343162047,-0.03045573482199664,0.047071300372519574
0.0069828,0.001078421692531896,-0.00940360395927064,0.08904232990769928,-0.002947247380510902,0.008962966335996882,0.021220016012304204,-0.029260200032643846,0.04861148123135136
0.0074483,0.001285738584811328,-0.00801829010768611,0.09065395274524828,-0.0027309767099660946,0.009304579789199649,0.021471539543562724,-0.028065731297943583,0.05014194122691665
0.0079138,0.0014959202828759683,-0.0066429506788913675,0.09227425188334748,-0.002514720343098723,0.009649135337529641,0.021723900147723744,-0.026872443744902122,0.051662434938754324
0.0083793,0.0017089816752320786,-0.005277780575460516,0.09390304277305167,-0.0022984956495859014,0.009996619729362947,0.021977084055720113,-0.025680451741754633,0.053172719145685096
0.0088448,0.0019249374785445077,-0.003922971852461155,0.09554013801461518,-0.002082319834757167,0.01034701917843125,0.022231077613635228,-0.024489868869020135,0.05467255290075049
0.0093103,0.002143802234934642,-0.002578713656249432,0.0971853473886731,-0.0018662099346069701,0.010700319362167216,0.022485867289122254,-0.023300807891165766,0.0561616976051017
0.0097759,0.002365590309288385,-0.0012451921648045862,0.09883847788840225,-0.0016501828109397154,0.011056505420087468,0.0227414396776901,-0.022113380728890457,0.05763991708079662
0.0102414,0.0025903158865750293,7.740947037292784e-05,0.1004993337526535,-0.0014342551466490288,0.011415561952213321,0.02299778150884882,-0.02092769843203697,0.059106977642464524
0.0107069,0.0028179929691778964,0.001388911180777804,0.10216771650004594,-0.0012184434411327669,0.01177747301752962,0.023254879652107038,-0.019743871153140073,0.0605626481677993
0.0111724,0.0030486353742376574,0.002689136035810671,0.10384342496401258,-0.0010027640058452108,0.012142222132482153,0.02351272112281392,-0.01856200812161747,0.06200670016684341
0.0116379,0.0032822567310092374,0.003977910296065016,0.10552625532878691,-0.0007872329599878169,0.01250979226951425,0.02377129308783813,-0.01738221761860893,0.06343890785002713
0.0121034,0.003518870478233232,0.0052550634649737886,0.10721600116631877,-0.0005718662263398483,0.012880165855643118,0.02403058287107635,-0.0162046069524679,0.0648590481949295
0.012569,0.003758489861522736,0.006520428338801131,0.10891245347410669,-0.0003566795272301656,0.013253324771076512,0.02429057795878382,-0.015029282434908923,0.06626690101172983
0.0130345,0.004001127930766489,0.007773841054966552,0.11061540071393383,-0.00014168838065140935,0.013629250347870204,0.024551266004719505,-0.01385634935781317,0.06766224900731986
0.0135,0.004246797537549227,0.009015141138690388,0.11232462885149336,7.309190348226126e-05,0.014007923368626727,0.02481263483509855,-0.012685911970693589,0.06904487784804808
0.0139655,0.0044955113325900915,0.010244171547950478,0.11403992139688875,0.00028764622693278026,0.014389324065235872,0.02507467245334456,-0.011518073458820279,0.07041457622106831
0.014431,0.004747281763199958,0.01146077871674061,0.11576105944599334,0.0005019597065901418,0.01477343211765743,0.02533736704463444,-0.010352935922006038,0.07177113589426605
0.0148966,0.005002121070758529,0.01266481259662174,0.11748782172265342,0.000716017677777831,0.015160226652746899,0.025600706980228937,-0.009190600354051257,0.07311435177473843
0.0153621,0.005260041288212025,0.013856126696557426,0.11921998462171765,0.0009298056974109322,0.015549686243125131,0.025864680821582296,-0.008031166622846642,0.074444021965807
0.0158276,0.0055210542375923,0.01503457812102569,0.12095732225287559,0.0011433095470062377,0.015941788906093282,0.026129277324225063,-0.006874733451131763,0.0757599478225468
0.0162931,0.005785171527558248,0.01620002760640093,0.12269960648528691,0.0013565152355437971,0.01633651210259476,0.026394485441414362,-0.00572139839790687,0.077061934005819
0.0167586,0.006052404550960326,0.01735233955560123,0.1244466069929831,0.0015694090021794779,0.016733832736226157,0.026660294327546224,-0.004571257840495084,0.07834978853479685
0.0172241,0.006322764482429073,0.018491382070998475,0.12619809130102305,0.0017819773188082425,0.01713372715229941,0.026926693341324914,-0.003424406957251787,0.07962332283797775
0.0176897,0.006596262275988516,0.019617026985590997,0.1279538248323837,0.001994206892477974,0.01753617113695736,0.02719367204868471,-0.0022809397109177024,0.08088235180267621
0.0181552,0.006872908662695381,0.02072914989244018,0.1297135709555664,0.002206084667653799,0.01794113991634496,0.027461220225459958,-0.0011409488326117518,0.0821266938229951
0.0186207,0.007152714148305002,0.02182763017237402,0.13147709103289923,0.0024175978283329466,0.01834860815583841,0.027729327859799615,-4.525806459408905e-06,0.08335617084627464
0.0190862,0.007435689010964874,0.02291235101996172,0.13324414446951538,0.0026287338000102536,0.018758549959334424,0.02799798515432275,0.0011282391451481332,0.08457060841801985
0.0195517,0.0077218432989367165,0.023983199467764494,0.13501448876298652,0.0028394802514945024,0.01917093886860197,0.028267182528011518,0.0022572570756689858,0.0857698357253084
0.0200172,0.008011186828347939,0.025040066408868702,0.1367878795535901,0.003049825096575852,0.019585747862698757,0.028536910617838425,0.0033824403279050976,0.08695368563868149
0.0204828,0.008303729180973326,0.02608284661770897,0.13856407067518933,0.003259756495544712,0.02000294935745466,0.028807160280124856,0.004503702546881943,0.08812199475252051
0.0209483,0.008599479702047757,0.027111438769190335,0.14034281420670586,0.0034692628565625027,0.020422515205024264,0.02907792259162826,0.005620958692119405,0.08927460342391338
0.0214138,0.008898447498110688,0.0281257454561201,0.14212386052416442,0.00367833283688482,0.020844416693510538,0.02934918885035572,0.00673412504930031,0.09041135581001462
0.0218793,0.009200641434883108,0.02912567320496128,0.14390695835329037,0.0038869553439376038,0.02126862454666141,0.029620950576102166,0.007843119241343503,0.09153209990390469
0.0223448,0.009506070135177623,0.030111132489920332,0.1456918548226402,0.004095119536246968,0.02169510892364103,0.02989319951071191,0.008947860238888711,0.09263668756895459
0.0228103,0.009814741976842333,0.03108203774538239,0.14747829551724637,0.004302814824223393,0.02212383941887725,0.03016592761806254,0.010048268370200841,0.09372497457170223
0.0232759,0.01012666509073909,0.032038307376707105,0.14926602453275947,0.004510030870801051,0.022554785061986788,0.030439127083770584,0.011144265330501679,0.09479682061324715
0.0237414,0.01044184735875674,0.03297986376939828,0.15105478453007265,0.004716757591933127,0.02298791431777934,0.03071279031461862,0.012235774190737304,0.09585208935916986
0.0242069,0.010760296411859849,0.0339066332966605,0.15284431679041685,0.0049229851569441,0.023423195086341993,0.030986909937703724,0.013322719405789928,0.09689064846798134
0.0246724,0.011082019628173387,0.034818546325355804,0.15463436127091754,0.005128703988740084,0.023860594703205118,0.03126147879930743,0.014405026822143192,0.09791236961810787
0.0251379,0.011407024131103767,0.03571553722037376,0.15642465666060495,0.005333904763878455,0.024300079939591025,0.03153648996348749,0.015482623685010305,0.09891712853341546
0.0256034,0.011735316787496605,0.036597544347428575,0.15821494043687043,0.005538578412498095,0.024741617002746654,0.03181193671039192,0.01655543864493471,0.09990480500727848
0.026069,0.012066904205831558,0.037464510074297325,0.16000494892236125,0.005742716118111759,0.02518517153636181,0.032087812534295934,0.017623401763873208,0.10087528292519618
0.0265345,0.012401792734454534,0.038316380770514115,0.16179441734230612,0.005946309317262221,0.025630708621074524,0.03236411114136278,0.01868644452077182,0.10182845028596049
0.027,0.01273998845984763,0.0391531068055356,0.16358307988226178,0.006149349699044053,0.026078192775065363,0.03264082644712963,0.019744499816644695,0.10276419922137861
0.0274655,0.01308149720493713,0.039974642545393894,0.16537066974627113,0.00635182920449302,0.02652758795474249,0.03291795257372039,0.020797501979166733,0.10368242601455334
0.027931,0.013426324527439899,0.0407809463478535,0.16715691921542233,0.00655374002584521,0.02697885755551956,0.033195483846787034,0.021845386766790573,0.10458303111672503
0.0283966,0.013774475718248483,0.04157198055608898,0.16894155970679742,0.006755074605668051,0.02743196441268833,0.03347341479218139,0.022888091372398705,0.10546591916267911
0.0288621,0.014125955799855185,0.0423477114909003,0.17072432183279745,0.006955825635865408,0.027886870802388206,0.033751740132359376,0.023925554426501516,0.1063309989847247
0.0293276,0.014480769524815366,0.043108109441482495,0.1725049354608308,0.007155986056558927,0.028343538442674614,0.034030454782519884,0.024957715999992133,0.10717818362525063
0.0297931,0.014838921374250148,0.043853148654766215,0.1742831297733499,0.007355549054847793,0.028801928494688288,0.03430955384648088,0.02598451760646878,0.1080073903478664
0.0302586,0.015200415556388595,0.04458280732334549,0.17605863332822275,0.007554508063449027,0.029262001563927293,0.03458903261229601,0.027005902204135443,0.10881854064713639
0.0307241,0.015565256005149415,0.04529706757200911,0.17783117411942637,0.0077528567592204944,0.029723717701623575,0.034868886547615364,0.02802181419729135,0.10961156025691661
0.0311897,0.01593344637876209,0.04599591544289212,0.17960047963805092,0.007950589061568767,0.030187036406225762,0.03514911129479447,0.0290321994374198,0.1103863791573036
0.0316552,0.01630499005842728,0.046679340879264675,0.18136627693360532,0.008147699130744054,0.030651916624989752,0.03542970266575636,0.030037005223886602,0.11114293158020548
0.0321207,0.016679890147016225,0.04734733770797578,0.1831282926756165,0.008344181366024524,0.031118316755678745,0.03571065663661161,0.03103618030425805,0.11188115601354603
0.0325862,0.01705814946780882,0.04799990362056978,0.18488625321551616,0.00854003040379238,0.03158619464837438,0.03599196934204175,0.03202967487424829,0.11260099520411294
0.0330517,0.01743977056326982,0.048637040153093815,0.18663988464880862,0.008735241115504193,0.03205550760740092,0.036273637069451255,0.033017440577305636,0.11330239615906187
0.0335172,0.017824755693862635,0.04925875266461409,0.18838891287751477,0.008929808605558033,0.03252621239336444,0.03655565625289354,0.03399943050384708,0.11398531014608769
0.0339828,0.01821310683690004,0.04986505031445904,0.19013306367288563,0.009123728209060121,0.03299826522530933,0.036838023466776317,0.03497559919015023,0.11464969269227467
0.0344483,0.018604825685430922,0.0504559460382074,0.19187206273838084,0.009316995489493662,0.03347162178299437,0.03712073541935176,0.03594590261691125,0.11529550358163711
0.0349138,0.0189999136471622,0.05103145652243919,0.1936056357729061,0.009509606236292668,0.033946237209290665,0.03740378894599718,0.036910298207477474,0.11592270685136151
0.0353793,0.01939837184341476,0.0515916021782684,0.19533350853430262,0.009701556462323473,0.03442206611270363,0.03768718100229243,0.037868744825762864,0.11653127078676173
0.0358448,0.01980020110811217,0.05213640711367577,0.19705540690308165,0.009892842401276688,0.03489906257002106,0.037970908656900684,0.038821202773854376,0.11712116791495879
0.0363103,0.020205401986800726,0.05266589910466051,0.1987710569463944,0.010083460504972273,0.03537718012908888,0.038254969084259724,0.0397676337893171,0.11769237499729715
0.0367759,0.02061397473569934,0.053180109565229366,0.20048018498222772,0.010273407440580385,0.035856371811716206,0.03853935955709149,0.040708001042205844,0.11824487302051018
0.0372414,0.021025919320777464,0.053679073516241335,0.20218251764381467,0.010462680087760603,0.03633659011671102,0.038824077438737614,0.041642269131790914,0.1187786471866473
0.0377069,0.021441235416859276,0.054162829553126006,0.20387778194424808,0.010651275535722185,0.03681778702304764,0.039109120175329005,0.042570404083005844,0.11929368690177597
0.0381724,0.021859922406751983,0.054631419812493566,0.20556570534128446,0.010839191080207913,0.03729991399316728,0.03939448528779743,0.043492373342624596,0.11978998576347147
0.0386379,0.022281979380396125,0.05508488993765429,0.2072460158023268,0.011026424220404084,0.0377829219764126,0.0396801703637373,0.04440814577517567,0.12026754154710823
0.0391034,0.022707405134035456,0.05552328904306576,0.20891844186957315,0.011212972655779151,0.03826676141259712,0.03996617304912579,0.0453176916586006,0.12072635619096671
0.039569,0.02313619816940394,0.055946669677726095,0.2105827127253203,0.01139883428285342,0.03875138223571037,0.04025249103990962,0.046220982679663965,0.12116643578017038
0.0400345,0.0235683566929271,0.05635508778753237,0.2122385582574115,0.01158400719190214,0.039236733877759285,0.040539122073466896,0.047117991929122104,0.12158779052946812
0.0405,0.024003878614935026,0.056748602676623836,0.21388570912481852,0.011768489663594332,0.03972276527274613,0.04082606391995262,0.04800869389665753,0.12199043476487824
0.0409655,0.024442761548884195,0.05712727696773088,0.21552389682334808,0.011952280165569533,0.04020942486078334,0.04111331437353664,0.04889306446558618,0.12237438690421121
0.041431,0.02488500281058525,0.05749117656155173,0.21715285375146143,0.012135377348954687,0.04069666059234533,0.04140087124354314,0.04977108090734454,0.12273966943648912
0.0418966,0.02533059941743369,0.057840370595180435,0.2187723132761964,0.012317780044823264,0.04118441993265789,0.04168873234550049,0.050642721875764254,0.12308630890027954
0.0423621,0.025779548087640408,0.05817493139961051,0.22038200979918005,0.012499487260598637,0.041672649866225916,0.04197689549211023,0.05150796740114141,0.12341433586096258
0.0428276,0.026231845239458745,0.05849493445633964,0.22198167882272085,0.012680498176403638,0.042161296901501055,0.042265358484144026,0.05236679888410788,0.12372378488694957
0.0432931,0.026687486990404647,0.0588004583531013,0.22357105701597035,0.01286081214135815,0.042650307075691556,0.04255411910127673,0.05321919908931176,0.124014694524872
0.0437586,0.027146469156466364,0.05909158473874979,0.22514988228114602,0.013040428669826507,0.04313962595971735,0.042843175092863915,0.05406515213891363,0.12428710727375893
0.0442241,0.0276087872512999,0.05936839827732483,0.2267178938198069,0.0132193474376164,0.04362919866331412,0.043132524168671735,0.05490464350590546,0.12454106955822057
0.0446897,0.0280744364854065,0.05963098660132205,0.2282748321991749,0.01339756827813101,0.044118969840290886,0.04342216398956699,0.05573766000725801,0.12477663170065552
0.0451552,0.028543411765288358,0.05987944026419573,0.22982043941849584,0.013575091178476053,0.044608883693946146,0.04371209215817507,0.05656418979690238,0.12499384789249852
0.0456207,0.029015707692578906,0.06011385269211992,0.23135445897543355,0.01375191627552347,0.04509888398264803,0.04400230620951349,0.057384222358551215,0.12519277616452512
0.0460862,0.029491318563143944,0.06033432013503459,0.23287663593249128,0.0139280438519335,0.04558891402558451,0.044292803601608866,0.058197748498364156,0.12537347835622975
0.0465517,0.029970238366150065,0.060540941617003685,0.23438671698345287,0.014103474332136967,0.046078916708689605,0.04458358170610514,0.059004760337462145,0.1255360200842934
0.0470172,0.030452460783096817,0.06073381888591256,0.23588445051983511,0.014278208278279554,0.04656883449075213,0.04487463779887057,0.05980525130429445,0.12568047071015612
0.0474828,0.030937979186809468,0.06091305636253273,0.23736958669734187,0.014452246386129946,0.04705860940971332,0.045165969050611376,0.06059921612686213,0.12580690330670968
0.0479483,0.03142678664038966,0.061078761088982074,0.2388418775023079,0.014625589480953615,0.04754818308915989,0.04545757251749938,0.06138665082480123,0.12591539462412465
0.0484138,0.03191887589612199,0.06123104267660906,0.24030107681812007,0.014798238513354198,0.048037496745019025,0.0457494451318213,0.062167552701328434,0.12600602505482583
0.0488793,0.03241423939433513,0.06137001325332981,0.24174694049160067,0.014970194555084287,0.04852649119246151,0.046041583692657276,0.0629419203350518,0.12607887859762973
0.0493448,0.032912869262216975,0.0614957874104469,0.24317922639933637,0.015141458794827646,0.04901510685301944,0.04633398485659648,0.06370975357164856,0.12613404282105736
0.0498103,0.033414757312583435,0.061608482148979,0.2445976945139348,0.015312032533954804,0.04950328376192445,0.04662664512849827,0.06447105351541149,0.12617160882583534
0.0502759,0.03391989504260113,0.0617082168255305,0.24600210697019007,0.015481917182254059,0.049990961575672635,0.046919560852307855,0.0652258225206654,0.12619167120659805
0.0507414,0.034428273632463965,0.06179511309773023,0.24739222813113704,0.01565111425363999,0.05047807957982227,0.047212728201936074,0.06597406418305422,0.1261943280128041
0.0512069,0.034939883944023774,0.061869294869268496,0.2487678246539755,0.01581962536184148,0.0509645766970305,0.047506143172213036,0.06671578333069948,0.12617968070888005
0.0516724,0.035454716519375234,0.061930888234561735,0.25012866555584456,0.015987452216071223,0.05145039149533499,0.04779980156992558,0.0674509860152302,0.12614783413360497
0.0521379,0.03597276157939542,0.06198002142307375,0.25147452227942696,0.016154596616678715,0.05193546219668684,0.04809369900494901,0.06817967950268418,0.12609889645874908
0.0526034,0.03649400902223848,0.0620168247433223,0.25280516875836206,0.016321060450788533,0.052419726685740915,0.04838783088148379,0.06890187226428077,0.1260329791469801
0.053069,0.03701844842178639,0.06204143052659942,0.2541203814824452,0.016486845687925675,0.05290312251890968,0.04868219238940808,0.0696175739670647,0.1259501969090514
0.0535345,0.03754606902605675,0.06205397307043363,0.25541993956259085,0.016651954375629753,0.05338558693368657,0.0489767784957568,0.07032679546442075,0.1258506676602849
0.054,0.03807685975556904,0.06205458858182149,0.2567036247955353,0.016816388635059753,0.05386705685824471,0.049271583936337744,0.07102954878645826,0.12573451247636294
0.0544655,0.03861080920167093,0.062043415120255546,0.25797122172825643,0.016980150656591142,0.05434746892131658,0.04956660320749526,0.07172584713026454,0.12560185554844144
0.054931,0.03914790562482616,0.0620205925405755,0.2592225177220873,0.017143242695407172,0.054826759462360174,0.04986183055803172,0.07241570485002603,0.12545282413759656
0.0553966,0.03968813695286588,0.061986262435668786,0.26045730301650244,0.017305667067086333,0.05530486454201668,0.05015725998129679,0.07309913744701516,0.12528754852861673
0.0558621,0.04023149077920516,0.06194056807904649,0.2616753707925534,0.017467426143187942,0.05578171995286477,0.05045288520745438,0.07377616155944113,0.12510616198315083
0.0563276,0.040777954361026256,0.06188365436731996,0.2628765172359313,0.017628522346837976,0.05625726123047608,0.05074869969593712,0.07444679495216235,0.12490880069222432
0.0567931,0.04132751461743015,0.06181566776260311,0.2640605415996304,0.01778895814831738,0.05673142366477641,0.0510446966280973,0.07511105650625804,0.12469560372813457
0.0572586,0.04188015812755757,0.06173675623486523,0.26522724626618577,0.01794873606065507,0.057204142311716666,0.05134086890006354,0.07576896620845619,0.12446671299573746
0.0577241,0.042435871128680545,0.061647069204258685,0.2663764368094585,0.018107858635227868,0.05767535200525761,0.05163720911581163,0.07642054514041484,0.12422227318313735
0.0581897,0.04299463951426562,0.061546757483445735,0.2675079220559379,0.018266328457369547,0.058144987369671886,0.05193370958045783,0.07706581546785374,0.12396243171179365
0.0586552,0.043556448832009396,0.061435973219948335,0.2686215141455308,0.018424148141991156,0.058612982832166816,0.05223036229378257,0.0777048004295332,0.12368733868605669
0.0591207,0.044121284281847424,0.06131486983854458,0.2697170285918084,0.018581320329214612,0.05907927263583102,0.052527158943991945,0.0783375243260781,0.12339714684214635
0.0595862,0.04468913071393705,0.061183601983735215,0.2707942843416789,0.018737847680021538,0.0595437908529077,0.052824090901724574,0.07896401250864503,0.12309201149658859
0.0600517,0.045259972626614804,0.06104232546230322,0.2718531038344559,0.018893732871919068,0.06000647139839714,0.05312114921431094,0.07958429136743163,0.12277209049412562
0.0605172,0.0458337941643289,0.060891197185989294,0.2728933130602905,0.019048978594624292,0.06046724804399093,0.05341832460029244,0.0801983883200271,0.12243754415511725
0.0609828,0.04641057911554718,0.060730375114305575,0.273914741617935,0.019203587545768758,0.060926054432339796,0.05371560744420769,0.08080633179960335,0.12208853522245186
0.0614483,0.046990310910640445,0.06056001819750959,0.2749172227718034,0.019357562426624415,0.0613828240916568,0.05401298779165377,0.08140815124294627,0.1217252288079856
0.0619138,0.0475729726197411,0.06038028631976051,0.27590059350829516,0.019510905937852204,0.06183749045065707,0.05431045534462975,0.08200387707832729,0.12134779233852803
0.0623793,0.04815854695057638,0.06019134024247917,0.2768646945913446,0.019663620775274476,0.06228998685383501,0.05460799945717019,0.08259354071321631,0.12095639550139213
0.0628448,0.048747016246275386,0.0599933415479332,0.27780937061716193,0.019815709625672202,0.06274024657707969,0.054905609131275866,0.08317717452183826,0.12055121018952579
0.0633103,0.049338362483148566,0.059786452583068105,0.27873447006812924,0.01996717516260795,0.06318820284362868,0.05520327301314857,0.08375481183257606,0.12013241044624166
0.0637759,0.049932567268438366,0.05957083640360499,0.2796398453658195,0.020118020042275538,0.06363378884036072,0.05550097938973658,0.0843264869152231,0.1197001724095604
0.0642414,0.05052961183803944,0.0593466567184248,0.2805253529231066,0.02026824689937709,0.06407693773442717,0.055798716185597036,0.08489223496808793,0.11925467425618282
0.0647069,0.05112947705418694,0.059114077834258684,0.2813908531953348,0.020417858343028242,0.0645175826902224,0.056096470960080975,0.085452092104954,0.11879609614510571
0.0651724,0.051732143403111656,0.05887326460070354,0.28223621073051564,0.020566856952692135,0.06495565688669289,0.0563942309048467,0.08600609534189634,0.11832462016089632
0.0656379,0.052337590992660915,0.05862438235558138,0.2830612942185198,0.020715245274142986,0.06539109353498486,0.05669198284170619,0.08655428258395689,0.11784043025663947
0.0661034,0.052945799549884744,0.05836759687066058,0.2838659765392298,0.020863025815460037,0.06582382589642985,0.05698971322080924,0.08709669261167952,0.11734371219657237
0.066569,0.05355674841858692,0.058103074297756754,0.28465013480962154,0.021010201043052887,0.06625378730086759,0.05728740811916942,0.08763336506750488,0.11683465349842176
0.0670345,0.054170416556840566,0.05783098111523066,0.28541365042974093,0.021156773377719384,0.0666809111653049,0.05758505323953583,0.08816434044202541,0.11631344337545844
0.0675,0.05478678253446806,0.057551484074900044,0.28615640912754403,0.021302745190737448,0.06710513101290934,0.05788263390961391,0.08868966006009901,0.1157802726782845
0.0679655,0.05540582453048485,0.05726475014938198,0.28687830100256856,0.021448118799992418,0.06752638049233518,0.0581801350816386,0.08920936606682062,0.1152353338363683
0.068431,0.05602752033050703,0.05697094647988193,0.2875792205684062,0.021592896466141757,0.06794459339737949,0.05847754133230288,0.08972350141335031,0.11467882079934243
0.0688966,0.05665184732412238,0.05667024032444519,0.2882590667939444,0.021737080388819097,0.06835970368696498,0.05877483686304411,0.0902321098425968,0.11411092897808006
0.0693621,0.05727878250222536,0.05636279900668628,0.2889177431433464,0.02188067270287979,0.06877164550544608,0.05907200550069075,0.0907352358747553,0.11353185518556581
0.0698276,0.057908302454316433,0.056048789865011134,0.2895551576147377,0.022023675474690328,0.06918035320323367,0.05936903069847108,0.09123292479269844,0.11294179757757794
0.0702931,0.05854038336576667,0.055728380202346585,0.29017122277757174,0.022166090698464078,0.06958576135773381,0.05966589553738546,0.09172522262721934,0.11234095559320033
0.0707586,0.05917500101504852,0.055401737236391184,0.2907658558086474,0.022307920292645667,0.0699878047945949,0.05996258272794315,0.09221217614212532,0.11172952989518281
0.0712241,0.05981213077093356,0.05506902805040067,0.2913389785267556,0.022449166096346604,0.07038641860925715,0.0602590746122644,0.092693832819181,0.11110772231016958
0.0716897,0.06045174758965769,0.05473041954452126,0.2918905174259328,0.02258982986583436,0.07078153818879795,0.06055535316654803,0.09317024084289971,0.11047573576881517
0.0721552,0.06109382601205438,0.05438607838768328,0.2924204037072996,0.02272991327107723,0.07117309923406606,0.060851400003904495,0.09364144908518213,0.10983377424580769
0.0726207,0.061738340160655554,0.05403617097006722,0.292928573309464,0.022869417892346998,0.07156103778209688,0.06114719637755404,0.09410750708980217,0.10918204269981896
0.0730862,0.062385263736759906,0.053680863356153685,0.2934149669374671,0.023008345216881398,0.07194529022880115,0.06144272318438959,0.09456846505673994,0.10852074701340159
0.0735517,0.06303457001746791,0.05332032123836853,0.29387953009025247,0.02314669663560827,0.07232579335191848,0.0617379609689039,0.09502437382636261,0.10785009393285358
0.0740172,0.06368623185268243,0.05295470989133387,0.2943222130866392,0.02328447343993312,0.0727024843342269,0.0620328899274801,0.09547528486345348,0.10717029100807174
0.0744828,0.06434022166207361,0.05258419412673509,0.2947429710897849,0.023421676818592054,0.0730753007869988,0.06232748991304497,0.09592125024108888,0.10648154653241654
0.0749483,0.06499651143200642,0.05220893824881391,0.2951417641301255,0.02355830785457196,0.07344418077369338,0.06262174044008373,0.09636232262436263,0.10578406948261272
0.0754138,0.06565507271242933,0.05182910601049691,0.29551855712677966,0.023694367522100194,0.07380906283387484,0.06291562069001509,0.09679855525395699,0.10507806945871051
0.0758793,0.06631587661372242,0.051444860570168616,0.29587331990740817,0.023829856683706095,0.0741698860073452,0.0632091095169248,0.09723000192955973,0.10436375662413327
0.0763448,0.06697889380350353,0.05105636444909798,0.2962060272265148,0.02396477608735694,0.07452658985848011,0.06350218545365537,0.09765671699312793,0.10364134164583759
0.0768103,0.06764409450339144,0.05066377948952646,0.29651665878217764,0.02409912636367115,0.07487911450075543,0.06379482671824957,0.09807875531199924,0.10291103563461135
0.0772759,0.0683114484857252,0.05026726681342561,0.296805199231196,0.0242329080232117,0.07522740062145214,0.06408701122074414,0.09849617226185223,0.1021730500855347
0.0777414,0.06898092507023858,0.04986698678193193,0.29707163820263904,0.024366121453862872,0.07557138950652668,0.06437871657031023,0.09890902370951801,0.10142759681862906
0.0782069,0.06965249312068866,0.04946309895546598,0.2973159703097826,0.024498766918293575,0.0759110230656334,0.0646699200827361,0.09931736599564488,0.100674887919718
0.0786724,0.07032612104143737,0.04905576205454275,0.29753819516042285,0.024630844551510458,0.07624624385728539,0.06496059878824742,0.09972125591721778,0.09991513568152417
0.0791379,0.07100177677398425,0.04864513392127959,0.2977383173655544,0.024762354358504136,0.07657699511414007,0.06525072943965979,0.1001207507099349,0.09914855254502608
0.0796034,0.07167942779344878,0.04823137148160786,0.29791634654640403,0.024893296211991725,0.07690322076839456,0.06554028852085754,0.10051590803044354,0.0983753510410983
0.080069,0.07235904110500017,0.04781463070819428,0.2980722973398111,0.02502366985025877,0.07722486547727642,0.0658292522555928,0.10090678593843774,0.097595743732459
0.0805345,0.0730405832402333,0.047395066584077016,0.29820618940194554,0.025153474875103544,0.07754187464861437,0.06611759661659787,0.10129344287862002,0.09680994315594742
0.081,0.07372402025348948,0.046972833067021935,0.29831804741035534,0.02528271074988636,0.07785419446647449,0.06640529733500387,0.10167593766252947,0.0960181617651544
0.0814655,0.07440931771812195,0.04654808305460339,0.29840790106433546,0.025411376797686572,0.07816177191684674,0.06669232991005854,0.10205432945023801,0.09522061187342777
0.081931,0.0750964407227063,0.046120968350014196,0.2984757850836114,0.025539472199569566,0.0784645548133673,0.06697866961913533,0.10242867773191659,0.09441750559727381
0.0823966,0.07578535386719758,0.04569163962860857,0.2985217392053311,0.025666995992966093,0.07876249182306197,0.06726429152802661,0.10279904230927227,0.09360905480017585
0.0828621,0.07647602125903663,0.04526024640518158,0.29854580817935833,0.02579394707016604,0.07905553249209635,0.06754917050151298,0.1031654832768582,0.09279547103685003
0.0833276,0.07716840650920909,0.04482693700198873,0.29854804176186067,0.025920324176928834,0.07934362727151754,0.06783328121420125,0.10352806100325909,0.09197696549795768
0.0837931,0.07786247272826102,0.044391858517508404,0.29852849470718507,0.026046125911212463,0.0796267275429725,0.06811659816162359,0.10388683611215598,0.09115374895529345
0.0842586,0.0785581825222759,0.043955156795950204,0.2984872267580131,0.02617135072202323,0.07990478564438681,0.06839909567159026,0.1042418694632748,0.09032603170746717
0.0847241,0.07925549798881719,0.04351697639751171,0.29842430263378805,0.026295996908388148,0.080177754895588,0.06868074791578804,0.10459322213322357,0.08949402352609688
0.0851897,0.07995438071284129,0.04307746056938583,0.29833979201740446,0.026420062618451833,0.0804455896238559,0.06896152892161664,0.10494095539622375,0.08865793360252963
0.0856552,0.0806547917625849,0.04263675121752082,0.29823376954015,0.026543545848699574,0.08070824518938359,0.06924141258425504,0.10528513070474091,0.08781797049510658
0.0861207,0.08135669168543136,0.04219498887913458,0.29810631476489247,0.02666644444330814,0.08096567801063133,0.06952037267894953,0.10562580967002028,0.08697434207698722
0.0865862,0.0820600405037603,0.041752312695984554,0.29795751216750305,0.026788756093625608,0.08121784558955661,0.06979838287351484,0.10596305404253394,0.08612725548454854
0.0870517,0.08276479771078525,0.0413088603883942,0.2977874511165121,0.02691047833778132,0.0814647065367035,0.07007541674103983,0.10629692569234656,0.08527691706637376
0.0875172,0.08347092226638397,0.04086476823003678,0.2975962258509926,0.02703160856042698,0.08170622059613482,0.07035144777278902,0.10662748658940698,0.08442353233284589
0.0879828,0.08417837259292645,0.040420171023476725,0.2973839354566724,0.02715214399260961,0.08194234867019103,0.07062644939129072,0.10695479878377342,0.08356730590636112
0.0884483,0.08488710657110525,0.03997520207646874,0.2971506838402772,0.027272081711777037,0.0821730528440598,0.07090039496360237,0.10727892438577902,0.08270844147217712
0.0889138,0.0855970815357733,0.03952999317901406,0.29689657970210726,0.027391418641916583,0.08239829641014003,0.07117325781474362,0.10759992554614413,0.08184714172991069
0.0893793,0.0863082542717936,0.03908467458117331,0.29662173650685686,0.027510151553827335,0.08261804389218383,0.0714450112412869,0.10791786443604102,0.08098360834569944
0.0898448,0.08702058100990563,0.03863937497163492,0.2963262724526884,0.02762827706552644,0.08283226106919934,0.07171562852509528,0.10823280322711638,0.08011804190504143
0.0903103,0.08773401742261291,0.038194221457037755,0.29601031043857867,0.027745791642789737,0.08304091499909713,0.07198508294719685,0.1085448040714767,0.07925064186632629
0.0907759,0.08844851862009571,0.03774933954204636,0.2956739780299612,0.027862691599826673,0.08324397404206196,0.07225334780178433,0.10885392908164226,0.07838160651507109
0.0912414,0.08916403914615248,0.03730485311017692,0.29531740742269014,0.02797897310008965,0.08344140788363189,0.0725203964103284,0.10916024031047597,0.07751113291887356
0.0917069,0.08988053297417282,0.03686088440537177,0.2949407354053545,0.028094632157217317,0.08363318755746564,0.07278620213579336,0.10946379973109266,0.07663941688309457
0.0921724,0.09059795350314445,0.03641755401431993,0.29454410331996944,0.028209664636111444,0.0838192854677793,0.07305073839694255,0.10976466921675573,0.0757666529072816
0.0926379,0.09131625355369605,0.03597498084952131,0.29412765702107185,0.028324066254146737,0.0839996754114333,0.07331397868272133,0.11006291052076683,0.07489303414234391
0.0931034,0.09203538536417763,0.03553328213309154,0.29369154683324755,0.028437832582512725,0.08417433259965124,0.07357589656670493,0.1103585852563547,0.07401875234848983
0.093569,0.09275530058677933,0.0350925733813048,0.29323592750711924,0.028550959047686675,0.08434323367935305,0.07383646572159835,0.1106517548765688,0.07314399785393558
0.0940345,0.09347595028368963,0.03465296838987149,0.29276095817382614,0.028663440933036383,0.08450635675408666,0.07409565993377484,0.11094248065418262,0.07226895951439477
0.0945,0.09419728492329328,0.0342145792199473,0.29226680229802954,0.02877527338055135,0.08466368140454376,0.07435345311783996,0.11123082366161115,0.07139382467335696
0.0949655,0.09491925437640865,0.0337775161848704,0.2917536276294802,0.028886451392700664,0.08481518870864688,0.07460981933120697,0.11151684475084643,0.07051877912316308
0.095431,0.09564180791256374,0.03334188783762283,0.2912216061531847,0.028996969834415787,0.08496086126119555,0.0748647327886699,0.11180060453341505,0.06964400706688502
0.0958966,0.09636489419631038,0.03290780095901223,0.29067091403820877,0.029106823435196195,0.08510068319306067,0.07511816787695992,0.11208216336036082,0.06876969108101585
0.0963621,0.09708846128357616,0.03247536054656952,0.290101731585155,0.029216006791335705,0.08523464018991585,0.07537009916927076,0.1123615813022565,0.06789601207897704
0.0968276,0.09781245661805403,0.03204466980415816,0.28951424317235497,0.02932451436826723,0.08536271951049579,0.07562050143973845,0.11263891812924753,0.06702314927544804
0.0972931,0.09853682702763018,0.03161583013229015,0.2889086372008146,0.02943234050302348,0.08548491000437218,0.07586934967786102,0.11291423329113172,0.06615128015152381
0.0977586,0.09926151872085223,0.031188941119143818,0.2882851060379543,0.029539479406811283,0.08560120212923794,0.07611661910284326,0.1131875858974775,0.06528058042070468
0.0982241,0.09998647728343998,0.030764100532278328,0.28764384596018344,0.029645925167696832,0.08571158796769182,0.07636228517785168,0.11345903469778426,0.06441122399572334
0.0986897,0.10071164767484203,0.030341404311039436,0.2869850570943476,0.02975167175339924,0.08581606124351569,0.07660632362416497,0.11372863806168743,0.06354338295621278
0.0991552,0.10143697422484121,0.029920946559651097,0.2863089433580876,0.029856713014189663,0.08591461733743751,0.07684871043520497,0.11399645395921043,0.0626772275172189
0.0996207,0.10216240063021277,0.02950281954098717,0.28561571239914646,0.02996104268589299,0.08600725330237265,0.07708942189043362,0.11426253994106515,0.06181292599856076
0.1000862,0.10288786995143799,0.029087113671017413,0.2849055755336599,0.03006465439298895,0.08609396787813693,0.0773284345691011,0.11452695311900156,0.060950644795041864
0.1005517,0.103613324609477,0.02867391751392175,0.28417874768346657,0.030167541651809363,0.0861747615056242,0.07756572536383034,0.11478975014620707,0.060090548347514455
0.1010172,0.104338706382605,0.028263317777866635,0.2834354473124717,0.03026969787382788,0.08624963634044072,0.07780127149402334,0.11505098719775542,0.05923279911479932
0.1014828,0.10506395640331724,0.02785539931143715,0.2826758963620988,0.030371116369038467,0.08631859626598919,0.07803505051907432,0.11531071995110445,0.058377557546462636
0.1019483,0.10578901515530913,0.02745024510071827,0.2819003201858638,0.030471790349418618,0.08638164690599467,0.0782670403513751,0.11556900356664143,0.057524982056451346
0.1024138,0.10651382247053964,0.02704793626701857,0.28110894748310855,0.030571712932472968,0.08643879563646574,0.07849721926909727,0.11582589266827471,0.056675228997587875
0.1028793,0.10723831752638711,0.026648552065229487,0.2803020102319287,0.030670877144852948,0.08649005159708407,0.07872556592873604,0.11608144132407065,0.0558284526369248
0.1033448,0.10796243884290718,0.026252169882813127,0.2794797436213359,0.030769275926047734,0.0865354257020177,0.07895205937740103,0.11633570302693505,0.0549848051319595
0.1038103,0.10868612428020406,0.025858865239411503,0.2786423859826917,0.030866902132141612,0.08657493065015304,0.07917667906483994,0.11658873067533901,0.05414443650770865
0.1042759,0.10940931103592592,0.025468711787070115,0.27779017872045186,0.030963748539632813,0.08660858093474308,0.07939940485518292,0.11684057655409073,0.05330749463464165
0.1047414,0.11013193564289592,0.02508178131106858,0.2769233662422595,0.031059807849308486,0.08663639285246978,0.07962021703839677,0.11709129231515589,0.052474125207471765
0.1052069,0.1108539339668895,0.024698143731351038,0.2760421958884264,0.03115507269017055,0.08665838451191935,0.07983909634144029,0.11734092895852992,0.05164447172480335
0.1056724,0.11157524120456835,0.02431786710454889,0.2751469178608395,0.031249535623406974,0.08667457584146972,0.08005602393911426,0.11758953681316694,0.05081867546963298
0.1061379,0.11229579188158079,0.023941017626588408,0.27423778515133124,0.03134318914640281,0.08668498859658895,0.08027098146460097,0.11783716551797034,0.04999687549070192
0.1066034,0.11301551985083763,0.023567659635875503,0.2733150534695486,0.03143602569678519,0.08668964636654333,0.08048395101969019,0.1180838640028515,0.04917920858469687
0.107069,0.11373435829097228,0.023197855617049963,0.27237898117035514,0.03152803765649643,0.08668857458051413,0.08069491518468982,0.11832968046986346,0.04836580927929559
0.1075345,0.11445223970499317,0.022831666205301367,0.27142982918079744,0.03161921735588911,0.08668180051312112,0.08090385702802085,0.11857466237441666,0.047556809817053555
0.108,0.11516909591913654,0.02246915019123887,0.27046786092666686,0.03170955707783739,0.08666935328935191,0.08111076011549699,0.11881885640658456,0.0467523401401274
0.1084655,0.11588485808192817,0.022110364526307078,0.26949334225868393,0.0317990490618587,0.08665126388889546,0.08131560851929093,0.11906230847250691,0.04595252787583077
0.108931,0.11659945666346244,0.0217553643287402,0.2685065413783321,0.03188768550824045,0.08662756514987832,0.0815183868265893,0.11930506367589916,0.045157498323017874
0.1093966,0.1173128214549082,0.02140420289004646,0.2675077287633656,0.03197545858216653,0.08659829177200193,0.08171908014793955,0.11954716629967635,0.04436737443928961
0.1098621,0.11802488156825047,0.02105693168201477,0.2664971770930161,0.03206236041783886,0.08656348031907911,0.08191767412529219,0.11978865978770073,0.043582276829017066
0.1103276,0.11873556543627865,0.02071360036423546,0.2654751611729202,0.03214838312258919,0.08652316922096723,0.08211415493974228,0.12002958672666136,0.04280232373217684
0.1107931,0.11944480081283132,0.020374256792126767,0.2644419578597889,0.032233518780976564,0.08647739877489502,0.08230850931897386,0.12026998882809402,0.04202763101399263
0.1112586,0.12015251477330818,0.02003894702545854,0.2633978459858406,0.03231775945886572,0.0864262111461794,0.08250072454441101,0.12050990691055052,0.041258312155376946
0.1117241,0.12085863371545963,0.019707715337364606,0.26234310628301527,0.032401097207481785,0.08636965036832854,0.08269078845807869,0.12074938088192706,0.040494478244167006
0.1121897,0.12156308336046416,0.019380604223835033,0.26127802130699124,0.032483524067436556,0.08630776234252699,0.0828786894691761,0.12098844972196242,0.03973623796714839
0.1126552,0.12226578875430472,0.01905765441367945,0.26020287536102354,0.032565032072722086,0.08624059483649905,0.08306441656036469,0.12122715146491918,0.03898369760285996
0.1131207,0.12296667426945475,0.01873890487895241,0.2591179544196262,0.03264561325466777,0.0861681974827464,0.08324795929377223,0.12146552318246122,0.03823696101517345
0.1135862,0.12366566360688463,0.01842439284583182,0.2580235460521217,0.032725259645857936,0.08609062177615615,0.08342930781671422,0.12170360096674139,0.037496129647640875
0.1140517,0.12436267979839928,0.018114153805941207,0.2569199393460808,0.03280396328400739,0.08600792107097596,0.08360845286713278,0.12194141991371288,0.036761302518603
0.1145172,0.12505764520931698,0.017808221528106735,0.25580742483067687,0.0328817162157932,0.0859201505771528,0.08378538577875302,0.12217901410667716,0.036032576217052
0.1149828,0.125750481541499,0.017506628070539577,0.25468629439997714,0.032958510500641074,0.08582736735603222,0.08396009848595617,0.12241641660008146,0.03531004489924132
0.1154483,0.126441109836739,0.017209403793434375,0.2535568412361958,0.03303433821446491,0.08572963031541618,0.08413258352836825,0.1226536594035779,0.03459380028603621
0.1159138,0.12712945048052096,0.01691657737197424,0.25241935973293034,0.03310919145335827,0.08562700020397804,0.08430283405516267,0.12289077346635695,0.03388393166099782
0.1163793,0.12781542320615527,0.016628175809732776,0.2512741454184034,0.033183062337236655,0.08551953960503447,0.08447084382907506,0.12312778866176695,0.0331805258691943
0.1168448,0.12849894709930257,0.016344224452463366,0.25012149487873064,0.033255943013429795,0.08540731292967522,0.08463660723012795,0.12336473377223256,0.03248366731673204
0.1173103,0.12917994060289648,0.016064747002266008,0.24896170568123202,0.03332782566022384,0.08529038640925286,0.08480011925906347,0.12360163647448359,0.03179343797099998
0.1177759,0.12985832152247703,0.01578976553212168,0.24779507629780334,0.03339870249035334,0.08516882808723554,0.08496137554048167,0.12383852332510692,0.031109917361619988
0.1182414,0.13053400703194723,0.01551930050078439,0.246621906028362,0.03346856575444331,0.08504270781042517,0.0851203723256821,0.12407541974643477,0.030433182582095722
0.1187069,0.1312069136797656,0.01525337076802095,0.24544249492437903,0.03353740774440162,0.08491209721954446,0.08527710649520642,0.1243123500127833,0.02976330829215254
0.1191724,0.13187695739558714,0.014991993610188532,0.24425714371250892,0.03360522079676184,0.08477706973919627,0.08543157556107855,0.1245493372370577,0.02910036672076053
0.1196379,0.13254405349736437,0.014735184736140116,0.24306615371832796,0.03367199729597666,0.08463770056719909,0.08558377766873927,0.12478640335774062,0.02844442766983252
0.1201034,0.13320811669891994,0.014482958303448094,0.24186982679019062,0.03373772967766165,0.08449406666330313,0.08573371159867112,0.12502356912628157,0.027795558518588843
0.120569,0.13386906111800123,0.014235326934936282,0.24066846522321558,0.03380241043178939,0.08434624673729194,0.08588137676770966,0.12526085409490564,0.027153824228580228
0.1210345,0.1345268002848272,0.013992301735510842,0.23946237168341214,0.0338660321058338,0.08419432123647536,0.08602677323003673,0.12549827660486018,0.026519287349360102
0.1215,0.13518124715113702,0.013753892309280683,0.23825184913195974,0.03392858730786487,0.08403837233257982,0.08616990167785217,0.12573585377511798,0.02589200802479723
0.1219655,0.13583231409974986,0.013520106776958156,0.23703720074965312,0.033990068709593986,0.08387848390804258,0.08631076344172046,0.1259736014915549,0.025272044000019596
0.122431,0.1364799129546432,0.013290951793531002,0.2358187298615272,0.034050469049370674,0.0837147415417166,0.0864493604905903,0.12621153439661928,0.024659450628980062
0.1228966,0.13712395499155897,0.013066432566196674,0.23459673986167448,0.034109781135131384,0.0835472324939929,0.08658569543148457,0.1264496658795094,0.024054280882634445
0.1233621,0.13776435094914385,0.01284655287255027,0.23337153413827055,0.03416799784730167,0.0833760456913467,0.08671977150885944,0.12668800806687455,0.0234565853577223
0.1238276,0.13840101104063213,0.012631315079017408,0.23214341599882268,0.034225112141652775,0.08320127171031336,0.08685159260363083,0.1269265718140541,0.02286641228614063
0.1242931,0.13903384496607782,0.012420720159523385,0.23091268859566216,0.03428111705211424,0.08302300276089983,0.0869811632318674,0.12716536669686826,0.022283807544900683
0.1247586,0.1396627619251432,0.012214767714390104,0.2296796548517016,0.03433600569354401,0.08284133266943673,0.08710848854314816,0.12740440100397377,0.021708814666657805
0.1252241,0.14028767063044964,0.01201345598945217,0.22844461738648184,0.03438977126445741,0.08265635686087602,0.08723357431858282,0.1276436817297963,0.021141474850804295
0.1256897,0.14090847932149608,0.011816781895383594,0.2272078784425345,0.03444240704971659,0.08246817234053982,0.08735642696849293,0.12788321456805216,0.02058182697511508
0.1261552,0.14152509577914976,0.011624741027226408,0.22596973981208732,0.0344939064231818,0.08227687767532588,0.08747705352975137,0.12812300390586984,0.02002990760793605
0.1266207,0.1421374273407122,0.011437327684112633,0.22473050276413759,0.03454426285032558,0.08208257297437527,0.08759546166277751,0.1283630528185217,0.01948575102090493
0.1270862,0.14274538091556277,0.011254534889170898,0.2234904679719214,0.034593469890811294,0.08188535986920864,0.08771165964818566,0.12860336306477532,0.01894938920219455
0.1275517,0.14334886300138105,0.011076354409609237,0.22224993544080365,0.03464152120103713,0.0816853414933371,0.08782565638308423,0.12884393508287306,0.018420851870268373
0.1280172,0.14394777970094805,0.010902776776965665,0.22100920443661495,0.0346884105366467,0.08148262246135411,0.08793746137702302,0.1290847679871478,0.017900166488138147
0.1284828,0.1445420367395261,0.010733791307518337,0.21976857341446016,0.03473413175500723,0.08127730884751456,0.08804708474758587,0.1293258595652814,0.017387358278113434
0.1289483,0.1451315394828161,0.010569386122847274,0.21852833994802334,0.0347786788176563,0.0810695081638074,0.08815453721562633,0.12956720627621213,0.016882450237032765
0.1294138,0.1457161929554905,0.010409548170539884,0.21728880065939413,0.03482204579271783,0.08085932933752753,0.08825983010014346,0.1298088032486956,0.016385463151965984
0.1298793,0.14629590186029914,0.0102542632450327,0.21605025114943774,0.034864226857288155,0.08064688268835256,0.08836297531279481,0.13005064428052307,0.01589641561637719
0.1303448,0.14687057059774486,0.010103516008581963,0.2148129859287316,0.034905216299792555,0.08043227990492897,0.08846398535204314,0.1302927218384004,0.015415324046737658
0.1308103,0.1474401032863243,0.009957290012355841,0.2135772983490891,0.034945008522312984,0.08021563402097198,0.08856287329693398,0.13053502705848902,0.014942202699578055
0.1312759,0.1480044037833291,0.009815567717641308,0.2123434805356893,0.034983598042887226,0.07999705939088268,0.0886596528005015,0.13077754974761036,0.014477063688969307
0.1317414,0.14856337570620107,0.009678330517158763,0.21111182331983078,0.035020979497779804,0.0797766716648854,0.0887543380828007,0.131020278385114,0.014019917004421482
0.1322069,0.1491169224544351,0.009545558756477614,0.20988261617232498,0.03505714764372485,0.07955458776368796,0.0888469439235651,0.1312632001254086,0.013570770529190241
0.1326724,0.1496649472320225,0.009417231755526173,0.20865614713754443,0.03509209736014096,0.07933092585266684,0.08893748565449053,0.13150630080115402,0.01312963005898052
0.1331379,0.1502073530704257,0.00929332783018923,0.20743270276813855,0.03512582365131854,0.07910580531557954,0.08902597915114671,0.13174956492711187,0.012696499321037174
0.1336034,0.15074404285207618,0.009173824313986795,0.20621256806042973,0.035158321648579814,0.07887934672780536,0.08911244082451977,0.13199297570465116,0.012271379993612337
0.134069,0.15127491933438547,0.00905869757982751,0.20499602639050105,0.03518958661241212,0.07865167182911602,0.08919688761218957,0.13223651502690456,0.011854271725799295
0.1345345,0.1517998851742594,0.008947923061830305,0.20378335945098627,0.035219613934574776,0.07842290349597637,0.08927933696914706,0.13248016348457017,0.011445172157722587
0.135,0.15231884295310502,0.008841475277207899,0.20257484718857263,0.03524839914017982,0.07819316571337531,0.08935980685825713,0.13272390037235304,0.011044076941074118
0.1354655,0.15283169520231968,0.008739327848205698,0.20137076774222396,0.035275937889747006,0.07796258354618606,0.08943831574037318,0.13296770369604044,0.010650979759984957
0.135931,0.15333834442925268,0.008641453524089682,0.20017139738213272,0.03530222598123313,0.07773128311005494,0.0895148825641104,0.13321155018020425,0.010265872352222517
0.1363966,0.15383869314362936,0.008547824203176771,0.1989770104494078,0.035327259352035685,0.07749939154181668,0.08958952675528573,0.13345541527652358,0.009888744530702754
0.1368621,0.15433264388442833,0.008458410954901161,0.19778787929650368,0.03535103408097074,0.07726703696943416,0.08966226820603328,0.13369927317271882,0.00951958420530698
0.1373276,0.15482009924720233,0.008373184041910038,0.19660427422839646,0.035373546390224955,0.07703434848145999,0.08973312726360479,0.1339430968020891,0.00915837740499282
0.1377931,0.15530096191183268,0.008292112942182076,0.19542646344451056,0.035394792647281695,0.07680145609601677,0.0898021247188647,0.13418685785364332,0.008805108300188807
0.1382586,0.15577513467070644,0.008215166371162114,0.1942547129813996,0.035414769366820836,0.07656849072929262,0.08986928179448997,0.13443052678281422,0.008459759225462155
0.1387241,0.15624252045730516,0.008142312303905466,0.19308928665618375,0.03543347321259196,0.07633558416354827,0.08993462013288378,0.13467407282274524,0.008122310702449216
0.1391897,0.15670302237519212,0.00807351799722537,0.19193044601074585,0.03545090099926025,0.07610286901463251,0.08999816178381201,0.13491746399613908,0.007792741463038294
0.1396552,0.15715654372738638,0.008008750011837195,0.1907784502566886,0.03546704969422452,0.07587047869900328,0.09005992919177064,0.1351606671276584,0.007471028472794538
0.1401207,0.1576029880461105,0.007947974234493053,0.18963355622105488,0.03548191641940628,0.07563854740025315,0.09011994518309177,0.13540364785686976,0.007157146954616835
0.1405862,0.15804225912289974,0.007891155900100612,0.18849601829281473,0.03549549845300916,0.07540721003513907,0.09017823295279469,0.13564637065172364,0.006851070412616675
0.1410517,0.1584742610390599,0.007838259613819768,0.1873660883701225,0.035507793231247524,0.075176602219118,0.09023481605118881,0.13588879882256447,0.006552770656209115
0.1415172,0.15889889819646216,0.007789249373130886,0.18624401580834757,0.03551879835004357,0.07494686023139129,0.09028971837023471,0.136130894536666,0.006262217824405967
0.1419828,0.15931607534866066,0.007744088589868243,0.1851300473688826,0.03552851156669204,0.07471812097946215,0.09034296412966944,0.13637261883328733,0.0059793804103013505
0.1424483,0.15972569763231997,0.007702740112212223,0.1840244271687323,0.03553693080149162,0.07449052196321093,0.09039457786290235,0.13661393163924618,0.005704225285739701
0.1429138,0.16012767059893868,0.007665166246633801,0.18292739663088547,0.0355440541393419,0.07426420123849344,0.09044458440268752,0.13685479178500565,0.0054367177261563145
0.1433793,0.16052190024685448,0.0076313287797847825,0.18183919443547433,0.03554987983130487,0.07403929738026746,0.09049300886657917,0.13709515702127106,0.00517682143558046
0.1438448,0.16090829305351623,0.007601189000327254,0.1807600564717225,0.03555440629612997,0.07381594944525276,0.09053987664217611,0.13733498403609234,0.004924498571791068
0.1443103,0.16128675600800885,0.007574707720695815,0.17969021579068525,0.03555763212174145,0.07359429693412992,0.09058521337216219,0.13757422847246734,0.00467970977161497
0.1447759,0.16165719664381556,0.007551845298786229,0.17862990255878236,0.03555955606668685,0.07337447975328398,0.09062904493914975,0.1378128449464413,0.004442414176357657
0.1452414,0.162019523071802,0.007532561659564393,0.17757934401212339,0.0355601770615452,0.0731566381760989,0.09067139745033348,0.1380507870656975,0.0042125694573565235
0.1457069,0.16237364401340593,0.007516816316589714,0.17653876441162455,0.03555949421029346,0.07294091280380886,0.09071229722196264,0.13828800744863445,0.003990131841646534
0.1461724,0.16271946883401633,0.007504568393447226,0.17550838499891466,0.03555750679162962,0.07272744452591329,0.09075177076363908,0.13852445774392516,0.0037750561377283267
0.1466379,0.16305690757652602,0.007495776645082996,0.17448842395302677,0.03555421426025066,0.07251637448016204,0.09078984476244854,0.1387600886505542,0.0035672957614288282
0.1471034,0.16338587099504145,0.007490399479037519,0.17347909634787126,0.03554961624808359,0.07230784401211894,0.09082654606693243,0.1389948499383276,0.0033668027618445804
0.147569,0.163706270588733,0.007488394976571985,0.17248061411048432,0.03554371256546736,0.07210199463431198,0.09086190167090766,0.13922869046885208,0.0031735278473581483
0.1480345,0.1640180186358079,0.0074897209136823755,0.17149318598004706,0.035536503202283694,0.07189896798498076,0.09089593869714362,0.13946155821697875,0.002987420411718182
0.1485,0.16432102822758804,0.00749433478199643,0.1705170174676692,0.03552798832903464,0.07169890578643215,0.09092868438090512,0.13969340029270738,0.002808428560173965
0.1489655,0.16461521330267306,0.007502193809548571,0.16955231081693428,0.03551816829786527,0.07150194980301662,0.09096016605337258,0.13992416296354707,0.002636499135655548
0.149431,0.16490048868116922,0.007513254981427869,0.16859926496520497,0.035507043643530294,0.07130824179873829,0.0909904111249512,0.14015379167732936,0.002471577744990875
0.1498966,0.16517677009896428,0.007527475060294109,0.1676580755056887,0.03549461508430409,0.07111792349451145,0.09101944706848204,0.14038223108546924,0.0023136087851515644
0.1503621,0.1654439742420288,0.007544810606756965,0.16672893465026556,0.03548088352283427,0.07093113652507656,0.09104730140236922,0.140609425066669,0.002162535469519275
0.1508276,0.1657020187807239,0.007565217999613301,0.16581203119308024,0.035465850046939536,0.07074802239558833,0.0910740016736367,0.14083531675105954,0.0020182998541647466
0.1512931,0.16595082240409584,0.007588653455937602,0.1649075504749005,0.035449515930353184,0.07056872243788825,0.0910995754409293,0.14105984854477271,0.0018808428641317227
0.1517586,0.16619030485413633,0.007615073051020576,0.16401567434824432,0.03543188263341385,0.07039337776647427,0.09112405025747221,0.1412829621549394,0.0017501043197180766
0.1522241,0.16642038695998923,0.007644432738151051,0.16313658114327856,0.03541295180370543,0.07022212923417942,0.09114745365400348,0.14150459861510709,0.0016260229627465734
0.1526897,0.1666409906720825,0.007676688368236325,0.1622704456344907,0.03539272527664829,0.07005511738757135,0.09116981312169359,0.14172469831107068,0.001508536482817912
0.1531552,0.16685203909616605,0.007711795709256271,0.16141743900813593,0.035371205076043764,0.06989248242208415,0.09119115609506705,0.14194320100711066,0.001397581543538941
0.1536207,0.16705345652723658,0.0077497104655465995,0.16057772883046076,0.03534839341457388,0.06973436413689384,0.09121150993494086,0.14216004587263076,0.0012930938087192742
0.1540862,0.16724516848332996,0.007790388296906806,0.15975147901670336,0.03532429269425808,0.06958090188954834,0.0912309019113955,0.14237517150918802,0.0011950079685298857
0.1545517,0.1674271017391626,0.007833784837528422,0.15893884980087092,0.03529890550686858,0.06943223455036324,0.09124935918679336,0.14258851597790642,0.0011032577656176247
0.1550172,0.16759918435960203,0.007879855714739252,0.15813999770629336,0.03527223463430591,0.06928850045659452,0.09126690879886055,0.14280001682726495,0.001017776021169906
0.1554828,0.16776134573294774,0.007928556567559338,0.1573550755169521,0.035244283048936266,0.06914983736639953,0.09128357764384767,0.14300961112124966,0.0009384946609241017
0.1559483,0.16791351660400056,0.007979843065064322,0.15658423224958215,0.03521505391389214,0.06901638241259792,0.0912993924597844,0.14321723546785867,0.0008653447411163255
0.1564138,0.16805562910689978,0.008033670924551916,0.1558276131265447,0.03518455058333802,0.06888827205624375,0.09131437980984329,0.14342282604794707,0.0007982564743644154
0.1568793,0.1681876167977054,0.008089995929507102,0.15508535954946673,0.035152776602702863,0.06876564204002009,0.0913285660658271,0.14362631864439832,0.0007371592554799664
0.1573448,0.16830941468670246,0.008148773947361711,0.15435760907364346,0.03511973570888149,0.06864862734146687,0.09134197739179412,0.1438276486716072,0.0006819816872042979
0.1578103,0.16842095927040474,0.00820996094704391,0.15364449538319944,0.035085431830407014,0.06853736212605267,0.09135463972783554,0.14402675120525774,0.0006326516058632584
0.1582759,0.16852218856323528,0.008273513016313168,0.15294614826700442,0.035049869087596754,0.06843197970010059,0.09136657877401752,0.14422356101237932,0.0005890961069357938
0.1587414,0.16861304212886136,0.008339386378876225,0.1522626935953404,0.03501305179267407,0.068332612463579,0.09137781997450124,0.1444180125816617,0.0005512415705312307
0.1592069,0.16869346111116207,0.008407537411279625,0.15159425329731693,0.034974984449868775,0.06823939186276766,0.09138838850185288,0.1446100401540096,0.0005190136867702546
0.1596724,0.16876338826480686,0.00847792265957437,0.1509409453390324,0.03493567175549866,0.06815244834281046,0.09139830924155545,0.1447995777533154,0.000492337481064616
0.1601379,0.16882276798542376,0.008550498855748363,0.15030288370247918,0.03489511859803476,0.06807191130016597,0.09140760677673389,0.14498655921742848,0.00047113733929065487
0.1606034,0.16887154633933565,0.00862522293392237,0.14968017836519174,0.034853330058153255,0.06799790903496762,0.09141630537310483,0.14517091822929826,0.0004553370328517967
0.161069,0.16890967109284252,0.008702052046305232,0.1490729352806366,0.034810311408776606,0.06793056870330505,0.09142442896416156,0.1453525883482676,0.0004448597436252349
0.1615345,0.16893709174102678,0.00878094357890408,0.1484812563593438,0.03476606811510708,0.06787001626943864,0.09143200113660545,0.14553150304149354,0.00043962808878806383
0.162,0.1689537595360592,0.008861855166985242,0.14790523945077982,0.03472060583465545,0.06781637645795865,0.09143904511603423,0.14570759571547198,0.00043956414551818315
0.1624655,0.16895962751498286,0.008944744710281527,0.14734497832596047,0.034673930417267775,0.06776977270590097,0.09144558375289759,0.1458807997476438,0.00044458947556536113
0.162931,0.16895465052695438,0.009029570387941485,0.1468005626608035,0.03462604790515292,0.06773032711483164,0.09145163950873009,0.14605104851806164,0.00045462514968794916
0.1633966,0.16893878525992317,0.009116290673216185,0.1462720780202187,0.03457696453291331,0.06769816040291336,0.09145723444267215,0.14621827544109708,0.0004695917719508572
0.1638621,0.16891199026673107,0.009204864347879045,0.1457596058429343,0.034526686727581295,0.06767339185696813,0.0914623901982889,0.14638241399717095,0.0004894095038805176
0.1643276,0.16887422599061694,0.009295250516374226,0.14526322342705764,0.034475221108662975,0.0676561392845521,0.09146712799069706,0.14654339776448944,0.0005139980884726595
0.1647931,0.1688254547901127,0.009387408619689147,0.14478300391636895,0.03442257448819145,0.06764651896605998,0.09147146859400969,0.1467011604507707,0.0005432768740487822
0.1652586,0.16876564096331875,0.009481298448946783,0.14431901628734678,0.03436875387079098,0.0676446456068777,0.09147543232910871,0.14685563592494627,0.0005771648379572684
0.1657241,0.16869475077154786,0.009576880158713545,0.1438713253369229,0.03431376645375336,0.06765063228960243,0.09147903905175458,0.1470067582488228,0.0006155806101151509
0.1661897,0.16861275246232701,0.009674114280018749,0.1434399916709652,0.03425761962712756,0.06766459042635004,0.09148230814104205,0.14715446170868846,0.0006584424963866566
0.1666552,0.16851961629174655,0.00977296173308183,0.14302507169348624,0.03420032097382364,0.06768662971116933,0.09148525848821011,0.1472986808468488,0.000705668501794815
0.1671207,0.16841531454614497,0.009873383839743687,0.14262661759657527,0.034141878269731335,0.06771685807258258,0.09148790848581444,0.1474393504930762,0.0007571763535626401
0.1675862,0.1682998215631171,0.009975342335598644,0.14224467735105117,0.03408229948385406,0.06775538162627118,0.09149027601726983,0.14757640579595588,0.0008128835239806313
0.1680517,0.1681731137518328,0.010078799381823662,0.14187929469783442,0.034021592778458405,0.06780230462792487,0.09149237844676934,0.1477097822541113,0.0008727072530975772
0.1685172,0.1680351696126522,0.010183717576701513,0.14153050914003462,0.03395976650923954,0.06785772942627251,0.09149423260958686,0.14783941574729156,0.0009365645712318295
0.1689828,0.16788596975602346,0.010290059966834667,0.14119835593575097,0.03389682922550232,0.06792175641631153,0.09149585480276883,0.14796524256730317,0.001004372321300337
0.1694483,0.16772549692064834,0.010397790058046752,0.14088286609158224,0.03383278967035811,0.06799448399275337,0.0914972607762211,0.14808719944876858,0.0010760471809628286
0.1699138,0.1675537359908998,0.010506871825968475,0.14058406635684315,0.03376765678093685,0.0680760085037013,0.09149846572419613,0.14820522359969485,0.0011515056845786094
0.1703793,0.16737067401347683,0.01061726972630497,0.14030197921848397,0.03370143968861383,0.06816642420457698,0.09149948427718568,0.14831925273183477,0.001230664244973505
0.1708448,0.16717630021328028,0.010728948704781619,0.14003662289671048,0.03363414771925037,0.068265823212312,0.09150033049422406,0.14842922509082337,0.001313439175014552
0.1713103,0.16697060600849373,0.010841874206765443,0.1397880113413014,0.033565790393447294,0.06837429545982002,0.09150101785560662,0.14853507948607086,0.0013997467089900736
0.1717759,0.16675358502485318,0.010956012186559293,0.13955615422862172,0.03349637742680994,0.06849192865076599,0.09150155925602779,0.14863675532039425,0.0014895030237928155
0.1722414,0.16652523310909018,0.011071329116366189,0.13934105695933036,0.03342591873022315,0.06861880821464862,0.09150196699814252,0.14873419261936918,0.0015826242599038555
0.1727069,0.16628554834153245,0.011187791994921367,0.13914272065678193,0.03335442441013445,0.06875501726221257,0.0915022527865546,0.14882733206038556,0.0016790265421750405
0.1731724,0.1660345310478482,0.011305368355789814,0.13896114216612354,0.033281904768843594,0.06890063654120736,0.09150242772223557,0.1489161150013908,0.0017786260004077309
0.1736379,0.16577218380992031,0.011424026275327265,0.13879631405408774,0.03320837030479649,0.06905574439251017,0.09150250229737648,0.14900048350930567,0.00188133878972568
0.1741034,0.16549851147583844,0.011543734380303004,0.13864822460948487,0.03313383171288159,0.06922041670663072,0.0915024863906759,0.14908038038809818,0.001987081110739916
0.174569,0.16521352116899962,0.011664461855182967,0.138516857844401,0.0330582998847272,0.06939472688061703,0.09150238926306642,0.14915574920650074,0.0020957692295035936
0.1750345,0.16491722229630792,0.011786178449071975,0.13840219349611083,0.032981785908998085,0.06957874577538226,0.09150221955388149,0.1492265343253564,0.002207319497254899
0.1755,0.16460962655546676,0.011908854482314131,0.13830420702971932,0.032904301071690595,0.06977254167347385,0.09150198527746417,0.14929268092457898,0.0023216483699462546
0.1759655,0.16429074794135798,0.01203246085275055,0.13822286964154787,0.03282585685642558,0.0699761802373074,0.09150169382021885,0.14935413502971165,0.0024386724275582594
0.176431,0.16396060275150223,0.012156969041633835,0.13815814826328202,0.032746464944739,0.07018972446788878,0.09150135193810588,0.14941084353806827,0.0025583083931969785
0.1768966,0.1636192095905959,0.01228235111919859,0.13811000556689937,0.03266613721637054,0.07041323466404896,0.09150096575457876,0.14946275424444105,0.002680473151973369
0.1773621,0.16326658937411925,0.01240857974988735,0.13807839997039603,0.032584885749550666,0.07064676838221634,0.09150054075896286,0.14950981586635828,0.002805083769663761
0.1778276,0.16290276533101172,0.012535628197231162,0.1380632856443304,0.032502722821286884,0.07089038039675202,0.09150008180527368,0.14955197806887588,0.0029320575111504224
0.1782931,0.16252776300541097,0.012663470328384005,0.13806461251920438,0.03241966090764971,0.07114412266087328,0.09149959311147254,0.14958919148888855,0.003061311858641289
0.1787586,0.16214161025745555,0.012792080618310133,0.1380823262937026,0.03233571268405916,0.07140804426819049,0.09149907825915625,0.14962140775894683,0.003192764529667979
0.1792241,0.1617443372631525,0.012921434153623403,0.13811636844381023,0.03225089102557202,0.07168219141488301,0.09149854019367756,0.14964857953056962,0.003326333494861233
0.1796897,0.16133597651331497,0.013051506636077508,0.1381666762328307,0.03216520900717013,0.07196660736253921,0.09149798122469181,0.14967066049704164,0.0034619369955028885
0.1801552,0.16091656281157615,0.013182274385706023,0.13823318272232324,0.03207867990404977,0.07226133240168565,0.09149740302712539,0.14968760541568682,0.0035994935608535087
0.1806207,0.16048613327148667,0.013313714343611149,0.13831581678398136,0.031991317191911846,0.07256640381603018,0.091496806642561,0.14969937012960724,0.003738922025254747
0.1810862,0.1600447273127034,0.01344580407440006,0.13841450311247147,0.031903134547252535,0.07288185584744312,0.09149619248103495,0.1497059115888771,0.0038801415450055304
0.1815517,0.15959238665627676,0.013578521768267899,0.1385291622392515,0.031814145847653824,0.0732077196617009,0.0914955603232407,0.14970718787118079,0.004023071615011097
0.1820172,0.15912915531904342,0.013711846242726648,0.13865971054738818,0.03172436517207337,0.07354402331501561,0.0914949093231333,0.1497031582018848,0.004167632085203929
0.1824828,0.15865507960713054,0.013845756943979336,0.13880606028739118,0.03163380680113295,0.07389079172137451,0.0914942380109283,0.14969378297353514,0.004313743176735594
0.1829483,0.15817020810857876,0.013980233947939414,0.13896811959408123,0.03154248521740493,0.07424804662071309,0.09149354429648894,0.14967902376477235,0.004461325497938494
0.1834138,0.15767459168509176,0.014115257960895418,0.13914579250450884,0.03145041510569581,0.074615806547945,0.09149282547309442,0.14965884335865823,0.004610300060056564
0.1838793,0.15716828346292008,0.014250810319821509,0.13933897897693884,0.03135761135332615,0.07499408680287185,0.09149207822158248,0.1496332057604084,0.0047605882927439684
0.1843448,0.1566513388228876,0.014386872992334812,0.13954757491091588,0.03126408905040583,0.07538289942099533,0.09149129861485875,0.14960207621452487,0.004912112059330865
0.1848103,0.15612381538956904,0.014523428576300974,0.13977147216842384,0.031169863490103637,0.07578225314525354,0.09149048212276578,0.14956542122132307,0.005064793671855342
0.1852759,0.15558577301962678,0.014660460299089769,0.14001055859615183,0.031074950168910053,0.07619215339870308,0.09148962361730338,0.14952320855284795,0.005218555905860605
0.1857414,0.15503727378931392,0.014797952016483035,0.14026471804887777,0.03097936478689227,0.07661260225816756,0.09148871737819218,0.14947540726817402,0.005373322014956458
0.1862069,0.1544783819811518,0.014935888211237707,0.14053383041397963,0.030883123247940677,0.0770435984288731,0.09148775709877134,0.14942198772808524,0.0055290157451441035
0.1866724,0.15390916406978986,0.015074253991307159,0.1408177716370827,0.030786241660006344,0.0774851372200908,0.09148673589222074,0.1493629216091326,0.005685561348903253
0.1871379,0.15332968870705682,0.015213035087724466,0.14111641374885134,0.030688736335329484,0.07793721052180601,0.09148564629809765,0.1492981819170693,0.0058428835990405135
0.1876034,0.15274002670621242,0.015352217852151599,0.14142962489293148,0.030590623790659244,0.07839980678243338,0.09148448028917765,0.14922774299966585,0.006000907802297973
0.188069,0.15214025102541054,0.015491789254098779,0.14175726935504937,0.03049192074746566,0.07887291098759674,0.091483229278589,0.1491515805589081,0.006159559812720919
0.1885345,0.15153043675038422,0.015631736877818474,0.14209920759327072,0.03039264413214507,0.0793565046399921,0.09148188412722978,0.14906967166258323,0.006318766044783596
0.189,0.15091066107636408,0.015772048918878526,0.14245529626942385,0.030292811076220658,0.07985056574035199,0.09148043515145764,0.14898199475525725,0.0064784534862718825
0.1894655,0.15028100328924154,0.015912714180418886,0.1428253882816887,0.030192438916540405,0.08035506876952887,0.09147887213104174,0.1488885296686487,0.006638549710921805
0.189931,0.14964154474598837,0.016053722069096367,0.14320933279835307,0.030091545195474825,0.08086998467171491,0.09147718431736702,0.14878925763140383,0.0067989828908127615
0.1903966,0.14899236885434292,0.01619506259072168,0.14360697529273703,0.029990147661117406,0.08139528083881516,0.09147536044188061,0.14868416127827894,0.006959681808514407
0.1908621,0.14833356105177314,0.01633672634559295,0.14401815757928507,0.029888264267490715,0.08193092109599096,0.09147338872476965,0.14857322465873696,0.007120575868986089
0.1913276,0.14766520878372644,0.016478704523529775,0.1444427178508255,0.02978591317476134,0.08247686568838994,0.09147125688386078,0.14845643324496516,0.007281595111227822
0.1917931,0.146987401481176,0.01662098889861189,0.14488049071699483,0.029683112749466792,0.08303307126907872,0.09146895214373012,0.1483337739393213,0.007442670219681724
0.1922586,0.1463002305374754,0.01676357182362642,0.14533130724382462,0.029579881564757507,0.08359949088819403,0.09146646124501302,0.14820523508121464,0.007603732535382967
0.1927241,0.14560378928453427,0.016906446224227847,0.14579499499448662,0.0294762384006568,0.08417607398332788,0.0914637704539021,0.14807080645342754,0.007764714066859245
0.1931897,0.14489817296833093,0.017049605592814963,0.14627137807119123,0.029372202244341575,0.08476276637116169,0.09146086557182186,0.14793047928788233,0.007925547500777851
0.1936552,0.14418347872377954,0.017193043982129303,0.14676027715823384,0.029267792290446473,0.08535951024036408,0.09145773194526793,0.1477842462708574,0.008086166212339463
0.1941207,0.14345980554897217,0.017336755998579905,0.14726150956618214,0.029163027941393978,0.08596624414576626,0.09145435447579899,0.14763210154765574,0.008246504275417708
0.1945862,0.14272725427881694,0.017480736795299514,0.14777488927719712,0.02905792880775294,0.08658290300382859,0.09145071763016958,0.14747404072672954,0.008406496472443578
0.1950517,0.14198592755809528,0.017624982064937667,0.14830022699147932,0.02895251470862794,0.08720941808941114,0.09144680545059407,0.14731006088326404,0.00856607830403377
0.1955172,0.14123592981396133,0.017769488032196416,0.1488373301748314,0.02884680567208173,0.08784571703386096,0.09144260156513188,0.1471401605622242,0.008725185998362027
0.1959828,0.14047736722790768,0.017914251446114648,0.14938600310732747,0.028740821935592867,0.08849172382442788,0.09143808919818616,0.146964339780867,0.008883756520272658
0.1964483,0.13971034770722118,0.018059269572107205,0.1499460469330796,0.028634583946550416,0.08914735880502053,0.09143325118110862,0.1467826000307229,0.00904172758013547
0.1969138,0.13893498085595232,0.018204540183765147,0.15051725971109128,0.028528112362787492,0.089812538678314,0.09142806996290438,0.14659494427904815,0.009199037642441473
0.1973793,0.1381513779454211,0.018350061554423727,0.15109943646718837,0.02842142805315519,0.09048717650922021,0.09142252762103072,0.14640137696974978,0.009355625934138835
0.1978448,0.13735965188428137,0.01849583244850468,0.15169236924701826,0.0283145520981383,0.09117118172973132,0.09141660587228465,0.14620190402378355,0.009511432452708603
0.1983103,0.13655991718816468,0.018641852112639586,0.15229584717010733,0.028207505790514044,0.09186446014514671,0.0914102860837741,0.14599653283902428,0.009666397973979852
0.1987759,0.13575228994892385,0.01878812026658089,0.1529096564849681,0.028100310636054778,0.09256691394169324,0.0914035492839689,0.1457852722896075,0.009820464059683875
0.1992414,0.13493688780349591,0.018934637093907386,0.15353358062524508,0.027992988354275442,0.09327844169554794,0.0913963761738272,0.14556813272474167,0.009973573064747226
0.1997069,0.1341138299024026,0.019081403232530565,0.15416740026688852,0.02788556087922643,0.09399893838327156,0.09138874713799422,0.1453451259669914,0.010125668144323436
0.2001724,0.13328323687790655,0.019228419765008355,0.15481089338634335,0.02777805036033222,0.09472829539366114,0.09138064225606984,0.14511626531003255,0.01027669326056342
0.2006379,0.13244523081184081,0.01937568820867258,0.15546383531974012,0.027670479163276192,0.09546640054102909,0.09137204131394193,0.14488156551588177,0.010426593189124618
0.2011034,0.1315999352031278,0.01952321050557635,0.1561259988230734,0.027562869870931834,0.09621313807991544,0.09136292381518232,0.14464104281160453,0.01057531352541907
0.201569,0.13074747493500483,0.019670989012267534,0.15679715413335235,0.02745524528434038,0.09696838872123921,0.09135326899250393,0.1443947148855072,0.010722800690600807
0.2020345,0.12988797624197168,0.019819026489394376,0.15747706903070652,0.02734762842373491,0.09773202964989469,0.09134305581927761,0.14414260088282088,0.010869001937293234
0.2025,0.12902156667647535,0.01996732609114918,0.1581655089014299,0.02724004252961088,0.0985039345437969,0.09133226302110857,0.14388472140088543,0.011013865355057495
0.2029655,0.12814837507534763,0.020115891354555968,0.1588622368019451,0.02713251106384287,0.09928397359438033,0.09132086908747274,0.14362109848384355,0.011157339875603087
0.203431,0.127268531526011,0.020264726188607942,0.1595670135236679,0.02702505771084737,0.10007201352855404,0.09130885228341329,0.14335175561685498,0.011299375277742265
0.2038966,0.12638216733246962,0.02041383486326049,0.16027959765875263,0.026917706378791206,0.10086791763211524,0.09129619066129804,0.14307671771984146,0.011439922192089851
0.2043621,0.1254894149811032,0.020563221998285468,0.16099974566669709,0.02681048120084531,0.10167154577462341,0.09128286207263757,0.1427960111407742,0.011578932105510227
0.2048276,0.12459040810628386,0.02071289255199253,0.16172721194178444,0.026703406536483128,0.10248275443573558,0.0912688441799633,0.14250966364851567,0.011716357365313257
0.2052931,0.12368528145583765,0.020862851809823224,0.16246174888133894,0.026596506972823036,0.10330139673300373,0.09125411446876469,0.14221770442522877,0.011852151183200975
0.2057586,0.12277417085637352,0.02101310537282365,0.1632031069547713,0.026489807326013866,0.10412732245113404,0.0912386502594838,0.14192016405836497,0.011986267638966996
0.2062241,0.12185721317850395,0.021163659146001455,0.1639510347733885,0.026383332642662457,0.10496037807270807,0.09122242871956475,0.14161707453224398,0.012118661683950835
0.2066897,0.12093454630198142,0.0213145193265728,0.16470527916094183,0.026277108201302097,0.10580040681036479,0.0912054268755555,0.14130846921923623,0.012249289144249512
0.2071552,0.12000630908077461,0.021465692392104878,0.16546558522488639,0.02617115951390058,0.10664724864044221,0.09118762162525818,0.14099438287055852,0.012378106723689006
0.2076207,0.11907264130810793,0.02161718508855939,0.1662316964283233,0.026065512327406427,0.10750074033807672,0.09116898974992389,0.14067485160669257,0.012505072006558218
0.2080862,0.11813368368148651,0.021769004418242317,0.16700335466259705,0.02596019262533177,0.10836071551375727,0.09114950792648707,0.14034991290743468,0.0126301434601082
0.2085517,0.11718957776772845,0.02192115762766508,0.16778030032051805,0.025855226629370225,0.109227004651331,0.09112915273983403,0.14001960560158477,0.012753280436819548
0.2090172,0.11624046596802495,0.022073652195322254,0.1685622723701811,0.025750640801048007,0.11009943514745561,0.09110790069510023,0.13968396985628279,0.012874443176441045
0.2094828,0.1152864914830478,0.022226495819390853,0.16934900842935008,0.025646461843406264,0.11097783135249313,0.09108572822998973,0.13934304716599993,0.012993592807802743
0.2099483,0.1143277982781233,0.022379696405356267,0.1701402448403783,0.025542716702712638,0.11186201461283893,0.09106261172711078,0.13899688034119245,0.01311069135040692
0.2104138,0.11336453104849041,0.02253326205357006,0.17093571674563315,0.025439432570199826,0.11275180331467867,0.09103852752632088,0.13864551349662535,0.013225701715800349
0.2108793,0.11239683518466041,0.022687201046744904,0.17173515816339457,0.025336636883828857,0.11364701292916518,0.09101345193707452,0.13828899203937342,0.013338587708731347
0.2113448,0.11142485673789425,0.02284152183739202,0.1725383020641952,0.025234357330074637,0.11454745605900593,0.09098736125076584,0.13792736265650665,0.013449314028095027
0.2118103,0.11044874238581324,0.02299623303520666,0.1733448804475701,0.025132621845731295,0.11545294248645116,0.0909602317530584,0.13756067330246705,0.013557846267670167
0.2122759,0.10946863939815808,0.023151343394407307,0.17415462441918295,0.025031458619734655,0.11636327922267191,0.09093203973619335,0.1371889731861445,0.013664150916651043
0.2127414,0.1084846956027098,0.02330686180103438,0.17496726426829523,0.024930896094999204,0.11727827055851625,0.09090276151126668,0.13681231275766134,0.013768195359977559
0.2132069,0.10749705935138686,0.023462797260214344,0.1757825295455445,0.02483096297026677,0.11819771811663152,0.09087237342046586,0.13643074369487593,0.013869947878467005
0.2136724,0.10650587948653072,0.02361915888339527,0.1766001491409977,0.02473168820196413,0.11912142090493952,0.09084085184925597,0.13604431888961876,0.013969377648750675
0.2141379,0.10551130530739236,0.02377595587555995,0.1774198513624472,0.02463310100606662,0.12004917537145113,0.0908081732385047,0.13565309243367465,0.014066454743018523
0.2146034,0.10451348653683089,0.023933197522422685,0.17824136401391746,0.024535230859964948,0.12098077546040575,0.09077431409653586,0.1352571196045255,0.014161150128574976
0.215069,0.10351257328823484,0.02409089317761593,0.17906441447435048,0.024438107504332243,0.12191601266972067,0.09073925101110121,0.13485645685086758,0.014253435667208852
0.2155345,0.1025087160326759,0.024249052249872716,0.17988872977644005,0.024341760944988373,0.12285467610973476,0.09070296066126118,0.13445116177791605,0.014343284114380267
0.216,0.10150206556630381,0.024407684190210926,0.18071403668558403,0.024246221454758476,0.12379655256322995,0.09066541982916601,0.13404129313250904,0.01443066911822726
0.2164655,0.10049277297799027,0.024566798479125358,0.18154006177892348,0.02415151957532253,0.12474142654671373,0.09062660541173055,0.1336269107880233,0.014515565218394802
0.216931,0.09948098961722901,0.024726404613793673,0.18236653152443724,0.024057686119052863,0.12568908037294546,0.09058649443219657,0.13320807572911214,0.014597947844688701
0.2173966,0.0984668670622984,0.024886512095302342,0.1831931723600595,0.02396475217083623,0.12663929421468856,0.09054506405157713,0.13278485003627635,0.014677793315556834
0.2178621,0.0974505570886921,0.025047130415898795,0.18401971077278764,0.02387274908987704,0.12759184616966918,0.09050229157997772,0.13235729687027867,0.014755078836400076
0.2183276,0.09643221163782273,0.02520826904627588,0.18484587337774694,0.0237817085114783,0.12854651232672193,0.09045815448778927,0.1319254804564109,0.01482978249771522
0.2187931,0.09541198278600282,0.02536993742289487,0.18567138699717872,0.023691662348796584,0.1295030668331017,0.09041263041674708,0.1314894660686225,0.014901883273072165
0.2192586,0.0943900227137069,0.02553214493535338,0.18649597873931914,0.023602642794567242,0.1304612819629391,0.09036569719085107,0.13104932001351866,0.014971361016927752
0.2197241,0.09336648367511771,0.02569490091380443,0.18731937607713497,0.023514682322795966,0.13142092818681694,0.0903173328271427,0.13060510961423455,0.015038196462278679
0.2201897,0.09234151796795957,0.025858214616433076,0.18814130692688463,0.023427813690412694,0.13238177424244327,0.09026751554633405,0.13015690319419246,0.01510237121815621
0.2206552,0.09131527790362112,0.026022095216997197,0.18896149972647244,0.023342069938883648,0.13334358720639575,0.0902162237832858,0.12970477006074727,0.015163867766965489
0.2211207,0.09028791577756966,0.02618655179243903,0.1897796835135659,0.02325748439577717,0.13430613256691076,0.09016343619733051,0.12924878048872523,0.015222669461672552
0.2215862,0.08925958384005878,0.026351593310574184,0.1905955880034447,0.02317409067627889,0.1352691742976897,0.09010913168243796,0.12878900570386143,0.015278760522842147
0.2220517,0.08823043426713127,0.026517228617864864,0.19140894366655326,0.02309192268465148,0.13623247493269364,0.09005328937721839,0.1283255178661395,0.015332126035529598
0.2225172,0.08720061913191891,0.02668346642728428,0.19221948180572648,0.023011014615634255,0.13719579564189655,0.08999588867475941,0.12785839005303776,0.015382751946029977
0.2229828,0.08617029037624041,0.02685031530627907,0.1930269346330607,0.022931400955777576,0.13815889630796618,0.08993690923229196,0.1273876962426845,0.015430625058487985
0.2234483,0.08513959978249895,0.02701778366483675,0.19383103534640087,0.022853116484706903,0.13912153560384016,0.08987633098068037,0.12691351129692516,0.015475733031372122
0.2239138,0.08410869894588079,0.02718587974366502,0.19463151820541658,0.022776196276311247,0.14008347107116423,0.08981413413373174,0.1264359109443036,0.01551806437381684
0.2243793,0.08307773924685584,0.027354611602489757,0.19542811860723883,0.022700675699850667,0.1410444591995577,0.08975029919732015,0.1259549717629594,0.01555760844183664
0.2248448,0.0820468718239817,0.027523987108478327,0.19622057316163052,0.0226265904209772,0.1420042555066708,0.08968480697832235,0.12547077116344343,0.015594355434416006
0.2253103,0.08101624754701221,0.027694013924794834,0.19700861976566372,0.022553976402663708,0.14296261461899742,0.08961763859336129,0.12498338737145488,0.015628296389479206
0.2257759,0.0799860169903122,0.027864699499293592,0.19779199767787603,0.0224828699060349,0.14391929035340476,0.08954877547735543,0.12449289941050212,0.015659423179743982
0.2262414,0.07895633040657958,0.028036051053357162,0.19857044759187847,0.022413307491094787,0.1448740357993416,0.08947819939187134,0.12399938708449158,0.015687728508463044
0.2267069,0.07792733770087658,0.028208075570884943,0.1993437117093868,0.022345326017344735,0.14582660340168432,0.08940589243327804,0.12350293096024872,0.015713205905057374
0.2271724,0.07689918840497166,0.02838077978743827,0.20011153381264854,0.02227896264428613,0.14677674504417978,0.08933183704070244,0.12300361234997624,0.015735849720645307
0.2276379,0.07587203165199383,0.028554170179547807,0.2008736593362385,0.02221425483180171,0.1477242121334427,0.08925601600378505,0.12250151329365463,0.015755655123471362
0.2281034,0.07484601615140123,0.028728252954188894,0.20162983543819704,0.022151240340409363,0.1486687556834637,0.08917841247023643,0.12199671654139149,0.015772618094238813
0.228569,0.07382129016426599,0.02890303403843046,0.20237981107048714,0.02208995723138207,0.14961012640058424,0.0890990099531948,0.12148930553572566,0.015786735421349903
0.2290345,0.0727980014788773,0.02907851906926299,0.20312333704874927,0.02203044386672765,0.15054807476889173,0.08901779233838508,0.12097936439389313,0.015798004696057567
0.2295,0.07177629738666479,0.029254713383611065,0.20386016612133592,0.021972738909021586,0.15148235113598815,0.08893474389108004,0.120466977890062,0.01580642430753263
0.2299655,0.07075632465844424,0.029431622008536114,0.20459005303760824,0.02191688132108616,0.15241270579908497,0.08884984926286305,0.11995223143754373,0.015811993437850294
0.230431,0.06973822952098752,0.029609249651635052,0.2053127546154792,0.021862910365509147,0.15333888909137533,0.08876309349819256,0.11943521107098864,0.01581471205689973
0.2308966,0.06872215763391826,0.02978760069164078,0.20602802980818902,0.021810865603994995,0.15426065146863507,0.08867446204076768,0.118916003428573,0.01581458091722059
0.2313621,0.06770825406693491,0.02996667916923045,0.2067356397702969,0.021760786896541692,0.15517774359600425,0.08858394073969418,0.1183946957341854,0.015811601548770145
0.2318276,0.06669666327736241,0.030146488778047608,0.2074353479228729,0.021712714400436404,0.1560899164349015,0.08849151585545016,0.11787137577962034,0.01580577625362463
0.2322931,0.0656875290880335,0.03032703285594429,0.20812692001787345,0.021666688569063217,0.15699692133002358,0.08839717406565004,0.11734613190678637,0.01579710810061833
0.2327586,0.06468099466550102,0.030508314376449002,0.20881012420168368,0.021622750150516627,0.15789851009638228,0.08830090247060576,0.11681905298993642,0.015785600919923915
0.2332241,0.06367720249858197,0.03069033594046656,0.20948473107780968,0.021580940186014766,0.15879443510633082,0.08820268859868298,0.11629022841792709,0.01577125929757732
0.2336897,0.06267629437723467,0.030873099768215544,0.21015051376870353,0.02154130000810688,0.15968444937652979,0.08810252041145017,0.11575974807651365,0.015754088569950524
0.2341552,0.06167841137176971,0.031056607691409017,0.21080724797670503,0.021503871238670057,0.1605683066548031,0.08800038630861845,0.11522770233068667,0.015734094818175396
0.2346207,0.06068369381239573,0.031240861145684206,0.2114547120440837,0.021468695786690882,0.16144576150683293,0.08789627513276999,0.11469418200705576,0.01571128486252176
0.2350862,0.059692281269100984,0.03142586116328655,0.212092687012166,0.021435815845828408,0.16231656940264333,0.08779017617387341,0.11415927837628544,0.015685666256732757
0.2355517,0.05870431253187144,0.03161160836601353,0.21272095667953053,0.021405273891755273,0.16318048680282154,0.08768207917358503,0.11362308313558715,0.01565724728232062
0.2360172,0.05771992559124654,0.031798102958423446,0.21333930765925674,0.021377112679274543,0.16403727124442674,0.08757197432933454,0.11308568839127141,0.015626036942826
0.2364828,0.05673925761921335,0.031985344721314084,0.21394752943521014,0.021351375239210428,0.16488668142653748,0.08745985229819443,0.11254718664136332,0.015592044958043961
0.2369483,0.05576244495043977,0.03217333300547595,0.21454541441734917,0.021328104875071446,0.1657284772953899,0.08734570420053148,0.11200767075828498,0.015555281758219878
0.2374138,0.05478962306384801,0.03236206672572454,0.21513275799603673,0.021307345159485045,0.16656242012906,0.08722952162343894,0.11146723397160767,0.01551575847821845
0.2378793,0.053820926564528915,0.032551544355215914,0.21570935859534104,0.02128913993040316,0.1673882726216441,0.08711129662394904,0.11092596985087605,0.015473486951668954
0.2383448,0.052856489165997896,0.03274176392004977,0.21627501772531113,0.021273533287078428,0.16820579896689142,0.08699102173202482,0.11038397228850651,0.015428479705089801
0.2388103,0.05189644367279328,0.03293272299416378,0.21682954003321325,0.021260569585811025,0.16901476494124226,0.08686868995333227,0.10984133548276036,0.015380749951995367
0.2392759,0.05094092196341778,0.03312441869452314,0.21737273335371526,0.02125029343546616,0.16981493798622455,0.08674429477179378,0.10929815392079216,0.015330311586987935
0.2397414,0.04999005497362374,0.033316847676609175,0.21790440875800596,0.021242749692762457,0.1706060872901595,0.08661783015192459,0.10875452236177265,0.015277179179837437
0.2402069,0.049043972680042736,0.03351000613021047,0.21842438060183708,0.021237983457331303,0.1713879838691267,0.08648929054095429,0.10821053582008494,0.015221367969551628
0.2406724,0.04810280408416018,0.03370388977552047,0.21893246657247495,0.021236040066547206,0.1721604006471372,0.0863586708707358,0.10766628954859211,0.015162893858439169
0.2411379,0.047166677196635365,0.033898493859544986,0.2194284877345491,0.021236965090129116,0.17292311253546302,0.08622596655944346,0.10712187902197447,0.015101773406168003
0.2416034,0.046235719021967325,0.034093813152823074,0.21991226857478446,0.021240804324512523,0.1736758965110714,0.08609117351306249,0.10657739992013421,0.01503802382382133
0.242069,0.045310055543506714,0.03428984194646444,0.22038363704560515,0.021247603786992017,0.17441853169411245,0.08595428812667137,0.10603294811166536,0.014971662967953353
0.2425345,0.044389811708814154,0.03448657404950645,0.22084242460759676,0.021257409709633784,0.17515079942441109,0.08581530728551891,0.10548861963738643,0.014902709334646854
0.243,0.04347511141536499,0.034684002786593365,0.22128846627081372,0.021270268532957475,0.17587248333691705,0.08567422836589787,0.10494451069393262,0.014831182053574575
0.2434655,0.042566077496600505,0.034882120995980495,0.22172160063491964,0.021286226899386754,0.1765833694360703,0.0855310492358176,0.1044007176174047,0.014757100882066295
0.243931,0.04166283170832543,0.03508092102786532,0.22214166992814885,0.02130533164646786,0.1772832461690445,0.08538576825547739,0.10385733686707097,0.014680486199183405
0.2443966,0.0407654947154514,0.035280394743047755,0.2225485200450786,0.021327629799855467,0.1779719044978344,0.08523838427754313,0.1033144650091183,0.014601358999802826
0.2448621,0.03987418607908568,0.03548053351192133,0.22294200058320374,0.02135316856606533,0.17864913797015783,0.08508889664722986,0.10277219870044844,0.01451974088871198
0.2453276,0.038989024243964214,0.035681328213797193,0.2233219648783067,0.021381995324992964,0.17931474278914486,0.08493730520219273,0.10223063467251553,0.01443565407471656
0.2457931,0.03811012652622782,0.03588276923656238,0.22368827003861494,0.02141415762219812,0.17996851788178753,0.08478361027222905,0.10168986971520107,0.014349121364762765
0.2462586,0.03723760910154001,0.036084846476673836,0.22404077697773805,0.021449703160954695,0.18061026496612478,0.08462781267879466,0.10115000066072369,0.014260166158075635
0.2467241,0.036371586993544675,0.036287549339489494,0.224379350446375,0.021488679794066042,0.18123978861713833,0.08446991373433718,0.10061112436758164,0.014168812440315022
0.2471897,0.035512174062661356,0.036490866739937546,0.22470385906278134,0.021531135515445703,0.181856896331336,0.0843099152414488,0.10007333770452605,0.01407508477775062
0.2476552,0.034659482995215894,0.03669478710352472,0.22501417534198495,0.02157711845146389,0.18246139859000277,0.08414781949184057,0.09953673753456409,0.01397900831145739
0.2481207,0.03381362529290379,0.0368992983676846,0.22531017572373901,0.021626676852060257,0.18305310892110085,0.08398362926513978,0.09900142069899186,0.013880608751532662
0.2485862,0.03297471126258342,0.03710438798346694,0.22559174059920192,0.021679859081623773,0.18363184395980342,0.08381734782751148,0.09846748400145602,0.013779912371336066
0.2490517,0.03214285000639632,0.03731004291756907,0.22585875433633323,0.021736713609640586,0.18419742350764898,0.08364897893010506,0.09793502419204424,0.013676946001753346
0.2495172,0.03131814941221157,0.037516249654710544,0.22611110530399592,0.02179728900111127,0.1847496705903045,0.08347852680732672,0.09740413795140325,0.013571737025485054
0.2499828,0.030500716144390965,0.037722994200352425,0.22634868589475599,0.021861633906738877,0.1852884115139273,0.08330599617493871,0.09687492187488322,0.013464313371361034
0.2504483,0.029690655634872054,0.03793026208376231,0.2265713925463705,0.021929797052889485,0.1858134759201141,0.08313139222798617,0.09634747245670656,0.013354703508681523
0.2509138,0.02888807207456553,0.03813803836142636,0.22677912576195589,0.02200182723132711,0.1863246968394275,0.08295472063855203,0.09582188607415879,0.013242936441585602
0.2513793,0.028093068405063787,0.0383463076208092,0.22697179012883179,0.022077773288725126,0.1868219107434879,0.08277598755334035,0.09529825897179871,0.013129041703447704
0.2518448,0.02730574631065711,0.03855505398446221,0.22714929433603573,0.02215768411595654,0.18730495759561896,0.08259519959108814,0.09477668724568562,0.01301304935130279
0.2523103,0.026526206210653974,0.038764261114480586,0.22731155119050667,0.0222416086371656,0.18777368090003457,0.08241236383980534,0.09425726682762052,0.01289498996030073
0.2527759,0.025754547252001707,0.038973912217309184,0.2274584776319355,0.022329595798623682,0.18822792774955507,0.08222748785384248,0.09374009346939842,0.012774894618190409
0.2532414,0.02499086730220371,0.03918399004889703,0.22758999474627978,0.022421694557372588,0.18866754887184078,0.08204057965078534,0.09322526272706899,0.012652794919834004
0.2537069,0.024235262942529093,0.03939447692019978,0.2277060277779415,0.022517953869658786,0.18909239867413077,0.08185164770817571,0.09271286994520192,0.012528722961751941
0.2541724,0.02348782946151049,0.039605354703029456,0.2278065061406065,0.022618422679162326,0.1895023352864747,0.08166070096005736,0.09220301024115386,0.012402711336698909
0.2546379,0.022748660848725618,0.03981660483625045,0.22789136342674354,0.022723149905024522,0.1898972206034466,0.08146774879334717,0.09169577848933387,0.012274793128271327
0.2551034,0.022017849788857846,0.04002820833232069,0.22796053741576217,0.02283218442967879,0.19027692032432927,0.08127280104403159,0.091191269305464,0.012145001905546642
0.255569,0.02129548765603101,0.04024014578417648,0.22801397008082752,0.02294557508648926,0.1906413039917578,0.08107586799318968,0.09068957703083236,0.01201337171775473
0.2560345,0.020581664508413488,0.04045239737245957,0.22805160759432996,0.02306337064720194,0.19099024502881062,0.08087696036284493,0.0901907957165362,0.011879937088981676
0.2565,0.019876469083086455,0.04066494287308447,0.22807340033200757,0.023185619809213683,0.1913236207745374,0.08067608931164859,0.08969501910771303,0.011744733012906157
0.2569655,0.019179988791171165,0.04087776166514394,0.228079302875722,0.023312371182664028,0.19164131251791464,0.08047326643039793,0.08920234062775713,0.011607794947568586
0.257431,0.018492309713210038,0.04109083273915041,0.2280692740148882,0.02344367327735548,0.19194320553022187,0.08026850373739379,0.08871285336251884,0.011469158810173062
0.2578966,0.017813516594796196,0.04130413470561053,0.22804327674655972,0.023579574489507715,0.19222918909583517,0.08006181367364239,0.08822665004448405,0.01132886097192214
0.2583621,0.017143692842446063,0.04151764580393013,0.22800127827417305,0.023720123088351336,0.19249915654143832,0.07985320909790761,0.08774382303693032,0.011186938252884302
0.2588276,0.016482920519709527,0.04173134391164636,0.2279432500049534,0.023865367202566982,0.19275300526365688,0.07964270328162076,0.087264464318058,0.011043427916894007
0.2592931,0.015831280343512163,0.041945206553983656,0.22786916754598457,0.024015354806575535,0.19299063675512226,0.0794303099036554,0.08678866546509487,0.010898367666484018
0.2597586,0.015188851680723916,0.04215921091373001,0.22777901069894357,0.024170133706685224,0.19321195662897622,0.07921604304497512,0.08631651763837418,0.010751795637849695
0.2602241,0.014555712544948744,0.042373333841429876,0.2276727634535024,0.02432975152710122,0.19341687464182805,0.07899991718316261,0.08584811156538694,0.0106037503958448
0.2606897,0.013931939593529587,0.0425875518658899,0.22755041397939724,0.024494255695803407,0.1936053047151775,0.0787819471868382,0.08538353752480965,0.010454270929008318
0.2611552,0.013317608124763052,0.042801841204993404,0.2274119546171671,0.024663693430297697,0.1937771649553167,0.07856214830997517,0.084922885330509,0.010303396644621656
0.2616207,0.01271279207531812,0.04301617777681918,0.22725738186756356,0.0248381117232462,0.19393237767172378,0.07834053618611914,0.08446624431552553,0.010151167363795541
0.2620862,0.012117564017853156,0.04323053721106023,0.22708669637963447,0.025017557327981367,0.19407086939396032,0.0781171268225176,0.08401370331603782,0.009997623316585847
0.2625517,0.01153199515882552,0.04344489486073742,0.22689990293748397,0.025202076743909077,0.19419257088708372,0.07789193659416582,0.08356535065530865,0.009842805137137485
0.2630172,0.010956155336488126,0.043659225814203034,0.22669701044571125,0.02539171620180559,0.19429741716558632,0.07766498223777403,0.08312127412761453,0.009686753858855469
0.2634828,0.010390113019067358,0.04387350490742898,0.22647803191352942,0.02558652164901332,0.19438534750587172,0.0774362808456608,0.08268156098215947,0.009529510909602128
0.2639483,0.009833935303116924,0.044087706736573924,0.22624298443756363,0.02578653873454024,0.1944563054572808,0.07720584985957707,0.08224629790697423,0.009371118106919412
0.2644138,0.009287687912042177,0.04430180567082384,0.22599188918332788,0.025991812794067988,0.19451023885167934,0.07697370706446474,0.08181557101280165,0.009211617653275177
0.2648793,0.008751435194789565,0.04451577586549999,0.22572477136537739,0.026202388834873594,0.19454709981162013,0.07673987058215392,0.08138946581696929,0.009051052131332239
0.2653448,0.008225240124695825,0.04472959127542827,0.22544166022613504,0.02641831152066999,0.19456684475709268,0.0765043588650025,0.08096806722724964,0.008889464499238948
0.2658103,0.007709164298491572,0.04494322566856367,0.2251425890133896,0.026639625156370483,0.1945694344108734,0.07626719068948153,0.08055145952570823,0.008726898085939936
0.2662759,0.007203267935453923,0.045156652639863286,0.2248275949564649,0.026866373672782537,0.19455483380249014,0.0760283851497103,0.08013972635253946,0.008563396586505614
0.2667414,0.006707609876702872,0.04536984562540101,0.2244967192410593,0.02709860061123637,0.19452301227081403,0.07578796165094441,0.07973295068988978,0.008399004057478994
0.2672069,0.00622224758463619,0.04558277791671677,0.22415000698275492,0.027336349108154086,0.19447394346529323,0.07554593990302054,0.07933121484566796,0.008233764912238263
0.2676724,0.005747237142497729,0.04579542267539278,0.22378750719919516,0.027579661879565145,0.19440760534584106,0.07530233991376122,0.07893460043734198,0.008067723916373571
0.2681379,0.005282633254074144,0.046007752947848854,0.22340927278092895,0.02782858120557429,0.1943239801813913,0.07505718198234301,0.07854318837572175,0.007900926183076388
0.2686034,0.004828489243515143,0.04621974168034897,0.2230153604609202,0.028083148914788112,0.1942230545471332,0.07481048669263117,0.07815705884872709,0.007733417168539781
0.269069,0.004384857055272539,0.04643136173421087,0.2226058307827208,0.028343406368706765,0.1941048193204387,0.07456227490648341,0.07777629130513997,0.007565242667367873
0.2695345,0.003951787254153407,0.046642585901210794,0.2221807480673087,0.028609394446087365,0.19396926967549313,0.0743125677570266,0.07740096443834017,0.007396448807992697
0.27,0.003529329025482746,0.04685338691917556,0.22174018037859586,0.028881153527285933,0.1938164050766436,0.07406138664190984,0.07703115617002322,0.007227082048096667
0.2704655,0.003117530175371041,0.04706373748775432,0.22128419948761555,0.029158723478584815,0.193646229270479,0.07380875321653911,0.07666694363389862,0.0070571891700387905
0.270931,0.002716437131082127,0.04727361028436278,0.22081288083540307,0.02944214363651267,0.19345875027665851,0.07355468938729914,0.07630840315936684,0.006886817276282775
0.2713966,0.002326094941496786,0.04748297798029248,0.22032630349458776,0.029731452792164194,0.19325398037750752,0.07329921730476895,0.07595561025517339,0.006716013784825127
0.2718621,0.0019465472776675058,0.04769181325697813,0.21982455012971622,0.03002668917552691,0.1930319361064015,0.073042359356938,0.07560863959303847,0.006544826424621285
0.2723276,0.0015778364334598988,0.04790008882241581,0.21930770695632962,0.030327890439822355,0.19279263823495918,0.07278413816243,0.07526756499126193,0.006373303231007827
0.2727931,0.0012200033262763045,0.048107777427724985,0.2187758636988192,0.03063509364586895,0.19253611175906574,0.07252457656374121,0.07493245939830326,0.006201492541118675
0.2732586,0.0008730874978571788,0.04831485188384724,0.21822911354708782,0.030948335246474,0.1922623858837473,0.07226369762049961,0.07460339487633709,0.0060294429892932405
0.2737241,0.0005371271151558935,0.04852128507837426,0.2176675531120473,0.03126765107086193,0.19197149400691604,0.07200152460275103,0.07428044258478497,0.005857203502474357
0.2741897,0.00021215897128262483,0.04872704999249795,0.21709128237998426,0.03159307630914587,0.1916634737020062,0.07173808098427777,0.07396367276382472,0.005684823295593872
0.2746552,-0.00010178151348693785,0.0489321197180749,0.21650040466582676,0.03192464549684966,0.19133836669951962,0.07147339043595498,0.07365315471787885,0.005512351866943713
0.2751207,-0.00040466029064226963,0.04913646747479748,0.21589502656534562,0.032262392499486765,0.19099621886749915,0.07120747681914955,0.07334895679908461,0.005339838993530287
0.2755862,-0.0006964446823122078,0.04934006662746334,0.21527525790632215,0.03260635049720291,0.19063708019094658,0.07094036417916585,0.07305114639074885,0.005167334726410065
0.2760517,-0.000977103380086747,0.049542890703334994,0.21464121169871417,0.03295655196948865,0.19026100475020163,0.07067207673874275,0.07275978989079167,0.00499488938600424
0.2765172,-0.0012466064437904685,0.04974491340958116,0.21399300408385236,0.03331302867996821,0.18986805069829754,0.07040263889160543,0.07247495269518361,0.004822553557390368
0.2769828,-0.00150492530021161,0.04994610865079144,0.21333075428269876,0.033675811661270635,0.18945828023730796,0.07013207519607619,0.07219669918138172,0.004650378085568948
0.2774483,-0.0017520327417907431,0.050146450546555595,0.2126545845432011,0.03404493119998948,0.1890317595936997,0.06986041036874775,0.07192509269177,0.004478414070702901
0.2779138,-0.0019879029252729647,0.050345913449098945,0.21196462008677794,0.03442041682173696,0.18858855899270538,0.06958766927822328,0.07166019551711027,0.004306712863327889
0.2783793,-0.0022125113703274023,0.05054447196096487,0.21126098905397162,0.034802297276298584,0.1881287526317278,0.06931387693892688,0.07140206888000868,0.004135326059531419
0.2788448,-0.002425834958137698,0.05074210095273572,0.2105438224493062,0.03519060052289408,0.18765241865278723,0.06903905850498848,0.07115077291840306,0.003964305496098621
0.2793103,-0.0026278519299669585,0.05093877558078297,0.2098132540853892,0.035585353715550425,0.18715963911402134,0.06876323926420717,0.0709063666690758,0.003793703245622618
0.2797759,-0.0028185418857004834,0.05113447130503738,0.209069420526299,0.03598658318859275,0.18665049996024552,0.06848644463209633,0.07066890805119674,0.00362357161157732
0.2802414,-0.002997885782369401,0.05132916390676982,0.20831246103030024,0.036394314442258414,0.1861250909925805,0.06820870014601381,0.07043845384990104,0.0034539631233505017
0.2807069,-0.00316586593265819,0.05152282950637324,0.2075425174919329,0.03680857212843977,0.18558350583715327,0.06793003145938042,0.07021505969990624,0.0032849305312349537
0.2811724,-0.003322466003398947,0.0517154445811362,0.20675973438352144,0.03722938003656062,0.18502584191287585,0.06765046433598915,0.06999878006917383,0.0031165268013755047
0.2816379,-0.003467671014055166,0.05190698598299873,0.20596425869614868,0.0376567610795911,0.18445220039830548,0.06737002464440857,0.06978966824262009,0.0029488051106696727
0.2821034,-0.0036014673351977265,0.05209743095628113,0.20515623988013998,0.03809073728020567,0.18386268619758991,0.06708873835248377,0.06958777630588103,0.002781818841619691
0.282569,-0.003723842686975705,0.052286757155377235,0.20433582978510145,0.03853132975708836,0.18325740790549988,0.06680663152193879,0.06939315512913571,0.0026156215771336393
0.2830345,-0.003834786137584578,0.05247494266240356,0.20350318259955374,0.03897855871138932,0.1826364777715514,0.06652373030308498,0.06920585435099254,0.0024502670952734175
0.2835,-0.003934288101734293,0.05266196600479636,0.2026584547902029,0.039432443413336536,0.18200001166322158,0.06624006092964001,0.06902592236244309,0.002285809363947316
0.2839655,-0.004022340339119594,0.052847806172848726,0.20180180504088838,0.03989300218900649,0.18134812902826067,0.0659556497136619,0.06885340629088893,0.002122302535544953
0.284431,-0.004098935952894899,0.053032442637179544,0.2009333941912482,0.0403602524072573,0.18068095285610453,0.0656705230406023,0.06868835198424718,0.0019598009415123813
0.2848966,-0.004164069388155929,0.0532158553661262,0.20005338517513907,0.04083421046682803,0.1799986096383917,0.06538470736448337,0.06853080399514175,0.0017983590868651987
0.2853621,-0.004217736430430097,0.053398024843052616,0.1991619429588499,0.041314891783607685,0.17930122932858983,0.0650982292032023,0.06838080556518687,0.001638031644637508
0.2858276,-0.004259934204177567,0.05357893208356437,0.19825923447914431,0.04180231077807746,0.1785889453007351,0.06481111513396748,0.06823839860937005,0.001478873450264591
0.2862931,-0.004290661171304732,0.05375855865262211,0.19734542858116835,0.04229648086292999,0.1778618943072905,0.06452339178887093,0.06810362370054132,0.0013209394958971607
0.2867586,-0.004309917129691736,0.05393688668154485,0.19642069595625647,0.04279741443086915,0.17712021643612905,0.0642350858506005,0.06797652005401562,0.0011642849246450782
0.2872241,-0.004317703211735542,0.054113898884894554,0.19548520907966851,0.043305122842594156,0.1763640550666512,0.0639462240482959,0.06785712551229528,0.0010089650247484434
0.2876897,-0.0043140218829099235,0.054289578577233134,0.19453914214828955,0.04381961641497175,0.17559355682504668,0.06365683315355145,0.06774547652992004,0.0008550352236740113
0.2881552,-0.004298876940343663,0.05446390968974312,0.19358267101832322,0.04434090440940042,0.1748088715387169,0.06336693997656848,0.06764160815845285,0.0007025510821349382
0.2886207,-0.0042722735114181344,0.054636876786702836,0.19261597314300863,0.044868995020370374,0.17401015218987528,0.06307657136245966,0.06754555403160979,0.0005515682880319221
0.2890862,-0.00423421805238535,0.05480846508180732,0.19163922751039142,0.04540389536422348,0.17319755486834526,0.06278575418770725,0.06745734635054255,0.00040214265031383975
0.2895517,-0.0041847183470075065,0.05497866045432611,0.19065261458117858,0.04594561146811701,0.17237123872357846,0.06249451535677681,0.06737701586928192,0.0002543300927560194
0.2900172,-0.004123783505218983,0.05514744946508957,0.18965631622670553,0.04649414825919529,0.1715313659159156,0.06220288179888792,0.06730459188035014,0.00010818664765429814
0.2904828,-0.004051423961811716,0.055314819372295716,0.18865051566704452,0.047049509553973023,0.17067810156711274,0.061910880464942974,0.06724010220054993,-3.623155056696876e-05
0.2909483,-0.003967651475144808,0.055480758147130015,0.18763539740928065,0.047611698047934276,0.16981161371015524,0.06161853832461482,0.0671835731569376,-0.0001788682718347684
0.2914138,-0.0038724791258791646,0.05564525448919117,0.1866111471859833,0.04818071530535098,0.16893207323838227,0.061325882363594035,0.06713502957298702,-0.00031966719699695904
0.2918793,-0.003765921315737929,0.05580829784171608,0.18557795189389953,0.04875656174932456,0.16803965385394284,0.061032939580995614,0.06709449475495136,-0.00045857192448323797
0.2923448,-0.0036479937662934015,0.05596987840659749,0.18453599953289548,0.04933923665205394,0.16713453201560413,0.06073973698692493,0.06706199047842887,-0.0005955259770592849
0.2928103,-0.003518713517781111,0.05612998715918843,0.18348547914517124,0.049928738125333154,0.1662168868859336,0.0604463016002021,0.06703753697513873,-0.0007304728086757868
0.2932759,-0.003378098927941659,0.05628861586288746,0.1824265807547734,0.05052506311128113,0.16528690027787524,0.06015266044624334,0.06702115291991274,-0.0008633558114140234
0.2937414,-0.0032261696708909197,0.05644575708349932,0.18135949530742915,0.05112820737330618,0.16434475660074158,0.05985884055509789,0.0670128554179087,-0.0009941183225296742
0.2942069,-0.003062946736019139,0.056601404203365395,0.1802844146107242,0.051738165487307086,0.16339064280564364,0.059564868959638174,0.06701265999205061,-0.0011227036315964902
0.2946724,-0.0028884524269194222,0.056755551435258844,0.17920153127464591,0.05235493083311288,0.1624247483303813,0.05927077269390107,0.06702058057070123,-0.001249054987751458
0.2951379,-0.002702710360346062,0.056908193836038685,0.1781110386525115,0.05297849558616299,0.16144726504381832,0.058976578791577645,0.06703662947557201,-0.0013731156070430639
0.2956034,-0.002505745465203107,0.05705932732005729,0.17701313078230013,0.05360885070942944,0.160458387189766,0.058682314284649005,0.0670608174098752,-0.0014948286798842476
0.296069,-0.0022975839815635364,0.05720894867231581,0.1759080023284075,0.05424598594558258,0.15945831133040134,0.05838800620216598,0.06709315344672302,-0.001614137378611593
0.2965345,-0.0020782534597193598,0.05735705556136203,0.17479584852383875,0.054889889809402126,0.15844723628924517,0.05809368156917083,0.06713364501777817,-0.0017309848651522399
0.297,-0.0018477827592629328,0.05750364655192616,0.17367686511285627,0.05554054958043494,0.15742536309372726,0.057799367405759236,0.06718229790215993,-0.0018453142987998944
0.2974655,-0.0016062020481997345,0.057648721117290865,0.1725512482940972,0.05619795129590128,0.1563928949173652,0.057505090726280905,0.06723911621560959,-0.001957068844101172
0.297931,-0.0013535428020928339,0.05779227965139318,0.17141919466417474,0.05686207974385106,0.15535003702158348,0.057210878538677415,0.06730410239991896,-0.0020661916788533587
0.2983966,-0.001089837803239249,0.057934323480656746,0.17028090116177627,0.05753291845657189,0.15429699669719915,0.05691675784395608,0.06737725721262529,-0.002172626002214523
0.2988621,-0.0008151211398783667,0.05807485487555353,0.1691365650122713,0.058210449704250315,0.1532339832055988,0.056622755635798425,0.06745857971697561,-0.0022763150429267833
0.2993276,-0.0005294282054325724,0.05821387706189445,0.1679863836728397,0.05889465448888825,0.15216120771963296,0.056328898900301946,0.06754806727216361,-0.0023772020676534624
0.2997931,-0.0002327956977801992,0.05835139423184826,0.16683055477812997,0.05958551253847583,0.15107888326425223,0.056035214615853396,0.06764571552384123,-0.002475230389430784
0.3002586,7.473838143913974e-05,0.0584874115546876,0.16566927608645732,0.060283002301422535,0.1499872246569122,0.05574172975313193,0.06775151839490677,-0.0025703433762347197
0.3007241,0.0003931347274868379,0.058621935187261075,0.16450274542654814,0.06098710094124809,0.14888644844777293,0.05544847127524036,0.06786546807657141,-0.002662484459663507
0.3011897,0.0007223527331552858,0.058754972284189716,0.16333116064483882,0.061697784331535,0.14777677285972116,0.05515546613796287,0.0679875550197048,-0.002751597143736282
0.3016552,0.0010623504893657585,0.058886531007785986,0.16215471955333505,0.0624150270511446,0.1466584177282429,0.05486274129014772,0.06811776792646045,-0.0028376250138081598
0.3021207,0.001413084785734532,0.05901662053769308,0.1609736198780375,0.06313880237969856,0.14553160444117438,0.0545703236742134,0.06825609374218101,-0.0029205117456019957
0.3025862,0.0017745111111077173,0.059145251080241996,0.1597880592079398,0.06386908229332812,0.14439655587835806,0.0542782402267768,0.0684025176475835,-0.003000201114356976
0.3030517,0.002146583654065498,0.05927243387752345,0.15859823494460426,0.0646058374606935,0.1432534963512307,0.053986517879401334,0.06855702305122362,-0.0030766370040941006
0.3035172,0.002529255303396662,0.0593981812161717,0.15740434425232055,0.06534903723927572,0.14210265154236953,0.0536951835594629,0.06871959158223896,-0.003149763416998559
0.3039828,0.002922477648544556,0.05952250643585682,0.15620658400885384,0.06609864967194339,0.1409442484450237,0.05340426419113104,0.06889020308337013,-0.003219524482918893
0.3044483,0.0033262009800258292,0.05964542393748174,0.1550051507567886,0.06685464148379677,0.13977851530265772,0.05311378669646266,0.06906883560425857,-0.003285864468982815
0.3049138,0.0037403742898235947,0.059766949191080596,0.15380024065547443,0.06761697807929182,0.1386056815485352,0.052823777996605224,0.06925546539502002,-0.0033487277893293945
0.3053793,0.004164945271756874,0.05988709874341423,0.15259204943358004,0.06838562353964583,0.1374259777453712,0.05253426501310628,0.06945006690009153,-0.003408059014957233
0.3058448,0.0045998603218284735,0.06000589022525905,0.15138077234226183,0.06916054062052732,0.13623963552508156,0.052245274669325825,0.06965261275235006,-0.0034638028836881025
0.3063103,0.0050450645385536905,0.060123342358384756,0.1501666041089532,0.06994169075003122,0.13504688752865782,0.05195683389194775,0.06986307376749973,-0.003515904310245371
0.3067759,0.005500501723272529,0.060239474962216495,0.1489497388917813,0.07072903402694121,0.13384796734619486,0.0516689696125862,0.07008141893872506,-0.003564308396446409
0.3072414,0.005966114380448362,0.06035430896017667,0.14773037023461727,0.07152252921927972,0.1326431094570985,0.05138170876948274,0.07030761543160706,-0.0036089604415080645
0.3077069,0.006441843717956187,0.06046786638570162,0.14650869102276518,0.07232213376314633,0.13143254917049899,0.0510950783092899,0.07054162857929866,-0.0036498059524641747
0.3081724,0.006927629647363853,0.060580170387928026,0.14528489343929601,0.07312780376184443,0.13021652256589494,0.05080910518893654,0.07078342187795682,-0.00368679065469397
0.3086379,0.007423410784209815,0.06069124523704388,0.14405916892203083,0.07393949398529555,0.12899526643405246,0.05052381637757047,0.07103295698242768,-0.0037198605025601304
0.3091034,0.007929124448281158,0.0608011163292987,0.14283170812117726,0.07475715786974022,0.12776901821818287,0.05023923885857332,0.07129019370218184,-0.0037489616901551386
0.309569,0.008444706663895801,0.060909810191667656,0.14160270085762353,0.0755807475177239,0.12653801595542227,0.04995539963164275,0.0715550899974965,-0.0037740406621544873
0.3100345,0.008970092160192983,0.061017354486164035,0.14037233608189276,0.07641021369836623,0.12530249821863515,0.04967232571493646,0.07182760197588138,-0.0037950441247752197
0.3105,0.009505214371436293,0.0611237780137942,0.13914080183376062,0.07724550584791127,0.1240627040585648,0.049390044147272875,0.07210768388874564,-0.0038119190568382116
0.3109655,0.010050005437333618,0.06122911071814903,0.13790828520253795,0.07808657207055607,0.1228188729463521,0.04910858199038263,0.07239528812830381,-0.0038246127209325353
0.311431,0.01060439620337857,0.06133338368862533,0.13667497228801997,0.07893335913955438,0.12157124471644344,0.04882796633120557,0.07269036522471954,-0.0038330726746801875
0.3118966,0.01116831622121802,0.06143662916327057,0.13544104816210314,0.07978581249859219,0.12032005950990829,0.04854822428422781,0.07299286384348712,-0.0038372467820993886
0.3123621,0.011741693749050508,0.06153888053124387,0.13420669683106956,0.08064387626343117,0.11906555771818594,0.048269382993853686,0.0733027307830515,-0.003837083225064585
0.3128276,0.012324455752060379,0.061640172334886195,0.13297210119853894,0.08150749322381574,0.1178079799272798,0.04799146963680768,0.07361991097266829,-0.0038325305148611865
0.3132931,0.012916527902892556,0.06174054027139262,0.131737443029087,0.08237660484563963,0.11654756686241699,0.04771451142456151,0.07394434747050556,-0.0038235375038329997
0.3137586,0.0135178345821729,0.06184002119407947,0.13050290291252906,0.08325115127336694,0.11528455933319035,0.047438535605782046,0.07427598146198958,-0.0038100533971202185
0.3142241,0.014128298879079133,0.06193865311323879,0.12926866022886746,0.0841310713327026,0.11401919817919873,0.04716356946879581,0.07461475225839712,-0.0037920277644857736
0.3146897,0.01474784259196737,0.062036475196572946,0.12803489311390193,0.08501630253350674,0.1127517242162009,0.046889640344066376,0.07496059729569766,-0.0037694105522277383
0.3151552,0.01537638622905919,0.06213352776920191,0.12680177842550197,0.08590678107294661,0.11148237818279709,0.04661677560668086,0.07531345213364983,-0.0037421520951754187
0.3156207,0.016013849009194288,0.06222985231323617,0.12556949171054105,0.08680244183888004,0.11021140068765188,0.04634500267884235,0.07567325045515712,-0.003710203128766654
0.3160862,0.01666014886265362,0.0623254914669093,0.12433820717249187,0.08770321841346398,0.10893903215727115,0.0460743490323649,0.07603992406588889,-0.003673514801203706
0.3165517,0.017315202432058,0.062420489023265434,0.12310809763968132,0.08860904307698209,0.1076655127843447,0.045804842191168316,0.07641340289417312,-0.0036320386856849747
0.3170172,0.017978925073346856,0.06251488992839782,0.12187933453420327,0.08951984681188559,0.1063910824766657,0.04553650973376999,0.07679361499116717,-0.0035857267927096085
0.3174828,0.018651230856841925,0.06260874027923595,0.12065208784148676,0.09043555930704238,0.10511598080663691,0.04526937929577181,0.0771804865313126,-0.003534531582451902
0.3179483,0.019332032568400433,0.06270208732087901,0.11942652608051596,0.09135610896218928,0.10384044696137372,0.045003478572339946,0.07757394181307954,-0.003478405977202226
0.3184138,0.02002124171066229,0.06279497944347388,0.11820281627469886,0.09228142289258329,0.10256471969341276,0.0447388353206758,0.07797390326000576,-0.0034173033738711077
0.3188793,0.020718768504395666,0.06288746617863604,0.11698112392338005,0.09321142693384735,0.1012890372720345,0.044475477362476236,0.07838029142203488,-0.0033511776565529803
0.3193448,0.021424521889945272,0.06297959819541196,0.11576161297399312,0.09414604564700618,0.10001363743520798,0.04421343258638119,0.07879302497715784,-0.0032799832091460535
0.3198103,0.022138409528787685,0.06307142729578248,0.1145444457948479,0.09508520232370787,0.09873875734216493,0.04395272895040685,0.07921202073336114,-0.003203674928024697
0.3202759,0.022860337805198024,0.06316300640970662,0.11332978314854772,0.09602881899162642,0.09746463352661032,0.0436933944843624,0.07963719363088508,-0.0031222082347606836
0.3207414,0.02359021182803234,0.06325438958970629,0.11211778416603252,0.09697681642004091,0.09619150185057525,0.04343545729224879,0.08006845674479456,-0.0030355390888895896
0.3212069,0.024327935432630107,0.06334563200499198,0.1109086063212442,0.09792911412558707,0.09491959745891834,0.043178945554637825,0.08050572128786501,-0.002943624000718611
0.3216724,0.025073411182841194,0.06343678993512973,0.10970240540641155,0.09888563037817748,0.093649154734481,0.0429238875310303,0.08094889661378606,-0.002846420044172016
0.3221379,0.025826540373181866,0.06352792076324966,0.1084993355079527,0.09984628220708724,0.09238040725390168,0.042670311562191615,0.08139789022068702,-0.002743884869670369
0.3226034,0.026587223031124263,0.06361908296879538,0.10729954898299422,0.10081098540720276,0.09111358774409414,0.04241824607246333,0.08185260775498986,-0.0026359767170396325
0.323069,0.027355357919524086,0.06371033611981435,0.1061031964365068,0.10177965454543195,0.08984892803939447,0.04216771957204872,0.0823129530155974,-0.00252265442844613
0.3235345,0.028130842539191032,0.06380174086478821,0.10491042669905806,0.10275220296727469,0.08858665903938161,0.041918760659270825,0.08277882795842785,-0.0024038774613532716
0.324,0.028913573131606758,0.06389335892400226,0.10372138680518334,0.10372854280355297,0.08732701066737561,0.04167139802280057,0.08325013270130757,-0.002279605901495795
