Time,Rectus Femoris right,Rectus Femoris left,Hamstrings right,Hamstrings left,TibilaisÂ Anterior right,TibilaisÂ Anterior left,Gastrocnemius right,Gastrocnemius left
0.0,-0.0008040006469885829,0.0005218958327301494,-0.0001890666722479845,0.0007315599892275687,-0.00204772163474334,0.00041885707284898283,-0.00024833334997209313,-6.902045799845185e-05
0.0004655,-0.0007808640604822988,0.0005278168360167091,-0.00017596687055059356,0.0007413982747259928,-0.0020001515276650414,0.00042444810795640083,-0.00021978764575411884,-6.11434553709551e-05
0.000931,-0.0007577463570634537,0.0005337465053076699,-0.00016288952618970383,0.0007512332527312924,-0.0019525841452129994,0.00043014259029046695,-0.0001912673842362864,-5.323124233247577e-05
0.0013966,-0.0007346496837336655,0.0005396841048215433,-0.00014983639613530542,0.0007610634280654461,-0.0019050246365667775,0.0004359410863415602,-0.0001627767260663614,-4.528425920171627e-05
0.0018621,-0.0007115761625911263,0.0005456288970642358,-0.00013680923058778205,0.0007708873041766137,-0.0018574781321359219,0.0004418441501854976,-0.00013431983015403017,-3.7302947196699556e-05
0.0023276,-0.0006885278899285635,0.0005515801430714996,-0.0001238097724060023,0.0007807033836471827,-0.0018099497419188158,0.00044785232324422473,-0.00010590085235777973,-2.928774828061202e-05
0.0027931,-0.0006655069353426925,0.0005575371026522778,-0.00011083975653900537,0.0007905101687049798,-0.0017624445538772515,0.000453966134045808,-7.752394417420393e-05,-2.1239105010101337e-05
0.0032586,-0.0006425153408557991,0.0005634990346327508,-9.790090946169285e-05,0.0008003061617373541,-0.0017149676323279575,0.0004601860979836673,-4.9193251430877523e-05,-1.3157460386265504e-05
0.0037241,-0.0006195551200500744,0.0005694651971008983,-8.499494861492249e-05,0.0008100898658078356,-0.0016675240163522695,0.00046651271707499485,-2.091291298383227e-05,-5.0432577085621274e-06
0.0041897,-0.0005966282572153093,0.0005754348476513969,-7.212358185038385e-05,0.0008198597851750766,-0.001620118718225077,0.00047294647971831463,7.3129405794397116e-06,3.1030595681386083e-06
0.0046552,-0.0005737367065105386,0.0005814072436306752,-5.928850688061918e-05,0.0008296144258137779,-0.001572756721864124,0.00047948786045014187,3.5480188230630687e-05,1.1281047973140133e-05
0.0051207,-0.000550882391140212,0.0005873816423819503,-4.649141073453429e-05,0.0008393522959373106,-0.0015254429813006843,0.00048613731970070513,6.358471978417362e-05,1.9490264155936977e-05
0.0055862,-0.0005280672025454442,0.0005933573014900673,-3.373396921872663e-05,0.0008490719065217458,-0.0014781824191725803,0.0004928953035486978,9.162243717304542e-05,2.773026501846878e-05
0.0060517,-0.0005052929996108842,0.0005993334790259721,-2.101784638494075e-05,0.0008587717718310092,-0.0014309799252404446,0.0004997622434750303,0.00011958925571621013,3.6000607843432266e-05
0.0065172,-0.00048256160788771933,0.0006053094337906439,-8.344694003947104e-06,0.0008684504099428801,-0.0013838403549280632,0.0005067385561155627,0.0001474811053771443,4.4300850418491025e-05
0.0069828,-0.00045987481883331635,0.0006112844255583211,4.283848953873018e-06,0.0008781063432755492,-0.001336768527887576,0.0005138246430128024,0.00017529393201292973,5.263055115624307e-05
0.0074483,-0.00043723438906797824,0.0006172577153188533,1.6866156830965736e-05,0.0008877380991144507,-0.0012897692265902445,0.0005210208903665555,0.00020302369861343878,6.098926920982625e-05
0.0079138,-0.00041464203964927817,0.0006232285655190074,2.9400617787808404e-05,0.0008973442101390756,-0.0012428471949434256,0.000528327668783526,0.00023066638653017256,6.937656458405981e-05
0.0083793,-0.00039209945536439975,0.0006291962403025615,4.1885634300634555e-05,0.0009069232149494709,-0.0011960071369343298,0.0005357453330258527,0.0002582179966943424,7.77919982420347e-05
0.0088448,-0.00036960828404088944,0.000635160005749017,5.4319623651447785e-05,0.0009164736585921226,-0.0011492537153010745,0.0005432742217585749,0.00028567455082381194,8.62351322070767e-05
0.0093103,-0.0003471701358762001,0.0006411191301107634,6.670101841010235e-05,0.0009259940930849183,-0.001102591550231489,0.0005509146572960217,0.00031303209261854557,9.470552966001601e-05
0.0097759,-0.0003247865827863825,0.000647072884048539,7.902826690823486e-05,0.000935483077940882,-0.0010560252180900785,0.000558666945347116,0.0003402866889442316,0.00010320275503170654
0.0102414,-0.0003024591577742654,0.0006530205408650301,9.129983370483545e-05,0.000944939180690372,-0.0010095592501735153,0.0005665313747595932,0.00036743443100377345,0.00011172637409074613
0.0107069,-0.0002801893543174451,0.0006589613767364603,0.0001035142000432508,0.0009543609774014296,-0.0009631981314949963,0.00057450821726313,0.00039447143549635884,0.00012027595402635506
0.0111724,-0.0002579786257763884,0.0006648946709420107,0.0001156698642994161,0.0009637470531979637,-0.0009169462995977654,0.0005825977272113873,0.00042139384576383516,0.00012885106352637478
0.0116379,-0.0002358283848229318,0.0006708197060909183,0.0001277653424211222,0.0009730960027754488,-0.0008708081433980773,0.0005908001413229716,0.0004481978329241264,0.00013745127285035187
0.0121034,-0.00021374000288943486,0.0006767357683470963,0.0001397991683581332,0.0009824064309138143,-0.0008247880020578591,0.0005991156784213335,0.00047487959699143734,0.00014607615389767493
0.012569,-0.0001917148096388252,0.000682642147651126,0.00015176989448297917,0.0009916769529871995,-0.0007788901638873077,0.0006075445391736383,0.0005014353679829931,0.00015472528027073377
0.0130345,-0.00016975409245574867,0.0006885381379394823,0.0001636760920022554,0.0010009061954702548,-0.0007331188652776444,0.0006160869058286658,0.0005278614070120639,0.00016339822733307184
0.0135,-0.00014785909595901636,0.0006944230373608614,0.00017551635135826498,0.001010092796440669,-0.0006874782896642377,0.0006247429419538197,0.0005541540073670283,0.00017209457226250572
0.0139655,-0.00012603102153551862,0.0007002961484894936,0.00018728928262084834,0.0010192354060776043,-0.0006419725665202844,0.0006335127921713363,0.0005803094955762292,0.000180813894099189
0.014431,-0.00010427102689575777,0.0007061567785353253,0.00019899351586925127,0.0010283326871557159,-0.0005966057703812286,0.0006423965818937993,0.0006063242324583861,0.0001895557737886034
0.0148966,-8.258022565113702e-05,0.0007120042395509577,0.0002106277015638936,0.001037383315534437,-0.0005513819199000743,0.0006513944170590677,0.0006321946141583276,0.00019831979421946683
0.0153621,-6.095968691313391e-05,0.0007178378486352305,0.00022219051090791375,0.0010463859806422039,-0.0005063049769337325,0.0006605063838647276,0.000657917073167819,0.00020710554025655557
0.0158276,-3.941043491448071e-05,0.0007236569281333389,0.00023368063619837412,0.001055339385955303,-0.0004613788456605208,0.0006697325485021781,0.0006834880793312583,0.000215912598768443
0.0162931,-1.793344865246882e-05,0.0007294608058333759,0.00024509679116702153,0.001064242249471008,-0.00041660737172891977,0.0006790729568904631,0.0007089041408360186,0.00022474055865016215
0.0167586,3.4703384455128497e-06,0.0007352488151592022,0.00025643771131050283,0.0010730933041746776,-0.00037199434143768255,0.000688527634409961,0.0007341618051872163,0.0002335890108408049
0.0172241,2.480003883410743e-05,0.0007410202953595477,0.00026770215420994536,0.001081891298500478,-0.00032754348094737694,0.0006980965856360417,0.0007592576601666847,0.0002424575483360756
0.0176897,4.605481113970391e-05,0.0007467745916932528,0.00027888889983982486,0.0010906349967853913,-0.0002832584555234331,0.000707779794072806,0.0007841883347759441,0.00025134576619582075
0.0181552,6.723386042766755e-05,0.0007525110556105617,0.00028999675086605834,0.0010993231797161737,-0.00023914286881075082,0.0007175772218870267,0.0008089505001629591,0.00026025326154655915
0.0186207,8.833643844703403e-05,0.0007582290449303789,0.0003010245329332751,0.0011079546447689333,-0.0001952002621399068,0.0007274888096424229,0.000833540870532482,0.0002691796335790394
0.0190862,0.00010936184385262735,0.0007639279240134023,0.0003119710949412308,0.0011165282066410021,-0.00015143411386498766,0.0007375144760344111,0.0008579562040397751,0.00027812448354085415
0.0195517,0.00013030942240457332,0.0007696070639310501,0.0003228353093103369,0.0011250426976747942,-0.00010784783873306384,0.0007476541176254972,0.0008821933036675113,0.0002870874147241451
0.0200172,0.00015117856714519124,0.0007752658426301082,0.0003336160722362802,0.0011334969682733488,-6.444478728531144e-05,0.0007579076085814834,0.0009062490180856426,0.00029606803244843676
0.0204828,0.0001719687185532574,0.0007809036450930362,0.0003443123039337096,0.0011418898873072718,-2.1228245289784334e-05,0.0007682748004086916,0.0009301202424940368,0.0003050659440386405
0.0209483,0.00019267936467564397,0.0007865198634938716,0.00035492294886896894,0.0011502203425127824,2.1798566794164802e-05,0.0007787555216924189,0.00095380391944767,0.0003140807587982732
0.0214138,0.0002133100412363468,0.0007921138973496967,0.00036544697598186164,0.0011584872408805823,6.463249431981836e-05,0.0007893495778368592,0.00097729703966417,0.00032311208797793745
0.0218793,0.00023386033172292776,0.000797685153667636,0.0003758833788964461,0.001166689509035265,0.00010727044892538803,0.0008000567508067266,0.0010005966428134974,0.0003321595447391128
0.0223448,0.0002543298674504074,0.0008032330470873613,0.0003862311761208724,0.0011748260936049865,0.00014970940897467556,0.0008108767988708237,0.0010236998182895584,0.0003412227441133096
0.0228103,0.0002747183276026533,0.0008087570000190808,0.00039648941123628437,0.001182895961581125,0.00019194641996610735,0.000821809456347792,0.0010466037059635436,0.00035030130295664303
0.0232759,0.0002950254392513149,0.0008142564427769942,0.0004066571530748189,0.0011908981006676542,0.0002339785949101531,0.0008328544333542846,0.0010693054969188008,0.0003593948398998883
0.0237414,0.00031525097735235957,0.0008197308137081927,0.00041673349588674207,0.0011988315196199766,0.00027580311467514376,0.0008440114155557942,0.0010918024341670615,0.0003685029752940832
0.0242069,0.00033539476472027217,0.0008251795593169788,0.0004267175594967657,0.0012066952485729578,0.0003174172283015096,0.0008552800639203689,0.0011140918133458624,0.0003776253311517456
0.0246724,0.00035545667197998395,0.0008306021343845813,0.0004366084894495934,0.0012144883393579158,0.0003588182532844682,0.0008666600144754476,0.0011361709833970254,0.0003867615310837812
0.0251379,0.0003754366174966082,0.0008359980020842488,0.00044640545714474527,0.0012222098658083254,0.00040000357582519873,0.000878150878068045,0.0011580373472260778,0.00039591120023215967
0.0256034,0.0003953345672830689,0.0008413666340917062,0.0004561076599607154,0.0012298589240540012,0.00044097065105054534,0.0008897522401285283,0.001179688362342517,0.00040507396519844183
0.026069,0.0004151505348857157,0.0008467075106909733,0.00046571432136851025,0.0012374346328035324,0.00048171700320130277,0.0009014636604382329,0.0012011215414808273,0.00041424945396824396
0.0265345,0.000434884581248025,0.0008520201208755611,0.0004752246910346207,0.0012449361336147532,0.0005222402257891489,0.0009132846729011736,0.0012223344532021668,0.0004234372958317296
0.027,0.00045453681455249193,0.0008573039624450678,0.0004846380449134732,0.0012523625911530366,0.0005625379817223039,0.0009252147853201162,0.0012433247224766522,0.00043263712130022045
0.0274655,0.00047410739004082747,0.0008625585420972123,0.000493953685329406,0.0012597131934372157,0.0006026080034000112,0.0009372534791772712,0.001264090031246175,0.00044184856201901943
0.027931,0.0004935965098125801,0.000867783375515349,0.0005031709410482133,0.0012669871520729534,0.0006424480927759461,0.0009494002094198739,0.0012846281189677028,0.00045107125067654413
0.0283966,0.0005130044226023102,0.0008729779874515171,0.000512289167338302,0.0012741837024734073,0.0006820561213906739,0.000961654404250913,0.0013049367831370331,0.0004603048209098733
0.0288621,0.0005323314235354513,0.0008781419118050815,0.000521307746021507,0.0012813021040670514,0.0007214300303732842,0.0009740154649252665,0.0013250138797929745,0.0004695489072068126
0.0293276,0.0005515778538629981,0.0008832746916970255,0.0005302260855136103,0.0012883416404925456,0.0007605678304123477,0.0009864827655515051,0.0013448573240019272,0.0004788031448045919
0.0297931,0.0005707441006751678,0.0008883758795399564,0.0005390436208546169,0.0012953016197805541,0.0007994676016963517,0.000999055652899616,0.0013644650903228328,0.00048806716958530653
0.0302586,0.0005898305965941872,0.0008934450371038788,0.0005477598137288386,0.0013021813745224312,0.0008381274938237853,0.001011733446214902,0.0013838352132524514,0.000497340617968218
0.0307241,0.0006088378194463618,0.0008984817355777877,0.0005563741524748456,0.0013089802620256982,0.0008765457256830593,0.0010245154370382983,0.0014029657876509225,0.0005066231267990352
0.0311897,0.0006277662919135909,0.0009034855556271301,0.0005648861520853541,0.0013156976644562407,0.0009147205853024509,0.0010374008890333506,0.0014218549691475534,0.0005159143332363015
0.0316552,0.0006466165811644946,0.0009084560874471755,0.0005732953541971302,0.001322332988967168,0.0009526504296702698,0.001050389037820088,0.0014405009745267713,0.0005252138746350219
0.0321207,0.0006653892984653201,0.000913392930812333,0.0005816013270709991,0.0013288856678142892,0.00099033368452546,0.001063479090816021,0.0014589020820941617,0.0005345213884276708
0.0325862,0.0006840850987707978,0.0009182956951214496,0.0005898036655620562,0.0013353551584581898,0.0010277688441188673,0.001076670227084487,0.0014770566320225066,0.0005438365120027271
0.0330517,0.000702704680295119,0.0009231639994391154,0.0005979019910801807,0.0013417409436529294,0.0010649544709454535,0.0010899615971905674,0.0014949630266777299,0.000553158882580887
0.0335172,0.0007212487840632087,0.0009279974725330028,0.0006058959515409532,0.0013480425315214185,0.0011018891954477706,0.001103352323064787,0.001512619730924636,0.0005624881370891085
0.0339828,0.0007397181934424812,0.0009327957529072623,0.0006137852213070806,0.001354259455617575,0.0011385717156910738,0.0011168414978748094,0.0015300252724123244,0.0005718239120326434
0.0344483,0.0007581137336552694,0.0009375584888319994,0.0006215695011204378,0.0013603912749753954,0.0011750007970104987,0.0011304281859053345,0.0015471782418391554,0.0005811658433652096
0.0349138,0.0007764362712721305,0.0009422853383688589,0.0006292485180248371,0.0013664375741451098,0.0012111752716307735,0.001144111422446402,0.001564077293197131,0.0005905135663574663
0.0353793,0.0007946867136862326,0.0009469759693927495,0.0006368220252796425,0.0013723979632166146,0.0012470940382589828,0.0011578902136903082,0.001580721143995553,0.0005998667154639481
0.0358448,0.000812866008569032,0.0009516300596097478,0.0006442898022643481,0.0013782720778303906,0.0012827560616509284,0.0011717635366373335,0.0015971085754638145,0.0006092249241886209
0.0363103,0.0008309751433074608,0.0009562472965712221,0.0006516516543742457,0.0013840595791761235,0.0013181603721516622,0.0011857303390104873,0.0016132384327331767,0.0006185878249492269
0.0367759,0.0008490151444228453,0.0009608273776842225,0.0006589074129073086,0.0013897601539792429,0.0013533060652107928,0.0011997895391794734,0.0016291096249973845,0.0006279550489405798
0.0372414,0.0008669870769717866,0.000965370010218181,0.0006660569349424205,0.001395373514475602,0.0013881923008731696,0.0012139400260940787,0.0016447211256519667,0.0006373262259969812
0.0377069,0.0008848920439292394,0.000969874911307979,0.0006731001032090782,0.0014008993983745171,0.0014228183032455601,0.0012281806592271927,0.0016600719724120731,0.0006467009844539193
0.0381724,0.0009027311855540254,0.0009743418079534391,0.0006800368259486966,0.0014063375688103876,0.0014571833599399343,0.0012425102685276646,0.0016751612674086975,0.0006560789510092182
0.0386379,0.0009205056787370295,0.0009787704370153192,0.0006868670367676446,0.001411687814283111,0.0014912868214939762,0.0012569276543832049,0.001689988177263139,0.0006654597505838049
0.0391034,0.000938216736332333,0.000983160545207889,0.0006935906944821443,0.0014169499485875098,0.0015251281007694505,0.0012714315875935504,0.0017045519331395549,0.0006748430061822591
0.039569,0.0009558656064715446,0.0009875118890881828,0.000700207782955166,0.0014221238107319694,0.0015587066723290468,0.0012860208093541073,0.001718851830775466,0.0006842283387533123
0.0400345,0.0009734535718616066,0.0009918242350420222,0.0007067183109254624,0.0014272092648464929,0.0015920220717923262,0.0013006940312502875,0.0017328872304900695,0.0006936153670504576
0.0405,0.0009909819490663524,0.000996097359266908,0.0007131223118288987,0.001432206200080375,0.0016250738951713963,0.0013154499352627449,0.0017466575571702286,0.0007030037074928321
0.0409655,0.001008452087772117,0.0010003310477518703,0.0007194198436122375,0.0014371145304897044,0.0016578617981869268,0.0013302871737837117,0.0017601623002339983,0.0007123929740265343
0.041431,0.001025865370037705,0.0010045250962543747,0.0007256109885395487,0.0014419341949149097,0.001690385495565129,0.001345204369644629,0.0017734010135715618,0.0007217827779865365
0.0418966,0.0010432232095290382,0.001008679310274381,0.0007316958529914123,0.0014466651568485617,0.0017226447603163036,0.001360200116155259,0.001786373315463445,0.0007311727279593539
0.0423621,0.0010605270507388106,0.0010127935050256575,0.0007376745672570778,0.0014513074042936528,0.0017546394229955714,0.001375272977154462,0.001799078888475889,0.0007405624296466273
0.0428276,0.0010777783681914896,0.0010168675054044556,0.0007435472853197509,0.0014558609496125603,0.0017863693709464015,0.0013904214870728167,0.0018115174793332735,0.0007499514857297768
0.0432931,0.0010949786656340099,0.0010209011459556448,0.000749314184635173,0.0014603258293668985,0.001817834547527552,0.0014056441510072672,0.0018236888987675044,0.0007593394957358777
0.0437586,0.0011121294752125066,0.0010248942708364066,0.0007549754659036627,0.0014647021041484622,0.0018490349513240404,0.001420939444807966,0.0018355930213443015,0.0007687260559049073
0.0442241,0.0011292323566354386,0.001028846733777581,0.00076053135283579,0.0014689898584014664,0.0018799706353427469,0.0014363058151774925,0.001847229785266352,0.00077811075905851
0.0446897,0.0011462888963234452,0.0010327583980427578,0.0007659820919118523,0.0014731892002362939,0.0019106417061932558,0.001451741679782622,0.0018585991921533222,0.0007874931944704218
0.0451552,0.001163300706546279,0.001036629136385202,0.0007713279521353185,0.0014773002612349963,0.0019410483232545277,0.0014672454273788216,0.0018697013067987375,0.0007968729477386881
0.0456207,0.0011802694245471456,0.0010404588310026987,0.0007765692247804077,0.0014813231962488038,0.001971190697827993,0.0014828154179476595,0.0018805362569037777,0.0008062496006598104
0.0460862,0.0011971967116547835,0.0010442473734904,0.0007817062231339664,0.00148525818318793,0.0020010690922776576,0.0014984499828473038,0.0018911042327880378,0.0008156227311049484
0.0465517,0.001214084252383614,0.0010479946647917538,0.0007867392822318087,0.00148910542280397,0.002030683819157804,0.001514147424976281,0.0019014054870773128,0.0008249919128983041
0.0470172,0.0012309337535222824,0.0010517006151475837,0.0007916687585896824,0.0014928651384651915,0.0020600352403288666,0.0015299060189506702,0.001911440334368478,0.0008343567156978154
0.0474828,0.0012477469432109155,0.0010553651440433878,0.0007964950299290261,0.001496537575925019,0.0020891237660620515,0.0015457240112948857,0.0019212091508715378,0.0008437167048782807
0.0479483,0.001264525570007412,0.001058988180154913,0.0008012184948976815,0.0015001230030839941,0.0021179498541332585,0.001561599620646204,0.0019307123740289248,0.0008530714414170386
0.0484138,0.0012812714019430765,0.0010625696612920593,0.000805839572785729,0.0015036217097454934,0.0021465140089068665,0.0015775310379731787,0.0019399505021121335,0.0008624204817823245
0.0488793,0.0012979862255679054,0.0010661095343411614,0.0008103587032366106,0.001507034007365465,0.0021748167804099237,0.0015935164268080883,0.001948924093795788,0.0008717633778244234
0.0493448,0.0013146718449858334,0.0010696077552056992,0.0008147763459536985,0.0015103602287964415,0.0022028587633972987,0.0016095539234935552,0.001957633767709249,0.0008810996766697367
0.0498103,0.001331330080880256,0.0010730642887454894,0.0008190929804024708,0.001513600728026064,0.002230640596408334,0.0016256416374434643,0.001966080201965872,0.000890428920617878
0.0502759,0.0013479627695301515,0.0010764791087144096,0.0008233091055084395,0.001516755879910352,0.002258162960815569,0.0016417776514183104,0.001974264133670057,0.000899750647041913
0.0507414,0.0013645717618171432,0.001079852197696709,0.0008274252393509801,0.001519826079901931,0.0022854265798660997,0.0016579600218150903,0.0019821863584022427,0.0009090643882918494
0.0512069,0.0013811589222238539,0.001083183547041958,0.0008314419188532047,0.001522811743773426,0.0023124322177161833,0.0016741867789718467,0.0019898477296820287,0.0009183696716014793
0.0516724,0.001397726127823919,0.0010864731567986935,0.0008353596994680178,0.001525713307336213,0.002339180678459701,0.0016904559274869822,0.0019972491584096534,0.0009276660189986737
0.0521379,0.0014142752672640473,0.0010897210356468079,0.0008391791548605025,0.001528531226154708,0.002365672805151127,0.0017067654465534481,0.0020043916122861015,0.0009369529472192168
0.0526034,0.0014308082397385432,0.0010929272008287437,0.0008429008765867847,0.0015312659752563735,0.002391909478823659,0.0017231132903079084,0.0020112761152121738,0.000946229967624273
0.053069,0.00144732695395672,0.0010960916780795385,0.0008465254737695385,0.0015339180488376152,0.002417891617503181,0.0017394973881949673,0.0020179037466669107,0.0009554965861215668
0.0535345,0.0014638333271036728,0.00109921450155576,0.0008500535727702936,0.0015364879599657321,0.0024436201752187216,0.001755915645346541,0.0020242756410658075,0.0009647523030903612
0.054,0.0014803292837948913,0.001102295713763371,0.0008534858168587178,0.0015389762402770845,0.002469096141010076,0.0017723659429764553,0.0020303929870992914,0.0009739966133103142
0.0544655,0.001496816755025213,0.0011053353654845502,0.0008568228658790427,0.0015413834396716304,0.0024943205379332656,0.0017888461387903355,0.0020362570270519528,0.0009832290058942935
0.054931,0.0015132976771126269,0.0011083335157034966,0.0008600653959138106,0.0015437101260039777,0.0025192944220645,0.0018053540674108624,0.002041869056103047,0.0009924489642252322
0.0553966,0.0015297739906374346,0.0011112902315312343,0.0008632140989451209,0.0015459568847710774,0.002544018881503338,0.0018218875408184427,0.0020472304216088053,0.0010016559658971064
0.0558621,0.001546247639377273,0.0011142055881294376,0.0008662696825135567,0.0015481243187966778,0.002568495035375733,0.0018384443488073466,0.002052342522367136,0.0010108494826601131
0.0563276,0.001562720569238499,0.0011170796686332924,0.0008692328693749725,0.0015502130479126469,0.002592724032837686,0.0018550222594573426,0.0020572068078653313,0.001020028980370126
0.0567931,0.0015791947271844291,0.0011199125640734076,0.0008721043971553267,0.0015522237086372556,0.0026167070520802345,0.0018716190196208461,0.0020618247775114084,0.0010291939189425022
0.0572586,0.0015956720601609162,0.0011227043732967984,0.0008748850180037327,0.0015541569538505052,0.0026404452993365095,0.0018882323554255816,0.0020661979798497453,0.0010383437523103101
0.0577241,0.0016121545140197445,0.0011254552028869597,0.0008775754982439057,0.0015560134524665674,0.0026639400078915993,0.001904859972792753,0.00207032801176166,0.0010474779283870489
0.0581897,0.0016286440324403135,0.0011281651670830499,0.000880176618024175,0.0015577938891034146,0.002687192437095934,0.0019214995579706906,0.0020742165176515868,0.0010565958890339218
0.0586552,0.0016451425558500897,0.0011308343876982113,0.000882689170966231,0.0015594989637497086,0.0027102038713828942,0.001938148778083938,0.0020778651886194993,0.0010656970700317326
0.0591207,0.001661652020344302,0.0011334629940370489,0.0008851139638127698,0.0015611293914290292,0.0027329756192913356,0.001954805281697727,0.00208127576162023,0.0010747809010574598
0.0595862,0.0016781743566053626,0.001136051122812291,0.0008874518160742,0.0015626859018615302,0.002755509012493709,0.0019714666993977743,0.0020844500186103297,0.0010838468056655665
0.0600517,0.0016947114888225014,0.0011385989180606488,0.0008897035596745649,0.0015641692391231306,0.002777805404830467,0.001988130644385318,0.002087389785683115,0.001092894201274089
0.0605172,0.0017112653336120995,0.0011411065310578889,0.0008918700385968367,0.001565580161302358,0.0027998661713514333,0.0020047947130873095,0.0020900969321925437,0.001101922499155548
0.0609828,0.0017278377989392107,0.001143574120233133,0.0008939521085277297,0.0015669194401549736,0.0028216927073648145,0.002021456485781649,0.0020925733698665466,0.001110931104432713
0.0614483,0.0017444307830407656,0.0011460018510823875,0.0008959506365021779,0.0015681878607565038,0.0028432864274945398,0.00203811352723735,0.0020948210519104427,0.0011199194160792518
0.0619138,0.0017610461733509617,0.0011483898960813054,0.0008978665005476216,0.0015693862211528088,0.002864648764746588,0.002054763387369506,0.002096841972101038,0.0011288868269252793
0.0623793,0.0017776858454293435,0.0011507384345971802,0.000899700589328243,0.001570515332008808,0.002885781169584955,0.0020714036019089067,0.002098638163872001,0.0011378327236678204
0.0628448,0.001794351661892098,0.0011530476528001684,0.0009014538017892879,0.001571576016255481,0.0029066851090178993,0.0020880316930861433,0.002100211699391091,0.001146756486886192
0.0633103,0.001811045471347086,0.0011553177435737444,0.000903127046801606,0.0015725691087352524,0.002927362065695111,0.002104645170330039,0.002101564688629798,0.0011556574910623037
0.0637759,0.0018277691073331425,0.001157548906424391,0.0009047212428065408,0.0015734954558458642,0.002947813537016409,0.0021212415309802045,0.002102699278425944,0.001164535104605872
0.0642414,0.0018445243872641799,0.0011597413473905405,0.0009062373174612891,0.0015743559151828311,0.002968041034252581,0.0021378182610135195,0.0021036176515397812,0.0011733886898845423
0.0647069,0.0018613131113786325,0.001161895278950779,0.0009076762072848542,0.0015751513551805624,0.0029880460816789573,0.0021543728357843244,0.0021043220257041004,0.0011822176032589018
0.0651724,0.0018781370616947819,0.0011640109199313347,0.0009090388573047098,0.0015758826547522308,0.003007830215722291,0.0021709027207780854,0.0021048146526688677,0.0011910211951223714
0.0656379,0.0018949980009724974,0.001166088495412867,0.0009103262207042939,0.0015765507029284781,0.003027394984121514,0.002187405372378284,0.002105097817240877,0.001199798809945957
0.0661034,0.0019118976716819172,0.0011681282366365691,0.0009115392584714532,0.0015771563984950476,0.0030467419451028982,0.0022038782386462658,0.0021051738363189075,0.0012085497863278374
0.066569,0.0019288377949795883,0.0011701303809095998,0.0009126789390479613,0.0015777006496294546,0.0030658726665701557,0.0022203187601137816,0.0021050450579248453,0.0012172734570477703
0.0670345,0.0019458200696925805,0.0011720951715098495,0.000913746237980242,0.001578184373536822,0.0030847887253099508,0.0022367243705879317,0.002104713860231231,0.0012259691491262972
0.0675,0.00196284617131107,0.0011740228575900472,0.0009147421375714254,0.00157860849608503,0.0031034917062133056,0.002253092497968225,0.002104182650585672,0.0012346361838887299
0.0679655,0.0019799177509898865,0.0011759136940812068,0.0009156676265348716,0.0015789739514393475,0.00312198320151334,0.002269420565075457,0.002103453864532557,0.0012432738770339063
0.068431,0.001997036434559504,0.001177767941595412,0.0009165236996492895,0.0015792816816967072,0.003140264810039755,0.0022857059904920905,0.0021025299648325005,0.0012518815387076911
0.0688966,0.0020142038215469477,0.0011795858663279334,0.0009173113574155802,0.0015795326365198113,0.003158338136490452,0.0023019461894138106,0.00210141344047994,0.0012604584735811995
0.0693621,0.0020314214842071026,0.001181367739958673,0.0009180316057155381,0.0015797277727712293,0.003176204790720651,0.002318138574511914,0.002100106805719286,0.0012690039809337115
0.0698276,0.0020486909665649094,0.0011831138395529371,0.0009186854554725363,0.0015798680541476544,0.0031938663870498415,0.0023342805568061617,0.0020986125990600218,0.0012775173547402423
0.0702931,0.0020660137834689436,0.0011848244474615497,0.000919273922314322,0.0015799544508144614,0.003211324543586879,0.0023503695465477187,0.002096933382291132,0.0012859978837637216
0.0707586,0.0020833914196568886,0.001186499851220323,0.0009197980262380482,0.001579987939040712,0.0032285808815735112,0.0023664029541117875,0.0020950717394952172,0.0012944448516517403
0.0712241,0.0021008253288334116,0.0011881403434489146,0.0009202587912776629,0.0015799695008347446,0.003245637024746584,0.0023823781908995255,0.0020930302760626563,0.0013028575370378174
0.0716897,0.0021183169327609473,0.0011897462217490915,0.0009206572451737738,0.0015799001235804917,0.003262494598719166,0.002398292670248832,0.002090811617706145,0.0013112352136471453
0.0721552,0.002135867620363904,0.0011913177886024346,0.0009209944190461047,0.0015797807996746692,0.0032791552303808066,0.0024141438083535643,0.0020884184094759587,0.0013195771504067788
0.0726207,0.002153478746846779,0.0011928553512675075,0.000921271347068663,0.001579612526164992,0.00329562054731711,0.0024299290251907526,0.002085853314776272,0.0013278826115602342
0.0730862,0.002171151632826681,0.001194359221676523,0.000921489066147733,0.0015793963043895722,0.0033118921772487915,0.0024456457454553517,0.0020831190143828725,0.0013361508567864674
0.0735517,0.002188887563480729,0.0011958297163315364,0.0009216486156028125,0.0015791331396176542,0.0033279717474903655,0.0024612913995020794,0.002080218205462595,0.0013443811413231933
0.0740172,0.002206687787708812,0.0011972671562002059,0.0009217510368506038,0.001578824040691842,0.00334386088442858,0.0024768634242938814,0.0020771536005947926,0.0013525727160945047
0.0744828,0.0022245535173121534,0.0011986718666111445,0.0009217973730921701,0.0015784700196719646,0.0033595612130207044,0.002492359264356573,0.002073927926795166,0.001360724827842757
0.0749483,0.0022424859261881407,0.0012000441771489025,0.0009217886690033653,0.001578072091480725,0.003375074356312766,0.0025077763727391995,0.002070543924542235,0.0013688367192646802
0.0754138,0.0022604861495418454,0.001201384421548598,0.0009217259704286354,0.0015776312735512753,0.0033904019349778177,0.0025231122119796596,0.0020670043468067533,0.0013769076291516799
0.0758793,0.00227855528311466,0.0012026929375902231,0.0009216103240782901,0.0015771485854768547,0.0034055455668743073,0.0025383642550751238,0.002063311958084334,0.0013849367925343043
0.0763448,0.0022966943824304677,0.0012039700669926434,0.0009214427772293313,0.0015766250486626146,0.0034205068666246126,0.0025535299864567792,0.0020594695334315754,0.0013929234408308591
0.0768103,0.002314904462059755,0.0012052161553073066,0.0009212243774299265,0.0015760616859797538,0.0034352874452138102,0.0025686069029684303,0.0020554798575059684,0.0014008668020001457
0.0772759,0.0023331864949020713,0.0012064315518116766,0.000920956172207602,0.0015754595214220748,0.00344988890960873,0.0025835925148484673,0.002051345723609896,0.0014087661006983024
0.0777414,0.0023515414114872323,0.0012076166094024021,0.0009206392087812271,0.0015748195797650744,0.0034643128623973287,0.002598484346714717,0.00204706993273906,0.0014166205584397221
0.0782069,0.0023699700992956723,0.0012087716844882224,0.0009202745337768567,0.0015741428862276656,0.003478560901448439,0.0026132799385516618,0.0020426552926356917,0.0014244293937620124
0.0786724,0.0023884734020983294,0.001209897136882616,0.0009198631929474905,0.001573430466136631,0.0034926346195919317,0.002627976846699506,0.002038104616846925,0.0014321918223949614
0.0791379,0.0024070521193164432,0.0012109933296961994,0.0009194062308968036,0.0015726833445938952,0.0035065356043193626,0.00264257264484455,0.0020334207237887123,0.0014399070574334697
0.0796034,0.0024257070054016453,0.0012120606292288889,0.000918904690806904,0.0015719025461466943,0.0035202654375051704,0.0026570649250103116,0.002028606435815671,0.0014475743095144127
0.080069,0.0024444387692367066,0.0012130994048618483,0.0009183596141701698,0.0015710890944607198,0.003533825695148518,0.0026714512985488302,0.002023664578297225,0.0014551927869973834
0.0805345,0.0024632480735573103,0.0012141100289492464,0.0009177720405252286,0.0015702440119962952,0.003547217947135848,0.0026857293971315793,0.0020185979787004176,0.0014627616961492736
0.081,0.0024821355343951973,0.0012150928767098565,0.0009171430071971354,0.001569368319687647,0.0035604437570242163,0.0026998968737393875,0.002013409465679747,0.0014702802413326399
0.0814655,0.0025011017205430297,0.0012160483261185252,0.000916473549041806,0.001568463036625316,0.003573504681845457,0.002713951403650767,0.0020081018681743657,0.001477747625197801
0.081931,0.002520147153041315,0.0012169767577975424,0.0009157646981947609,0.001567529179741746,0.003586402271931219,0.0027278906854280452,0.002002678014512979,0.0014851630488786195
0.0823966,0.002539272304687705,0.0012178785549079492,0.0009150174838242299,0.0015665677635000894,0.0035991380707588983,0.002741712441900667,0.001997140731526757,0.0014925257121919124
0.0828621,0.002558477599568998,0.0012187541030408162,0.0009142329318886608,0.0015655797995862508,0.0036117136148184916,0.0027554144211450167,0.0019914928436705753,0.0014998348138404402
0.0833276,0.002577763412616122,0.0012196037901085243,0.0009134120648986765,0.0015645662966041842,0.0036241304335003503,0.002768994397460099,0.001985737172152888,0.0015070895516194206
0.0837931,0.002597130069182395,0.0012204280062360698,0.0009125559016835176,0.0015635282597744574,0.0036363900490038255,0.0027824501723383854,0.0019798765340745344,0.0015142891226265075
0.0842586,0.002616577844645317,0.00122122714365242,0.0009116654571620128,0.0015624666906360796,0.0036484939762667533,0.0027957795754311337,0.001973913741576787,0.0015214327234751661
0.0847241,0.0026361069640321454,0.001222001596581941,0.0009107417421181121,0.001561382586751591,0.0036604437229157244,0.0028089804655074455,0.001967851600998942,0.0015285195505113718
0.0851897,0.002655717601669496,0.001222751761135933,0.0009097857629810117,0.0015602769414154092,0.003672240789237057,0.002822050731406337,0.0019616929120457585,0.0015355488000335562
0.0856552,0.002675409880857204,0.0012234780352043024,0.000908798521609902,0.0015591507433654413,0.003683886668168374,0.0028349882929810458,0.001955440466965034,0.0015425196685157267
0.0861207,0.0026951838735666616,0.0012241808183474214,0.0009077810150833693,0.0015580049764979769,0.003695382845310688,0.002847791102034792,0.0019490970497356031,0.0015494313528336859
0.0865862,0.002715039600163848,0.00122486051168821,0.000906734235493478,0.0015568406195858868,0.003706730798960857,0.0028604571432471883,0.0019426654352660251,0.001556283050494284
0.0870517,0.002734977029157262,0.0012255175178044907,0.0009056591697445679,0.001555658646000163,0.003717932000164271,0.0028729844350904635,0.0019361483886042182,0.001563073959867631
0.0875172,0.0027549960769709466,0.0012261522406216531,0.0009045567993567939,0.0015544600234348436,0.00372898791278762,0.0028853710307346512,0.0019295486641582886,0.0015698032804221966
0.0879828,0.002775096607742799,0.0012267650853056682,0.0009034281002744399,0.0015532457136353695,0.003739899993611583,0.0028976150189408585,0.0019228690049288004,0.0015764702129627153
0.0884483,0.0027952784331483414,0.0012273564581564839,0.0009022740426790325,0.0015520166721304316,0.003750669692443266,0.002909714524941709,0.001916112141752715,0.001583073959870805
0.0889138,0.0028155413122501268,0.0012279267665018258,0.0009010955908072866,0.0015507738479673616,0.003761298452248208,0.002921667711308031,0.0019092807925592287,0.0015896137253481944
0.0893793,0.002835884951372947,0.001228476418591431,0.0008998937027739064,0.0015495181834511305,0.0037717877093017514,0.002933472778800845,0.0019023776616377216,0.0015960887156624614
0.0898448,0.0028563090040049834,0.0012290058234917293,0.0008986693303992667,0.0015482506138870175,0.003782138893359563,0.0029451279672076647,0.0018954054389180176,0.001602498139395164
0.0903103,0.002876813070725047,0.001229515390980995,0.0008974234190419884,0.0015469720673270068,0.00379235342784707,0.0029566315561621323,0.0018883667992631494,0.0016088412076922535
0.0907759,0.0028973966991560226,0.0012300055314449973,0.0008961569074364186,0.0015456834643199915,0.0038024327300675495,0.0029679818659459675,0.0018812644017748151,0.001615117134516646
0.0912414,0.0029180593839446376,0.0012304766557731629,0.0008948707275350199,0.0015443857176658596,0.0038123782114285816,0.0029791772582722278,0.0018741008891117155,0.001621325136902815
0.0917069,0.0029388005667676477,0.0012309291752552753,0.0008935658043556693,0.0015430797321735546,0.0038221912776865413,0.002990216137048852,0.0018668788868209541,0.0016274644352132636
0.0921724,0.0029596196363645302,0.0012313635014787282,0.0008922430558338564,0.0015417664044232156,0.0038318733292087783,0.0030010969491214875,0.00185960100268268,0.0016335342533967147
0.0926379,0.0029805159285967633,0.0012317800462263396,0.0008909033926797756,0.0015404466225324937,0.003841425761253105,0.003011818184994607,0.0018522698260681485,0.0016395338192478587
0.0931034,0.003001488726533768,0.001232179221374742,0.0008895477182403003,0.001539121265927148,0.00385084996426418,0.0030223783795299535,0.001844887927311359,0.0016454623646684908
0.093569,0.0030225372605655596,0.0012325614387933583,0.0008881769283658293,0.0015377912051160309,0.0038601473241863557,0.0030327761126213828,0.0018374578570944204,0.0016513191259298727
0.0940345,0.003043660708542152,0.0012329271102439793,0.0008867919112819918,0.0015364573014705527,0.0038693192227925656,0.003043010009845196,0.001829982145846781,0.001657103343936148
0.0945,0.0030648581959397234,0.0012332766472809642,0.0008853935474662007,0.001535120407008727,0.0038783670380287986,0.0030530787430850725,0.0018224633031584457,0.0016628142644886487
0.0949655,0.003086128796053529,0.0012336104611520896,0.0008839827095290364,0.0015337813641838895,0.0038872921443737192,0.0030629810311307176,0.0018149038172072917,0.0016684511385509197
0.095431,0.003107471530217529,0.0012339289627000842,0.0008825602621004429,0.0015324410056781945,0.0038960959132129766,0.0030727156402493416,0.0018073061542005849,0.0016740132225142824
0.0958966,0.0031288853680506577,0.0012342325622648938,0.0008811270617207145,0.001531100154200982,0.0039047797132277322,0.003082281384729077,0.001799672757830787,0.0016794997784637495
0.0963621,0.003150369227729658,0.0012345216695867289,0.0008796839567362492,0.0015297596222921196,0.003913344910796919,0.003091677127393443,0.0017920060487457423,0.001684910074444108
0.0968276,0.003171921976288352,0.0012347966937099489,0.00087823178720004,0.0015284202121304108,0.003921792870412701,0.0031009017800859907,0.0017843084240333326,0.0016902433847259806
0.0972931,0.003193542429943226,0.00123505804288784,0.0008767713847768732,0.001527082715347152,0.003930124955108588,0.003109954304124338,0.0017765822567206914,0.0016954989900716808
0.0977586,0.003215229354445174,0.0012353061244883342,0.000875303572653201,0.0015257479128449186,0.003938342526899613,0.0031188337107229233,0.0017688298952880676,0.0017006761780006768
0.0982241,0.0032369814654572234,0.001235541344900711,0.0008738291654516491,0.00152441657462164,0.003946446947233965,0.003127539061383954,0.0017610536631974371,0.0017057742430544854
0.0986897,0.0032587974289580656,0.0012357641094433152,0.0008723489691501162,0.0015230894596000195,0.003954439577455433,0.0031360694682561925,0.0017532558584359506,0.0017107924870608
0.0991552,0.003280675861671187,0.0012359748222723107,0.0008708637810054212,0.001521767315462337,0.0039623217792760105,0.0031444240944613682,0.0017454387530742917,0.0017157302193966549
0.0996207,0.0033026153315193923,0.001236173886291486,0.0008693743894814537,0.0015204508784906693,0.003970094915257964,0.0031526021543880865,0.0017376045928400186,0.0017205867572504326
0.1000862,0.0033246143581044927,0.0012363617030631132,0.0008678815741817815,0.001519140873412541,0.003977760349304656,0.0031606029139531686,0.0017297555967059446,0.0017253614258825262
0.1005517,0.0033466714132119094,0.0012365386727198587,0.0008663861057866743,0.0015178380132520202,0.003985319447159398,0.0031684256908303702,0.0017218939564936004,0.0017300535588844954
0.1010172,0.0033687849213399268,0.0012367051938777384,0.0008648887459945046,0.001516542999186255,0.003992773576911564,0.003176069854646452,0.0017140218364918216,0.0017346624984365823
0.1014828,0.0033909532602533037,0.0012368616635501058,0.0008633902474674824,0.0015152565204074474,0.004000124109509178,0.0031835348271446,0.0017061413730904904,0.001739187595563476
0.1019483,0.0034131747615609312,0.0012370084770626656,0.0008618913537816838,0.0015139792539902478,0.004007372419277151,0.0031908200823152497,0.0016982546744294558,0.0017436282103882378
0.1024138,0.0034354477113172116,0.0012371460279694939,0.0008603927993813382,0.0015127118647645516,0.004014519884440331,0.0031979251464944068,0.0016903638200626533,0.001747983712384309
0.1028793,0.0034577703506468134,0.0012372747079700502,0.0008588953095373388,0.0015114550051936798,0.004021567887650481,0.0032048495984296193,0.0016824708606374343,0.0017522534806255253
0.1033448,0.003480140876392435,0.0012373949068271506,0.0008573996003099415,0.001510209315257927,0.004028517816516287,0.0032115930693137943,0.0016745778175891106,0.0017564369040340675
0.1038103,0.0035025574417851825,0.0012375070122858706,0.0008559063785156179,0.0015089754223434574,0.004035371064135471,0.003218155242787057,0.0016666866828507043,0.001760533381626277
0.1042759,0.0035250181571371574,0.0012376114099933342,0.0008544163416980228,0.001507753941136534,0.004042129029628039,0.0032245358549068573,0.0016587994185779025,0.0017645423227562842
0.1047414,0.003547521090555797,0.00123770848341935,0.0008529301781030409,0.0015065454735230584,0.004048793118669716,0.0032307346940865264,0.0016509179568891968,0.0017684631473574323
0.1052069,0.003570064268679512,0.001237798613777848,0.0008514485666578619,0.0015053506084933934,0.0040553647440245335,0.0032367516010024795,0.0016430441996211935,0.0017722952861815024
0.1056724,0.0035926456774341346,0.0012378821799490858,0.0008499721769540407,0.0015041699220524362,0.004061845326075546,0.0032425864684703276,0.0016351800180990682,0.0017760381810357846
0.1061379,0.0036152632628096617,0.0012379595584025972,0.0008485016692344834,0.0015030039771348888,0.004068236293352615,0.003248239241290221,0.0016273272529221338,0.001779691285018057
0.1066034,0.003637914931656756,0.0012380311231208647,0.000847037694384303,0.0015018533235256852,0.004074539083056173,0.003253709916061825,0.0016194877137644746,0.0017832540627495405
0.107069,0.003660598552502449,0.0012380972455237117,0.0008455808939254769,0.0015007184977855095,0.004080755141575825,0.0032589985409694345,0.0016116631791906022,0.0017867259906059008
0.1075345,0.0036833119563844698,0.0012381582943934186,0.0008441319000152365,0.0014996000231813412,0.004086885925002632,0.0032641052155377593,0.001603855396486073,0.0017901065569463591
0.108,0.003706052937703616,0.0012382146358005715,0.0008426913354481144,0.0014984984096219562,0.004092932899633882,0.0032690300903589456,0.0015960660815030055,0.001793395262340967
0.1084655,0.003728819255093542,0.0012382666330306529,0.0008412598136615688,0.001497414153598299,0.004098897542469118,0.003273773366791403,0.0015882969185204215,0.0017965916197960916
0.108931,0.0037516086323073432,0.001238314646511385,0.0008398379387451055,0.0014963477381286373,0.004104781341696167,0.003278335296630969,0.0015805495601193273,0.0017996951549781519
0.1093966,0.003774418759120291,0.001238359033740834,0.0008384263054528084,0.0014952996327084007,0.0041105857971658714,0.0032827161817549854,0.0015728256270724286,0.0018027054064356344
0.1098621,0.0037972472922480393,0.0012384001492162931,0.0008370254992191858,0.0014942702932646088,0.004116312420854218,0.003286916373739826,0.0015651267082483781,0.00180562192581941
0.1103276,0.0038200918562796156,0.0012384383443639734,0.0008356360961782316,0.0014932601621147849,0.004121962737310518,0.0032909362734524538,0.0015574543605304302,0.001808444278101363
0.1107931,0.0038429500446244803,0.0012384739674695386,0.0008342586631855981,0.0014922696679302446,0.004127538284090308,0.0032947763306165794,0.0015498101087493713,0.0018111720417913351
0.1112586,0.0038658194204729463,0.0012385073636095292,0.000832893757843769,0.0014912992257036558,0.0041330406121716555,0.0032984370433539914,0.001542195445630585,0.0018138048091523736
0.1117241,0.0038886975177692467,0.001238538874583721,0.0008315419285301214,0.0014903492367207497,0.00413847128635356,0.0033019189577016207,0.0015346118317551072,0.0018163421864142747
0.1121897,0.003911581842196542,0.0012385688388484588,0.000830203714427765,0.001489420088536067,0.0041438318856351665,0.003305222667104891,0.001527060695534517,0.001818783793985409
0.1126552,0.003934469872173166,0.0012385975914510035,0.0008288796455590528,0.0014885121549526104,0.00414912400357455,0.0033083488118879,0.0015195434331995103,0.0018211292666628174
0.1131207,0.003957359059859406,0.0012386254639649224,0.0008275702428216607,0.0014876257960052819,0.004154349248625825,0.0033112980787009675,0.0015120614088019982,0.0018233782538405663
0.1135862,0.003980246832174099,0.0012386527844265565,0.0008262760180271371,0.0014867613579479624,0.004159509244453408,0.0033140711999460892,0.0015046159542305751,0.0018255304197163562
0.1140517,0.004003130591820343,0.0012386798772725924,0.0008249974739418359,0.0014859191732440962,0.004164605630222318,0.0033166689531808273,0.001497208369239207,0.0018275854434963645
0.1145172,0.00402600771831964,0.0012387070632787689,0.000823735104330153,0.0014850995605606271,0.004169640060863498,0.003319092160501166,0.0014898399214889851,0.0018295430195983066
0.1149828,0.0040488755690537654,0.0012387346594997526,0.0008224893939999927,0.001484302824765138,0.004174614207313252,0.0033213416879038686,0.0014825118466027913,0.001831402857852681
0.1154483,0.004071731480313702,0.0012387629792102166,0.0008212608188503934,0.001483529256926041,0.004179529756725975,0.003323418444628856,0.001475225348232717,0.0018331646837021582
0.1159138,0.004094572768354919,0.0012387923318471553,0.0008200498459212481,0.0014827791343156635,0.004184388412659428,0.003325323382482155,0.001467981598140065,0.001834828238399063
0.1163793,0.004117396730458334,0.001238823022953463,0.0008188569334450517,0.001482052720416091,0.004189191895231855,0.003327057495139999,0.0014607817362877649,0.0018363932792008798
0.1168448,0.004140200645996266,0.0012388553541228062,0.0008176825309006161,0.001481350264927648,0.004193941941250281,0.0033286218174347214,0.0014536268709450233,0.0018378595795637072
0.1173103,0.004162981777502711,0.0012388896229458108,0.000816527079068689,0.0014806720037799123,0.004198640304309404,0.0033300174246231693,0.0014465180788040327,0.0018392269293335776
0.1177759,0.004185737371747329,0.0012389261229575933,0.000815391010089414,0.0014800181591451643,0.0042032887548606145,0.003331245431638419,0.0014394564051085589,0.0018404951349355607
0.1182414,0.00420846466081253,0.0012389651435866734,0.000814274747521567,0.0014793889394541888,0.004207889080250893,0.0033323069923256498,0.0014324428637942342,0.0018416640195605702
0.1187069,0.004231160863173118,0.0012390069701052994,0.0008131787064034998,0.0014787845394143493,0.004212443084731497,0.003333203298663036,0.0014254784376403864,0.001842733423349782
0.1191724,0.004253823184777978,0.0012390518835812309,0.0008121032933157147,0.0014782051400298566,0.004216952589436561,0.0033339355799685546,0.0014185640784332343,0.0018437032035765822
0.1196379,0.004276448820133316,0.0012391001608310194,0.0008110489064449914,0.0014776509086241686,0.004221419432331832,0.003334505102093602,0.0014117007071402943,0.0018445732348259453
0.1201034,0.004299034953386989,0.0012391520743748336,0.0008100159356499853,0.0014771219988644695,0.004225845468133822,0.0033349131666043043,0.0014048892140958297,0.0018453434091711498
0.120569,0.004321578759413441,0.001239207892392879,0.0008090047625282114,0.0014766185507881955,0.004230232568199687,0.0033351611099513997,0.0013981304591971816,0.0018460136363477226
0.1210345,0.004344077404898766,0.0012392678786834642,0.0008080157604843275,0.0014761406908315807,0.004234582620388156,0.003335250302629556,0.0013914252721118061,0.0018465838439245064
0.1215,0.004366528049425386,0.0012393322926227703,0.0008070492947996303,0.0014756885318602186,0.004238897528891874,0.003335182148326965,0.0013847744524948383,0.0018470539774717435
0.1219655,0.004388927846555822,0.0012394013891263763,0.0008061057227026744,0.0014752621732016403,0.00424317921404163,0.003334958083066023,0.0013781787702170057,0.0018474240007260614
0.122431,0.004411273944915011,0.0012394754186125924,0.0008051853934409191,0.0014748617006799106,0.004247429612083042,0.0033345795743358955,0.0013716389656026888,0.0018476938957522418
0.1228966,0.004433563489270638,0.001239554626967654,0.0008042886483533113,0.0014744871866522542,0.004251650674926389,0.0033340481202177395,0.0013651557496779326,0.0018478636631016438
0.1233621,0.004455793621610907,0.0012396392555128286,0.0008034158209437071,0.001474138690047724,0.004255844369870358,0.003333365248503343,0.0013587298044281987,0.0018479333219671502
0.1238276,0.004477961482219241,0.0012397295409734845,0.0008025672369550367,0.0014738162564079333,0.00426001267930056,0.0033325325158079207,0.0013523617830656406,0.0018479029103344849
0.1242931,0.004500064210745355,0.0012398257154501659,0.0008017432144441108,0.001473519917929883,0.004264157600363748,0.003331551506677799,0.0013460523103056875,0.0018477724851297564
0.1247586,0.004522098947272189,0.001239928006391716,0.0008009440638569679,0.0014732496935109275,0.004268281144618731,0.0033304238326937134,0.001339801982652708,0.0018475421223630593
0.1252241,0.004544062833378158,0.00124003663657049,0.0008001700881046514,0.0014730055887959169,0.004272385337665008,0.0033291511315704254,0.00133361136869453,0.0018472119172679676
0.1256897,0.004565953013194197,0.0012401518240596951,0.0007994215826393073,0.0014727875962265741,0.004276472218750167,0.0033277350662533536,0.0013274810094055813,0.001846781984436748
0.1261552,0.004587766634455045,0.001240273782212897,0.0007986988355304843,0.0014725956950931395,0.0042805438403570656,0.003326177324012892,0.0013214114184584105,0.00184625245795112
0.1266207,0.004609500849544201,0.0012404027196457256,0.0007980021275415215,0.001472429851588335,0.0042846022677718205,0.0033244796155370514,0.001315403082543341,0.0018456234915083883
0.1270862,0.004631152816531958,0.0012405388402198124,0.0007973317322059063,0.001472290018863699,0.004288649578633612,0.003322643674023074,0.0013094564616960046,0.0018448952585427899
0.1275517,0.004652719700205928,0.0012406823430289777,0.0007966879159034928,0.001472176137088355,0.004292687862467286,0.003320671254268611,0.0013035719896324928,0.0018440679523418918
0.1280172,0.004674198673093453,0.0012408334223876969,0.0007960709379364672,0.0014720881335102956,0.00429671922019974,0.0033185641317630627,0.0012977500740918681,0.0018431417861578861
0.1284828,0.00469558691647528,0.00124099226782186,0.000795481050604956,0.0014720259225202896,0.004300745763661035,0.003316324101779656,0.0012919910971857728,0.0018421169933136178
0.1289483,0.004716881621389889,0.0012411590640618608,0.0007949184992821721,0.0014719894057185223,0.00430476961507118,0.0033139529784688153,0.0012862954157548704,0.001840993827303173
0.1294138,0.004738079989627859,0.0012413339910380462,0.0007943835224889922,0.001471978471984091,0.004308792906513483,0.0033114525939533634,0.0012806633617318517,0.0018397725618868497
0.1298793,0.0047591792347157,0.0012415172238785667,0.0007938763519678699,0.0014719929975474829,0.004312817779395374,0.0033088247974260706,0.0012750952425107332,0.001838453491180313
0.1303448,0.0047801765828886,0.001241708932909668,0.0007933972127559828,0.0014720328460661506,0.0043168463838975215,0.003306071454250038,0.00126959134132217,0.0018370369297377287
0.1308103,0.004801069274051586,0.0012419092836584557,0.0007929463232575245,0.0014720978687032987,0.004320880878412089,0.0033031944450623925,0.0012641519176145026,0.0018355232126286596
0.1312759,0.004821854562728642,0.0012421184368581646,0.0007925238953150474,0.0014721879042099845,0.004324923428970919,0.0033001956648817587,0.0012587772074402492,0.0018339126955084946
0.1317414,0.004842529718999384,0.0012423365484559542,0.0007921301342797748,0.0014723027790106342,0.004328976208664445,0.0032970770222199406,0.001253467423847751,0.0018322057546821782
0.1322069,0.0048630920294229435,0.001242563769623248,0.0007917652390808022,0.0014724423072920705,0.004333041397052068,0.0032938404381982304,0.0012482227572776792,0.0018304027871610075
0.1326724,0.004883538797948748,0.001242800246768627,0.000791429402293127,0.0014726062910961429,0.004337121179564771,0.0032904878456687394,0.0012430433759641037,0.0018285042107122479
0.1331379,0.004903867346813933,0.0012430461215532792,0.0007911228102044583,0.0014727945204160526,0.00434121774690069,0.003287021188341126,0.0012379294263398241,0.0018265104639013227
0.1336034,0.0049240750174271075,0.0012433015309090076,0.0007908456428807682,0.0014730067732964562,0.004345333294414337,0.003283442419915082,0.0012328810334456596,0.0018244220061263232
0.134069,0.004944159171238216,0.0012435666070587921,0.0007905980742305628,0.0014732428159374205,0.004349470021500184,0.0032797535032189394,0.001227898301343398,0.0018222393176445901
0.1345345,0.004964117190594228,0.0012438414775398912,0.000790380272067851,0.001473502402802307,0.004353630130971261,0.0032759564093547532,0.0012229813135321134,0.0018199628995911328
0.135,0.004983946479580384,0.0012441262652294722,0.0007901923981737911,0.001473785276729632,0.004357815828433423,0.0032720531168502205,0.0012181301333675629,0.0018175932739886696
0.1354655,0.005003644464846756,0.001244421088372752,0.0007900346083569921,0.0014740911690489615,0.004362029321655876,0.0032680456108178223,0.0012133448044843891,0.0018151309837490996
0.135931,0.005023208596419942,0.0012447260606136224,0.0007899070525124475,0.0014744197997008704,0.004366272819938566,0.0032639358821215576,0.001208625351220854,0.0018125765926662507
0.1363966,0.005042636348499666,0.0012450412910277433,0.0007898098746790756,0.001474770877361005,0.004370548533476972,0.0032597259265516533,0.0012039717790458338,0.0018099306853997822
0.1368621,0.005061925220240193,0.0012453668841580768,0.0007897432130958335,0.0014751440995682626,0.004374858672724836,0.003255417744007625,0.0011993840749878173,0.0018071938674501576
0.1373276,0.005081072736516403,0.0012457029400528437,0.000789707200256376,0.001475539152857113,0.00437920544775532,0.0032510133376900457,0.001194862208065648,0.0018043667651246324
0.1377931,0.005100076448674456,0.0012460495543058718,0.0007897019629622235,0.0014759557128940807,0.00438359106762109,0.003246514713301379,0.0011904061297207651,0.0018014500254942447
0.1382586,0.005118933935266958,0.001246406818099315,0.000789727622374403,0.0014763934446184088,0.0043880177397137695,0.0032419238782562124,0.0011860157742507157,0.0017984443163418244
0.1387241,0.005137642802772558,0.0012467748182487116,0.0007897842940635269,0.0014768520023869356,0.004392487669123257,0.003237242840901212,0.0011816910592437066,0.0017953503261010585
0.1391897,0.0051562006862999055,0.0012471536372503434,0.0007898720880582797,0.0014773310301232198,0.004397003057997337,0.003232473609745122,0.001177431886013991,0.0017921687637866782
0.1396552,0.005174605250275846,0.0012475433533308627,0.0007899911088922887,0.0014778301614709443,0.004401566104902043,0.003227618192699111,0.0011732381400378846,0.001788900358915852
0.1401207,0.005192854189117734,0.0012479440404991363,0.0007901414556493603,0.0014783490199516264,0.004406179004183199,0.0032226785963277594,0.0011691096913902226,0.0017855458614208803
0.1405862,0.005210945227889685,0.0012483557686002544,0.0007903232220070663,0.001478887219126657,0.0044108439453295735,0.0032176568251109524,0.0011650463951810746,0.0017821060415533115
0.1410517,0.005228876122942551,0.0012487786033716457,0.0007905364962786724,0.0014794443627636747,0.004415563112338039,0.0032125548807169133,0.0011610480919925469,0.0017785816897796078
0.1415172,0.005246644662537394,0.0012492126065012318,0.0007907813614533947,0.0014800200450072747,0.004420338683081108,0.0032073747612866004,0.0011571146083155094,0.0017749736166684956
0.1419828,0.0052642486674522055,0.001249657835687546,0.0007910578952349685,0.0014806138505540454,0.004425172828677212,0.003202118460729661,0.00115324575698609,0.0017712826527701419
0.1424483,0.005281685991571574,0.0012501143447017332,0.0007913661700785102,0.0014812253548319135,0.004430067712864014,0.003196787968032109,0.0011494413376217875,0.0017675096484873005
0.1429138,0.005298954522459045,0.001250582183451348,0.0007917062532256541,0.0014818541241837916,0.004435025491375056,0.003191385266575879,0.00114570113705706,0.001763655473938561
0.1433793,0.005316052181911893,0.001251061398045859,0.000792078206737946,0.0014824997160555054,0.004440048311319987,0.003185912333470379,0.0011420249297782498,0.0017597210188138224
0.1438448,0.005332976926498061,0.0012515520308637655,0.0007924820875284933,0.0014831616791879797,0.004445138310568592,0.0031803711388961463,0.0011384124783577077,0.0017557071922221167
0.1443103,0.00534972674807502,0.0012520541206212333,0.0007929179473918798,0.0014838395538136612,0.004450297617138822,0.0031747636454607098,0.0011348635338869833,0.0017516149225318954
0.1447759,0.005366299674290303,0.0012525677024421583,0.0007933858330323706,0.0014845328718571427,0.004455528348589002,0.003169091807566747,0.001131377836408948,0.0017474451572038962
0.1452414,0.005382693769063466,0.0012530928079295715,0.0007938857860904497,0.001485241157139949,0.004460832611414377,0.003163357570792643,0.0011279551153487162,0.0017431988626167077
0.1457069,0.0053989071330491955,0.0012536294652383132,0.0007944178431677343,0.0014859639255894277,0.004466212500448104,0.0031575628712855485,0.0011245950899432323,0.0017388770238851523
0.1461724,0.005414937904081234,0.0012541776991489065,0.0007949820358503188,0.0014867006854516886,0.004471670098266804,0.0031517096351670357,0.0011212974696693846,0.0017344806446716065
0.1466379,0.005430784257596774,0.0012547375311425764,0.0007955783907306092,0.0014874509375085224,0.004477207474600768,0.0031457997779514367,0.0011180619546705055,0.0017300107469903746
0.1471034,0.005446444407040976,0.0012553089794773535,0.0007962069294277122,0.0014882141752982127,0.004482826685748851,0.0031398352039769483,0.0011148882361811153,0.0017254683710052198
0.147569,0.005461916604251272,0.0012558920592652123,0.0007968676686064482,0.001488989885340159,0.004488529773998073,0.003133817805849526,0.0011117759969497614,0.0017208545748201621
0.1480345,0.005477199139821114,0.001256486782550193,0.0007975606199950584,0.0014897775473632106,0.00449431876704793,0.0031277494638996184,0.0011087249116598,0.0017161704342636471
0.1485,0.005492290343442959,0.0012570931583874626,0.0007982857904016759,0.001490576634537624,0.004500195677439347,0.00312163204565174,0.0011057346473479599,0.001711417042666198
0.1489655,0.005507188584230314,0.0012577111929232732,0.0007990431817296337,0.0014913866137105604,0.004506162501988199,0.0031154674053068855,0.0011028048638205314,0.0017065955106316862
0.149431,0.0055218922710187955,0.001258340889475788,0.0007998327909916871,0.001492206945645037,0.004512221221223272,0.0031092573832377924,0.0010999352140670076,0.001701706965802363
0.1498966,0.005536399852646276,0.0012589822486167473,0.0008006546103232288,0.0014930370852622651,0.004518373798828534,0.0031030038054970514,0.001097125344671013,0.0016967525526178219
0.1503621,0.00555070981821227,0.0012596352682539504,0.000801508626994582,0.0014938764818872884,0.004524622181089528,0.0030967084833380797,0.0010943748962183423,0.001691733432068063
0.1508276,0.005564820697316835,0.0012602999437145296,0.0008023948234224547,0.0014947245794978473,0.0045309682963437115,0.0030903732127489933,0.0010916835037019367,0.0016866507814408496
0.1512931,0.005578731060279328,0.0012609762678289851,0.0008033131771806424,0.0014955808169763794,0.004537414054434534,0.00308399977399939,0.0010890507969236215,0.0016815057940635495
0.1517586,0.005592439518337345,0.001261664231015953,0.0008042636610100622,0.0014964446283650616,0.004543961346169049,0.003077589931200062,0.001086476400892428,0.0016762996790396494
0.1522241,0.005605944723826206,0.0012623638213676712,0.0008052462428281967,0.0014973154431237921,0.0045506120427788645,0.0030711454318756446,0.0010839599362193315,0.0016710336609801334
0.1526897,0.005619245370339328,0.0012630750247361077,0.0008062608857380274,0.001498192686391007,0.004557367995384216,0.0030646680065502226,0.001081501019508241,0.0016657089797299097
0.1531552,0.0056323401928697996,0.001263797824819702,0.0008073075480365262,0.001499075779247216,0.004564231034460921,0.0030581593683459024,0.0010790992637430864,0.0016603268900894676
0.1536207,0.005645227967933503,0.0012645322032506833,0.0008083861832227762,0.0014999641389811572,0.004571202969309969,0.0030516212125943874,0.0010767542786708564,0.0016548886615319455
0.1540862,0.005657907513674073,0.0012652781396829225,0.0008094967400057866,0.001500857179358455,0.004578285587529439,0.0030450552164615783,0.001074465671180448,0.0016493955779157804
0.1545517,0.005670377689950028,0.0012660356118802897,0.000810639162312068,0.0015017543108926746,0.0045854806544884524,0.0030384630385852165,0.001072233045677191,0.0016438489371931031
0.1550172,0.005682637398404437,0.001266804595805498,0.0008118133892930278,0.0015026549411186676,0.00459278991280283,0.0030318463187255815,0.0010700560044529291,0.0016382500511140322
0.1554828,0.00569468558251755,0.0012675850657094187,0.0008130193553322482,0.0015035584748681057,0.004600215081812133,0.003025206677429234,0.0010679341480515272,0.0016326002449270158
0.1559483,0.005706521227642887,0.0012683769942208646,0.0008142569900527028,0.0015044643145471046,0.004607757857057819,0.003018545715705785,0.0010658670756296975,0.001626900857075369
0.1564138,0.005718143361027335,0.0012691803524368449,0.0008155262183239664,0.0015053718604158457,0.004615419909762222,0.0030118650147176683,0.001063854385313025,0.0016211532388901604
0.1568793,0.005729551051815887,0.0012699951100132987,0.0008168269602694704,0.0015062805108700993,0.0046232028863081535,0.0030051661354829067,0.0010618956745470777,0.0016153587542796172
0.1573448,0.0057407434110416595,0.0012708212352563232,0.0008181591312738485,0.0015071896627245483,0.004631108407718929,0.002998450618590853,0.0010599905404434836,0.0016095187794152286
0.1578103,0.00575171959160183,0.0012716586952139213,0.0008195226419904202,0.0015080987114978021,0.004639138069138686,0.00299171998393095,0.001058138580120851,0.0016036347024147484
0.1582759,0.00576247878822019,0.001272507455768297,0.0008209173983488461,0.0015090070516989814,0.004647293439312901,0.0029849757304345713,0.0010563393910404117,0.0015977079230223082
0.1587414,0.005773020237396965,0.001273367481728728,0.0008223433015629953,0.0015099140771157448,0.004655576060069069,0.002978219335830058,0.0010545925713362552,0.001591739852285867
0.1592069,0.005783343217346538,0.0012742387369250457,0.0008238002481390616,0.0015108191811036178,0.004663987445797536,0.002971452256411076,0.001052897720140017,0.001585731912232216
0.1596724,0.005793447047923696,0.0012751211843017483,0.0008252881298839731,0.001511721756876483,0.004672529082932525,0.002964675926818413,0.0010512544378998778,0.0015796855355397637
0.1601379,0.0058033310905389575,0.0012760147860127634,0.000826806833914141,0.0015126211977980841,0.004681202429433393,0.0029578917598353464,0.001049662326693726,0.0015736021652093118
0.1606034,0.0058129947480635245,0.001276919503516876,0.0008283562426645969,0.0015135168976743866,0.004690008914266155,0.002951101146196666,0.0010481209905363275,0.0015674832542330267
0.161069,0.005822437464724289,0.0012778352976738226,0.0008299362338985693,0.0015144082510466326,0.004698949936885369,0.002944305454411438,0.0010466300356803506,0.001561330265261807
0.1615345,0.00583165872598936,0.0012787621288410506,0.0008315466807175434,0.0015152946534849176,0.004708026866716478,0.0029375060305995545,0.0010451890709110994,0.001555144670271233
0.162,0.005840658058444471,0.0012796999569711347,0.0008331874515718465,0.0015161755018821108,0.004717241042638743,0.002930704198342119,0.00104379770783482,0.0015489279502262777
0.1624655,0.005849435029660614,0.0012806487417098347,0.0008348584102718006,0.0015170501947479452,0.0047265937724689224,0.0029239012585457083,0.001042455561160462,0.001542681594744942
0.162931,0.005857989248053182,0.0012816084424947726,0.0008365594159994807,0.0015179181325031,0.0047360863324459,0.0029170984893205354,0.001041162248974793,0.0015364071017609788
0.1633966,0.00586632036273289,0.0012825790186547067,0.0008382903233211201,0.0015187787177730933,0.004745719966716516,0.0029102971458725597,0.00103991739301078,0.0015301059771858471
0.1638621,0.005874428063348719,0.0012835604295093719,0.0008400509822002047,0.0015196313556818124,0.004755495886822941,0.0029034984604095894,0.00103872061890916,0.00152377973457004
0.1643276,0.005882312079923071,0.0012845526344698614,0.0008418412380112936,0.001520475454144499,0.0047654152711920335,0.002896703642061404,0.0010375715564731383,0.0015174298947639156
0.1647931,0.005889972182679363,0.0012855555931395295,0.0008436609315546032,0.0015213104241599954,0.004775479264627161,0.0028899138768139297,0.0010364698399161507,0.0015110579855781559
0.1652586,0.005897408181862214,0.001286569265415404,0.0008455098990713848,0.001522135680102064,0.004785688977803042,0.002883130327457472,0.0010354151081026323,0.001504665541443966
0.1657241,0.005904619927550384,0.001287593611590103,0.0008473879722601214,0.0015229506400095776,0.0047960454867641555,0.002876354133549003,0.0010344070047817544,0.0014982541030731202
0.1661897,0.0059116073094625885,0.0012886285924542547,0.0008492949782935651,0.0015237547258753832,0.004806549832427308,0.002869586411388477,0.0010334451788140918,0.0014918252171179545
0.1666552,0.005918370256756263,0.0012896741693994146,0.0008512307398366298,0.0015245473639336378,0.0048172030200889565,0.0028628282540091327,0.0010325292843912193,0.0014853804358313822
0.1671207,0.005924908737819342,0.0012907303045214722,0.0008531950750651536,0.0015253279849454125,0.004828006018937934,0.0028560807311817002,0.0010316589812482486,0.0014789213167270083
0.1675862,0.005931222760055079,0.0012917969607245347,0.0008551877976855317,0.001526096024482368,0.0048389597615742285,0.0028493448894324268,0.001030833934869349,0.0014724494222393973
0.1680517,0.005937312369659926,0.0012928741018252829,0.0008572087169552212,0.0015268509232083008,0.004850065143534493,0.0028426217520747957,0.0010300538166863066,0.0014659663193845507
0.1685172,0.005943177651394485,0.0012939616926577859,0.0008592576377041082,0.0015275921271583662,0.004861323022824925,0.0028359123192547957,0.0010293183042701917,0.0014594735794206271
0.1689828,0.005948818728347532,0.0012950596991787623,0.0008613343603567218,0.0015283190880157717,0.0048727342194621725,0.0028292175680095775,0.0010286270815161994,0.0014529727775089473
0.1694483,0.005954235761693113,0.001296168088573274,0.0008634386809552787,0.0015290312633857329,0.004884299515022914,0.0028225384523393082,0.0010279798388217374,0.0014464654923753084
0.1699138,0.0059594289504407184,0.0012972868293608414,0.0008655703911835249,0.0015297281170664864,0.004896019652202782,0.0028158759032920182,0.0010273762732578306,0.0014399533059716375
0.1703793,0.0059643985311785466,0.001298415891501969,0.0008677292783913535,0.0015304091193171644,0.004907895334385308,0.002809230829061209,0.001026816088733915,0.0014334378031380102
0.1708448,0.005969144777809786,0.0012995552465050685,0.0008699151256201679,0.001531073747122349,0.004919927225221585,0.002802604115095974,0.0010262989961560861,0.0014269205712650578
0.1713103,0.005973668001281866,0.00130070486753376,0.0008721277116289642,0.0015317214844531462,0.0049321159482213425,0.0027959966242233755,0.0010258247135788653,0.0014204031999567907
0.1717759,0.005977968549308519,0.001301864729514533,0.000874366810921106,0.0015323518225246384,0.004944462086356145,0.002789409196782784,0.0010253929663505427,0.0014138872806938674
0.1722414,0.005982046806084508,0.0013030348092447355,0.0008766321937717617,0.001532964260049591,0.004956966181675364,0.002782842650771883,0.001025003487252157,0.00140737440649734
0.1727069,0.005985903191992804,0.0013042150855008597,0.0008789236262559755,0.0015335583034883,0.004969628734935604,0.00277629778200403,0.0010246560166301652,0.0014008661715929074
0.1731724,0.005989538163303983,0.001305405539147083,0.0008812408702773395,0.0015341334672944707,0.004982450205244164,0.002769775364276646,0.0010243503025228566,0.0013943641710756998
0.1736379,0.005992952211867581,0.0013066061532440133,0.0008835836835972336,0.0015346892741570182,0.004995431009717153,0.002763276149550297,0.001024086100780561,0.0013878700005756296
0.1741034,0.00599614586479514,0.0013078169131575867,0.0008859518198646018,0.0015352252552376783,0.005008571523152781,0.002756800868138109,0.0010238631751797035,0.0013813852559233254
0.174569,0.0059991196841346905,0.0013090378066680582,0.0008883450286462376,0.0015357409504043126,0.005021872077720348,0.002750350228905155,0.0010236812975307483,0.0013749115328166664
0.1750345,0.006001874266536414,0.0013102688240790178,0.0008907630554575458,0.0015362359084597939,0.005035332962665378,0.0027439249194774265,0.0010235402477800756,0.0013684504264879229
0.1755,0.006004410242909301,0.0013115099583263653,0.0008932056417937516,0.0015367096873663533,0.005048954424031345,0.0027375256064599714,0.0010234398141058263,0.0013620035313715113
0.1759655,0.006006728278068677,0.0013127612050871603,0.0008956725251615224,0.0015371618544652772,0.005062736664398351,0.0027311529356637805,0.0010233797930077478,0.0013555724407723667
0.176431,0.006008829070374526,0.0013140225628882674,0.0008981634391109723,0.001537591986691837,0.005076679842639124,0.0027248075323409674,0.0010233599893910647,0.0013491587465349428
0.1768966,0.006010713351360637,0.0013152940332146984,0.0009006781132680161,0.001537999670785334,0.0050907840736926285,0.0027184900014277707,0.0010233802166443877,0.0013427640387128487
0.1773621,0.006012381885354682,0.001316575620617553,0.0009032162733670472,0.001538384503494135,0.005105049428355563,0.002712200927794901,0.0010234402967116707,0.001336389905239133
0.1778276,0.006013835469089399,0.0013178673328214509,0.0009057776412839204,0.0015387460917755723,0.005119475933091968,0.0027059408765047386,0.0010235400601582149,0.001330037931597223
0.1782931,0.006015074931305097,0.0013191691808313512,0.0009083619350692243,0.001539084052990562,0.005134063569861153,0.0026997103930748887,0.0010236793462307147,0.0013237097004925211
0.1787586,0.006016101132343703,0.0013204811790386486,0.0009109688689818399,0.0015393980150928018,0.005148812275964107,0.0026935100037476086,0.0010238580029113288,0.0013174067915246535
0.1792241,0.006016914963734585,0.0013218033453264305,0.0009135981535227869,0.0015396876168123942,0.0051637219439085455,0.002687340215764636,0.0010240758869657553,0.0013111307808603713
0.1796897,0.0060175173477723725,0.0013231357011737805,0.0009162494954693683,0.0015399525078337395,0.005178792421292735,0.0026812015176469663,0.0010243328639852828,0.0013048832409071009
0.1801552,0.006017909237086974,0.0013244782717590023,0.0009189225979096207,0.0015401923489675323,0.005194023510708207,0.0026750943794791398,0.0010246288084227824,0.0012986657399871413
0.1806207,0.006018091614206008,0.001325831086061645,0.0009216171602770821,0.0015404068123166894,0.0052094149696614795,0.0026690192531976433,0.0010249636036225925,0.0012924798420125131
0.1810862,0.00601806549110983,0.0013271941769632117,0.0009243328783858841,0.0015405955814360355,0.005224966510514864,0.002662976572883048,0.0010253371418442506,0.0012863271061604598
0.1815517,0.006017831908779368,0.0013285675813464377,0.0009270694444661751,0.001540758351485568,0.005240677800446454,0.002656966755055534,0.0010257493242800157,0.0012802090865495913
0.1820172,0.006017391936736943,0.0013299513401930346,0.0009298265471998777,0.001540894829377153,0.005256548461429333,0.0026509901989734738,0.0010262000610661277,0.0012741273319166618
0.1824828,0.006016746672580299,0.0013313454986797904,0.0009326038717567793,0.0015410047339145029,0.005272578070230066,0.0026450472869347535,0.0010266892712877398,0.0012680833852939594
0.1829483,0.006015897241510048,0.001332750106272922,0.0009354010998309531,0.0015410877959263225,0.005288766158426503,0.002639138384580521,0.0010272168829774562,0.0012620787836872796
0.1834138,0.006014844795850759,0.001334165216820571,0.0009382179096775018,0.00154114375839253,0.005305112212444909,0.0026332638412010557,0.0010277828331074089,0.0012561150577544396
0.1838793,0.006013590514565898,0.0013355908886433269,0.0009410539761496169,0.0015411723765634713,0.005321615673616432,0.0026274239900434568,0.0010283870675747893,0.0012501937314842895
0.1843448,0.0060121356027668296,0.0013370271846226665,0.0009439089707359451,0.0015411734180720504,0.00533827593825295,0.0026216191486208404,0.0010290295411807561,0.0012443163218761578
0.1848103,0.00601048129121601,0.0013384741722871911,0.0009467825615982542,0.0015411466630387057,0.00535509235774232,0.0026158496190227167,0.0010297102176026337,0.001238484338619668
0.1852759,0.006008628835824519,0.0013399319238965415,0.00094967441360939,0.0015410919041691634,0.005372064238663075,0.00261011568822622,0.0010304290693593046,0.0012326992837748583
0.1857414,0.006006579517144007,0.001341400516522879,0.0009525841883915073,0.0015410089468449112,0.005389190842918668,0.0026044176284078565,0.001031186077769701,0.001226962651452524
0.1862069,0.006004334639853167,0.0013428800321298347,0.0009555115443545576,0.0015408976092063592,0.005406471387891338,0.002598755697255431,0.0010319812329042902,0.0012212759274947116
0.1866724,0.006001895532238822,0.0013443705576488283,0.00095845613673501,0.0015407577222286727,0.005423905046615753,0.0025931301382798246,0.0010328145335294506,0.001215640589155279
0.1871379,0.005999263545671758,0.0013458721850526719,0.0009614176176347786,0.0015405891297902864,0.005441490947972592,0.002587541181126309,0.0010336859870446267,0.0012100581047804371
0.1876034,0.00599644005407745,0.0013473850114263887,0.000964395636060328,0.0015403916887341343,0.0054592281769022455,0.002581989041885102,0.0010345956094121572,0.0012045299334891926
0.188069,0.005993426453401866,0.0013489091390351707,0.0009673898379619393,0.0015401652689216447,0.00547711577463879,0.0025764739234009205,0.0010355434250796831,0.001199057524853621
0.1885345,0.0059902241610725535,0.0013504446753894066,0.0009703998662731195,0.0015399097532795669,0.005495152738964404,0.0025709960155813213,0.0010365294668950543,0.0011936423185789184
0.189,0.005986834615455205,0.0013519917333067082,0.0009734253609501548,0.0015396250378397042,0.005513338024484349,0.0025655554957036823,0.0010375537760136772,0.0011882857441832242
0.1894655,0.005983259275305896,0.0013535504309708528,0.0009764659590118092,0.0015393110317716294,0.0055316705429226684,0.0025601525287207443,0.0010386164017982655,0.0011829892206772392
0.189931,0.0059794996192192255,0.0013551208919875576,0.0009795212945791726,0.0015389676574084543,0.00555014916343879,0.002554787267564683,0.0010397174017109676,0.0011777541562437053
0.1903966,0.005975557145072553,0.0013567032454369864,0.0009825909989156715,0.001538594850265717,0.005568772712965243,0.0025494598534497336,0.001040856841197874,0.0011725819479168342
0.1908621,0.005971433369466549,0.001358297625922886,0.000985674700467248,0.0015381925590534408,0.005587539976566778,0.0025441704161734413,0.001042034793565926,0.0011674739812617884
0.1913276,0.005967129827162338,0.0013599041736182466,0.0009887720249027179,0.0015377607456814172,0.005606449697821236,0.002538919074416623,0.00104325133985228,0.0011624316300543117
0.1917931,0.005962648070515497,0.0013615230343073648,0.0009918825951543153,0.0015372993852577695,0.005625500579222571,0.002533705936042153,0.00104450656868622,0.0011574562559606174
0.1922586,0.005957989668907253,0.001363154359424197,0.0009950060314584414,0.0015368084660808445,0.005644691282606433,0.00252853109839269,0.0010458005761437193,0.0011525492082176275
0.1927241,0.005953156208173221,0.001364798306086885,0.0009981419513966367,0.0015362879896245083,0.0056640204295987555,0.0025233946485874945,0.0010471334655947824,0.0011477118233136536
0.1931897,0.005948149290030143,0.001366455037128348,0.0010012899699368112,0.0015357379705169326,0.005683486602087765,0.002518296663818483,0.001048505347543703,0.0011429454246696003
0.1936552,0.0059429705315010625,0.001368124721122841,0.0010044496994747688,0.0015351584365129684,0.005703088342719807,0.002513237211645677,0.0010499163394623757,0.001138251322320765
0.1941207,0.00593762156433943,0.001369807532408378,0.0010076207498760689,0.0015345494284602283,0.005722824155419335,0.002508216350292197,0.0010513665656168094,0.001133630812599305
0.1945862,0.005932104034452642,0.0013715036511049335,0.001010802728518257,0.0015339110002589999,0.005742692505933365,0.0025032341289389407,0.0010528561568869976,0.001129085177817435
0.1950517,0.005926419601325495,0.0013732132631283256,0.001013995240333496,0.0015332432188161136,0.005762691822400668,0.0024982905880190738,0.0010543852505803214,0.001124615685951415
0.1955172,0.005920569937444021,0.0013749365601996998,0.001017197887851619,0.0015325461639928983,0.005782820495945893,0.00249338575951245,0.0010559539902386833,0.0011202235903263864
0.1959828,0.0059145567277202,0.001376673739850516,0.0010204102712436192,0.0015318199285473573,0.0058030768812988255,0.002488519667240059,0.0010575625254395829,0.0011159101293021175
0.1964483,0.00590838166891806,0.0013784250054229613,0.0010236319883655837,0.0015310646180707033,0.0058234592974389056,0.0024836923271585863,0.001059211011591361,0.00111167652595972
0.1969138,0.0059020464690817485,0.0013801905660656933,0.001026862634803075,0.001530280350918399,0.005843966028265115,0.0024789037476551537,0.001060899609722833,0.0011075239877894022
0.1973793,0.005895552846966258,0.0013819706367248304,0.0010301018039159632,0.0015294672581358548,0.005864595323291303,0.002474153929842304,0.0010626284862675357,0.0011034537063793304
0.1978448,0.005888902531471521,0.0013837654381301,0.0010333490868837153,0.001528625483378946,0.0058853453983669845,0.002469442867853266,0.0010643978128428114,0.001099466857105667
0.1983103,0.0058820972610806625,0.0013855751967760655,0.0010366040727511534,0.001527755182829517,0.005906214436423618,0.002464770549137543,0.0010662077660239459,0.001095564598823848
0.1987759,0.005875138783303181,0.0013874001448983767,0.0010398663484747063,0.0015268565251060514,0.00592720058824632,0.00246013695475686,0.0010680585271135897,0.0010917480735611596
0.1992414,0.00586802885412388,0.0013892405204449802,0.0010431354989691903,0.0015259296911696847,0.005948301973270931,0.0024555420596814865,0.0010699502819066843,0.0010880184062106659
0.1997069,0.005860769237458276,0.0013910965670422492,0.0010464111071551568,0.0015249748742257347,0.005969516680406322,0.0024509858330869563,0.0010718832204511118,0.0010843767042265288
0.2001724,0.005853361704615255,0.0013929685339559847,0.0010496927540068527,0.001523992279620916,0.005990842768881788,0.0024464682386511867,0.0010738575368042854,0.001080824057320761
0.2006379,0.005845808033767694,0.0013948566760472448,0.001052980018600837,0.0015229821247364056,0.006012278269119328,0.002441989234851994,0.0010758734287858855,0.001077361537161446
0.2011034,0.005838110009431792,0.0013967612537229494,0.0010562724781652932,0.0015219446388769202,0.006033821183630606,0.0024375487752649823,0.0010779310977269455,0.0010739901970724627
0.201569,0.005830269421955764,0.0013986825328812054,0.0010595697081300683,0.0015208800631559764,0.006055469487938327,0.002433146808861764,0.0010800307482154762,0.001070711071734746
0.2020345,0.0058222880670185774,0.001400620784851295,0.0010628712821774654,0.0015197886503775006,0.006077221131521698,0.0024287832803084617,0.0010821725878388216,0.0010675251768891196
0.2025,0.005814167745139352,0.0014025762863282666,0.0010661767722938075,0.001518670664913972,0.00609907403878566,0.002424458130264402,0.0010843568269229326,0.0010644335090407389
0.2029655,0.0058059102611980025,0.001404549319302062,0.0010694857488217817,0.0015175263825812839,0.006121026110053478,0.002420171295680925,0.0010865836782687397,0.0010614370451651795
0.203431,0.005797517423967662,0.001406540170981113,0.0010727977805135686,0.0015163560905105229,0.006143075222582258,0.0024159227101001775,0.0010888533568858072,0.001058536742416208
0.2038966,0.00578899104565941,0.0014085491337103243,0.0010761124345847503,0.0015151600870168692,0.006165219231600901,0.002411712303953771,0.0010911660797234437,0.0010557335378352725
0.2043621,0.00578033294147976,0.0014105765048833606,0.0010794292767689875,0.0015139386814658283,0.00618745597136999,0.0024075400048611624,0.0010935220653994476,0.0010530283480627467
0.2048276,0.005771544929201398,0.001412622586849155,0.0010827478713734515,0.0015126921941370102,0.006209783256263027,0.002403405737927591,0.0010959215339266665,0.0010504220690509723
0.2052931,0.005762628828747646,0.001414687686812561,0.0010860677813349959,0.0015114209560856766,0.006232198881868426,0.0023993094260414028,0.0010983647064375533,0.0010479155757791476
0.2057586,0.005753586461791084,0.001416772116729069,0.0010893885682770569,0.0015101253090022632,0.0062547006261116,0.00239525099017058,0.0011008518049068995,0.001045509721970115
0.2062241,0.005744419651366814,0.0014188761931935392,0.0010927097925672667,0.0015088056050700928,0.006277286250396428,0.0023912303496582787,0.0011033830518729407,0.0010432053398091083
0.2066897,0.005735130221500779,0.0014210002373229213,0.001096031013375765,0.0015074622068214799,0.006299953500765361,0.0023872474225171848,0.001105958670157034,0.0010410032396645182
0.2071552,0.005725719996853587,0.0014231445746329602,0.0010993517887341927,0.0015060954869924215,0.006322700109077364,0.0023833021257224822,0.0011085788825821198,0.0010389042098107376
0.2076207,0.005716190802380234,0.0014253095349089006,0.0011026716755953405,0.0015047058283760694,0.0063455237942028455,0.0023793943755032474,0.0011112439116901774,0.0010369090161531412
0.2080862,0.005706544463006094,0.001427495452070244,0.0011059902298934275,0.0015032936236751694,0.006368422263234673,0.0023755240876320743,0.0011139539794588972,0.0010350184019552592
0.2085517,0.005696782803319529,0.00142970266402963,0.0011093070066049717,0.001501859275353652,0.0063913932127143466,0.002371691177712752,0.0011167093070177882,0.0010332330875682013
0.2090172,0.005686907647281422,0.0014319315125459243,0.0011126215598102254,0.0015004031954875463,0.006414434329872331,0.0023678955614658184,0.0011195101143639352,0.0010315537701623913
0.2094828,0.005676920817951921,0.0014341823430716206,0.0011159334427551452,0.0014989258056153916,0.006437543293881514,0.002364137155011803,0.0011223566200776122,0.001029981123461666
0.2099483,0.005666824137234623,0.0014364555045946626,0.001119242207913889,0.0014974275365883102,0.006460717777122706,0.0023604158751519906,0.0011252490410379526,0.0010285157974798025
0.2104138,0.0056566194256384445,0.0014387513494747914,0.0011225474070518432,0.0014959088284198982,0.006483955446461071,0.0023567316396465175,0.0011281875921388743,0.0010271584182595344
0.2108793,0.005646308502057451,0.001441070233274519,0.0011258485912892036,0.0014943701301360906,0.006507253964532306,0.0023530843674896365,0.001131172486005442,0.0010259095876141195
0.2113448,0.00563589318356892,0.0014434125145848283,0.0011291453111651401,0.0014928118996251388,0.006530610991037342,0.0023494739791819937,0.0011342039327108457,0.0010247698828715352
0.2118103,0.005625375285249953,0.0014457785548456898,0.0011324371167025903,0.0014912346034878382,0.006554024184044289,0.0023459003969997605,0.0011372821394941652,0.001023739856621393
0.2122759,0.0056147566200129735,0.001448168718161481,0.0011357235574737182,0.0014896387168881267,0.00657749120129637,0.0023423635452604757,0.0011404073104790838,0.0010228200364646757
0.2127414,0.0056040389984604155,0.001450583371111395,0.0011390041826660723,0.001488024723404166,0.006601009701524505,0.002338863350585431,0.0011435796463937042,0.0010220109247664221
0.2132069,0.005593224228758923,0.001453022882554907,0.0011422785411494753,0.0014863931148800104,0.006624577345763236,0.002335399742158439,0.0011467993442916206,0.0010213129984114797
0.2136724,0.005582314116533317,0.0014554876234323724,0.0011455461815436682,0.0014847443912779637,0.006648191798668687,0.002331972651980801,0.0011500665972743955,0.0010207267085634462
0.2141379,0.005571310464780547,0.0014579779665608117,0.0011488066522867255,0.001483079060531709,0.006671850729837211,0.0023285820151222976,0.0011533815942155862,0.0010202524804269232
0.2146034,0.005560215073803825,0.0014604942864249282,0.001152059501704254,0.0014813976384003072,0.006695551815123391,0.0023252277699680394,0.00115674451948646,0.0010198907130131933
0.215069,0.005549029741167119,0.0014630369589633983,0.0011553042780793818,0.0014797006483231404,0.0067192927379560695,0.0023219098584610215,0.0011601555526835378,0.0010196417789094315
0.2155345,0.005537756261670118,0.0014656063613504597,0.001158540529723534,0.0014779886212758925,0.006743071190651035,0.0023186282263402396,0.0011636148683580971,0.0010195060240515547
0.216,0.005526396427343775,0.0014682028717728183,0.0011617678050479937,0.0014762620956276552,0.0067668848757190285,0.0023153828233742446,0.0011671226357477598,0.0010194837675008082
0.2164655,0.005514952027466488,0.0014708268692019012,0.0011649856526362377,0.0014745216169992595,0.0067907315071677014,0.00231217360359001,0.001170679018510286,0.001019575301224187
0.216931,0.0055034248486009185,0.0014734787331614966,0.0011681936213170344,0.0014727677381229346,0.006814608811796117,0.0023090005254969835,0.00117428417445969,0.0010197808898787845
0.2173966,0.005491816674651419,0.0014761588434908412,0.0011713912602382929,0.0014710010187033917,0.006838514530480399,0.002305863552306177,0.001177938255304795,0.00102010077060016
0.2178621,0.005480129286942024,0.001478867580103252,0.001174578118941648,0.0014692220252804338,0.006862446419449134,0.00230276265214414,0.0011816414063903415,0.0010205351527948262
0.2183276,0.005468364464314863,0.0014816053227404203,0.0011777537474377674,0.0014674313310931793,0.0068864022515471674,0.002299697798261642,0.0011853937664407699,0.0010210842179369506
0.2187931,0.005456523983248882,0.0014843724507225104,0.001180917696282354,0.0014656295159459851,0.006910379817486507,0.0022966689692368687,0.0011891954673068001,0.0010217481193693764
0.2192586,0.005444609617998655,0.0014871693426942272,0.0011840695166528172,0.001463817166076151,0.006934376927083133,0.002293676149172941,0.0011930466337149257,0.0010225269821090694
0.2197241,0.005432623140753074,0.001489996376367038,0.0011872087604255744,0.0014619948740234828,0.006958391410478585,0.002290719327889533,0.0011969473830199368,0.0010234209026570987
0.2201897,0.00542056632181362,0.0014928539282577555,0.001190334980253941,0.0014601632385017875,0.006982421119345202,0.002287798501108368,0.0012008978249605816,0.0010244299488132722
0.2206552,0.005408440929791897,0.0014957423734237002,0.001193447729646567,0.0014583228642723663,0.007006463928073925,0.0022849136706323595,0.0012048980614184676,0.0010255541594955408
0.2211207,0.005396248731826059,0.0014986620851946666,0.0011965465630463688,0.0014564743620195833,0.007030517734943512,0.0022820648445181376,0.0012089481861802997,0.0010267935445642906
0.2215862,0.005383991493815722,0.0015016134349019256,0.001199631035909911,0.0014546183482285755,0.007054580463270048,0.0022792520372416996,0.0012130482847035433,0.0010281480846516327
0.2220517,0.005371670980674901,0.001504596791604493,0.0012027007047871762,0.0014527554450651744,0.007078650062535519,0.0022764752698569077,0.0012171984338855888,0.001029617730995805
0.2225172,0.0053592889566025075,0.0015076125218129002,0.0012057551274016727,0.0014508862802581036,0.00710272450949421,0.0022737345701465523,0.0012213987018364959,0.0010312024052807937
0.2229828,0.005346847185369883,0.0015106609892107084,0.0012087938627308218,0.001449011486983508,0.0071268018092556455,0.0022710299727656965,0.001225649147655381,0.0010329019994812835
0.2234483,0.005334347430624814,0.0015137425543740128,0.0012118164710865672,0.0014471317037518794,0.007150879996342761,0.0022683615193770075,0.001229949821210516,0.001034716375713046
0.2239138,0.005321791456211465,0.0015168575744891732,0.0012148225141961474,0.0014452475742974303,0.007174957135723955,0.00226572925877777,0.0012343007629231966,0.0010366453660888703
0.2243793,0.00530918102650558,0.0015200064030690013,0.0012178115552829653,0.0014433597474699702,0.007199031323817609,0.002263133247018268,0.0012387020035554434,0.0010386887725801356
0.2248448,0.005296517906764331,0.0015231893896676257,0.0012207831591474917,0.0014414688771293442,0.007223100689467645,0.002260573547511217,0.001243153564001592,0.0010408463668841166
0.2253103,0.005283803863490047,0.0015264068795942465,0.0012237368922481304,0.0014395756220424842,0.007247163394888606,0.002258050231131888,0.0012476554550838403,0.001043117890297114
0.2257759,0.0052710406648071185,0.0015296592136259854,0.0012266723227819707,0.0014376806457831084,0.007271217636578724,0.002255563376308569,0.0012522076773518072,0.001045503053593494
0.2262414,0.005258230080851262,0.001532946727720024,0.0012295890207653446,0.0014357846166341156,0.007295261646199343,0.0022531130691029774,0.0012568102208861613,0.001048001536910721
0.2267069,0.005245373884170327,0.001536269752725219,0.0012324865581141023,0.0014338882074927026,0.007319293691419066,0.0022506994032802314,0.0012614630651063689,0.0010506129896404616
0.2271724,0.005232473850135794,0.0015396286140933837,0.0012353645087235107,0.0014319920957782297,0.007343312076720936,0.00224832248036797,0.0012661661785826033,0.001053337030325839
0.2276379,0.005219531757364102,0.0015430236315904214,0.0012382224485476805,0.001430096963342856,0.007367315144170911,0.0022459824097042073,0.0012709195188518522,0.001056173246564918
0.2281034,0.005206549388146887,0.0015464551190074926,0.001241059955678429,0.001428203496384961,0.007391301274145885,0.002243679308473489,0.0012757230322382538,0.0010591211949205026
0.228569,0.005193528528889201,0.0015499233838724116,0.0012438766104234833,0.0014263123853653535,0.007415268886019542,0.0022414133017309196,0.001280576653677686,0.0010621804008363238
0.2290345,0.005180470970554762,0.0015534287271614725,0.0012466719953839384,0.0014244243249262759,0.007439216438804264,0.0022391845224136193,0.001285480306546621,0.0010653503585597085
0.2295,0.005167378509117226,0.0015569714430119048,0.0012494456955308942,0.0014225400138132068,0.00746314243174743,0.0022369931113391485,0.0012904339024952544,0.0010686305310708146
0.2299655,0.005154252946016477,0.0015605518184351802,0.0012521972982812086,0.0014206601547994608,0.007487045404880365,0.002234839217190441,0.0012954373412849016,0.0010720203500185251
0.230431,0.005141096088618901,0.0015641701330313792,0.0012549263935723127,0.0014187854546135867,0.007510923939518208,0.002232722996486778,0.001300490510629649,0.0010755192156630998
0.2308966,0.005127909750680593,0.001567826658704848,0.0012576325739360474,0.0014169166238695613,0.007534776658709011,0.0022306446135403335,0.0013055932860422399,0.0010791264968256894
0.2313621,0.005114695752812413,0.00157152165938136,0.001260315434571485,0.0014150543769997804,0.007558602227630371,0.002228604240397838,0.0013107455306841616,0.0010828415308448132
0.2318276,0.005101455922945794,0.0015752553907270078,0.0012629745734166996,0.0014131994321908532,0.007582399353932028,0.0022266020567668953,0.001315947095219901,0.0010866636235398993
0.2322931,0.005088192096798209,0.0015790280998690428,0.0012656095912194417,0.0014113525113222125,0.0076061667880228745,0.002224638249926497,0.0013211978176753303,0.0010905920491819847
0.2327586,0.0050749061183371505,0.0015828400251188825,0.0012682200916066784,0.0014095143399075582,0.007629903323300964,0.002222713014621271,0.0013264975233001951,0.0010946260504716648
0.2332241,0.005061599840241535,0.0015866913956975085,0.0012708056811529431,0.0014076856470391576,0.007653607796325128,0.002220826552939019,0.0013318460244346908,0.0010987648385243818
0.2336897,0.005048275124359496,0.0015905824314634649,0.001273365969447441,0.001405867165335025,0.007677279086926992,0.0022189790741711135,0.0013372431203801285,0.001103007592863139
0.2341552,0.005034933842161573,0.0015945133426436716,0.0012759005691598418,0.0014040596308890114,0.007700916118262343,0.0022171707946553516,0.0013426885972737106,0.001107353461418723
0.2346207,0.005021577875188405,0.0015984843295672533,0.0012784090961046968,0.0014022637832238215,0.007724517856801113,0.0022154019376009137,0.0013481822279674575,0.0011118015605375113
0.2350862,0.005008209115492093,0.0016024955824025834,0.001280891169304408,0.0014004803652469771,0.007748083312255577,0.0022136727328951143,0.0013537237719113268,0.001116350974996935
0.2355517,0.004994829466070446,0.0016065472808977368,0.0012833464110506966,0.0013987101232097346,0.007771611537446641,0.002211983416891677,0.0013593129750405775,0.0011210007580286637
0.2360172,0.004981440841293356,0.0016106395941245404,0.001285774446964515,0.0013969538066689563,0.007795101628108465,0.0022103342321803075,0.0013649495696674385,0.0011257499313495703
0.2364828,0.00496804516732056,0.0016147726802264015,0.0012881749060543683,0.0013952121684519376,0.007818552722631884,0.0022087254273373824,0.00137063327437714,0.0011305974852005407
0.2369483,0.004954644382510107,0.0016189466861700889,0.0012905474207730088,0.0013934859646241643,0.00784196400174734,0.0022071572566576005,0.0013763637939283656,0.0011355423783932074
0.2374138,0.004941240437816823,0.0016231617475016352,0.0012928916270724788,0.001391775954459988,0.00786533468814817,0.0022056299798664768,0.0013821408191581875,0.001140583538364693
0.2378793,0.0049278352971801635,0.001627417988106507,0.0012952071644574733,0.0013900829004161877,0.007888664046055255,0.0022041438618135853,0.0013879640268915203,0.0011457198612404768
0.2383448,0.004914430937900832,0.001631715519974195,0.0012974936760370092,0.0013884075681083801,0.007911951380724182,0.002202699172146487,0.001393833079855137,0.0011509502119055042
0.2388103,0.004901029351005537,0.0016360544429673616,0.001299750808574382,0.0013867507262902432,0.007935196037896306,0.002201296184965339,0.0013997476265962701,0.001156273424083674
0.2392759,0.004887632541599235,0.001640434844595683,0.0013019782125353939,0.0013851131468355009,0.007958397403195311,0.002199935178458254,0.0014057073014058204,0.001161688300425835
0.2397414,0.004874242529204179,0.001644856799794521,0.001304175542134839,0.0013834956047226123,0.007981554901471054,0.0021986164345175452,0.0014117117242461858,0.0011671936126064208
0.2402069,0.004860861348085058,0.0016493203707085545,0.0013063424553812254,0.0013818988780220987,0.008004667996092625,0.0021973402383371203,0.0014177605006837222,0.0011727881014288555
0.2406724,0.004847491047559527,0.0016538256064804815,0.0013084786141197126,0.001380323747886425,0.008027736188192648,0.0021961068779913326,0.0014238532218258514,0.0011784704769398496
0.2411379,0.004834133692293325,0.0016583725430449174,0.0013105836840732452,0.0013787709985423526,0.008050759015864852,0.0021949166439957134,0.0014299894642628135,0.0011842394185527132
0.2416034,0.0048207913625792406,0.0016629612029275766,0.001312657334881855,0.0013772414172856682,0.008073736053316972,0.002193769828850072,0.0014361687900140692,0.0011900935751798139
0.242069,0.004807466154599144,0.0016675915950498327,0.0013146992401401056,0.0013757357944781943,0.008096666909981029,0.002192666726564523,0.001442390746479337,0.0011960315653743137
0.2425345,0.004794160180668319,0.0016722637145387363,0.0013167090774326552,0.0013742549235469777,0.008119551229583011,0.0021916076321690653,0.00144865486639426,0.0012020519774813246
0.243,0.004780875569461407,0.0016769775425425643,0.001318686528367907,0.0013727996009855463,0.008142388689173974,0.002190592841207363,0.0014549606677906805,0.0012081533697986184
0.2434655,0.004767614466219373,0.0016817330460519684,0.001320631278609723,0.0013713706263571263,0.008165178998124514,0.0021896226492154154,0.0014613076539615184,0.00121433427074703
0.243931,0.004754379032936974,0.001686530177726788,0.0013225430179071684,0.001369968802299694,0.008187921897084555,0.0021886973511857886,0.0014676953134302472,0.0012205931790506823
0.2443966,0.004741171448530304,0.0016913688757285786,0.0013244214401222575,0.0013685949345327336,0.008210617156910337,0.0021878172410181125,0.001474123119924975,0.0012269285639271586
0.2448621,0.0047279939089840085,0.0016962490635588966,0.001326266243255667,0.001367249831865563,0.00823326457756042,0.002186982610956518,0.0014805905323571572,0.0012333388652877417
0.2453276,0.004714848627477784,0.0017011706499033903,0.0013280771294703732,0.0013659343062070828,0.008255863986962477,0.0021861937510147173,0.0014870969948049709,0.0012398224939478447
0.2457931,0.004701737834491744,0.0017061335284817318,0.0013298538051131719,0.0013646491725767982,0.008278415239852557,0.0021854509483894284,0.001493641936501401,0.0012463778318477598
0.2462586,0.0046886637778902375,0.0017111375779034356,0.0013315959807340216,0.0013633952491169693,0.008300918216588469,0.002184754486862861,0.0015002247718270865,0.0012530032322838568
0.2467241,0.004675628722983687,0.0017161826615296138,0.0013333033711031555,0.0013621733571057542,0.00832337282193884,0.002184104646194968,0.0015068449003079888,0.0012596970201503685
0.2471897,0.004662634952568016,0.0017212686273407227,0.001334975695225896,0.001360984320971217,0.008345778983849418,0.0021835017015061865,0.0015135017066179454,0.001266457492191904
0.2476552,0.004649684766941218,0.001726395307810354,0.001336612676355117,0.0013598289683060824,0.008368136652188052,0.0021829459226513806,0.00152019456058618,0.0012732829172668173
0.2481207,0.004636780483896626,0.0017315625197851278,0.001338214042001292,0.0013587081298831157,0.008390445797469854,0.0021824375735857017,0.0015269228172098445,0.001280171536621561
0.2485862,0.004623924438692469,0.001736770064370751,0.0013397795239400879,0.0013576226396710123,0.008412706409563946,0.0021819769117230855,0.0015336858166716694,0.0012871215641761357
0.2490517,0.00461111898399733,0.0017420177268242965,0.0013413088582174691,0.0013565733348506733,0.008434918496383198,0.0021815641872881117,0.0015404828843628019,0.0012941311868207412
0.2495172,0.004598366489811146,0.0017473052764527762,0.0013428017851523054,0.0013555610558317389,0.00845708208255832,0.0021811996426619375,0.0015473133309109176,0.0013011985647237256
0.2499828,0.004585669343361485,0.001752632466518069,0.001344258049336484,0.0013545866462692428,0.008479197208097642,0.0021808835117230283,0.0015541764522137124,0.0013083218316509164
0.2504483,0.004573029948974808,0.001757999034148269,0.0013456773996325406,0.0013536509530802383,0.008501263927033894,0.0021806160191834,0.0015610715294778815,0.0013154990952964117
0.2509138,0.0045604507279225276,0.0017634047002555134,0.0013470595891688277,0.0013527548264602475,0.008523282306059256,0.0021803973799210865,0.0015679978292637152,0.0013227284376249012
0.2513793,0.0045479341182416404,0.0017688491694603334,0.0013484043753322467,0.0013518991198993666,0.008545252423149902,0.0021802277983095537,0.0015749546035354418,0.0013300079152255763
0.2518448,0.00453548257452973,0.0017743321300225624,0.0013497115197585636,0.0013510846901978553,0.008567174366181273,0.002180107467544769,0.001581941089717459,0.0013373355596776855
0.2523103,0.0045230985677141775,0.0017798532537788279,0.00135098078832033,0.0013503123974810348,0.008589048231535204,0.0021800365689706464,0.001588956510756594,0.001344709377927774
0.2527759,0.004510784584795401,0.0017854121960866444,0.0013522119511124237,0.0013495831052133147,0.008610874122700028,0.0021800152714035815,0.0015960000751905185,0.00135212735267865
0.2532414,0.004498543128563928,0.0017910085957751074,0.0013534047824352272,0.0013488976802111562,0.008632652148864725,0.002180043730456781,0.0016030709772224397,0.0013595874427901101
0.2537069,0.0044863767172911425,0.0017966420751021914,0.001354559060775445,0.0013482569926547827,0.008654382423508215,0.0021801220878650824,0.0016101683968021785,0.0013670875836914612
0.2541724,0.004474287884393525,0.001802312239718645,0.0013556745687845872,0.001347661916098435,0.008676065062984937,0.0021802504708109383,0.0016172914997137303,0.001374625687805865
0.2546379,0.004462279178070259,0.001808018678638467,0.001356751093255135,0.0013471133274789652,0.008697700185107952,0.002180428991252234,0.001624439437669397,0.001382199644986534
0.2551034,0.004450353160914078,0.0018137609642159486,0.001357788425094422,0.0013466121071225672,0.008719287907730923,0.0021806577452525926,0.0016316113484105652,0.001389807322964803
0.255569,0.004438512409495278,0.0018195386521292648,0.0013587863592962588,0.001346159138749429,0.008740828347330396,0.0021809368123148153,0.0016388063558152011,0.0013974465678101013
0.2560345,0.004426759513918861,0.0018253512813705942,0.0013597446949103302,0.0013457553094761018,0.008762321617589872,0.0021812662547181,0.0016460235700121093,0.0014051152044018461
0.2565,0.004415097077354781,0.0018311983742427557,0.0013606632350093991,0.0013454015098153655,0.0087837678279871,0.0021816461168596836,0.0016532620875020119,0.0014128110369132768
0.2569655,0.0044035277155413145,0.0018370794363623613,0.0013615417866543395,0.0013450986336733793,0.008805167082386099,0.0021820764246015386,0.0016605209912854862,0.0014205318493072498
0.257431,0.0043920540562615495,0.0018429939566694971,0.0013623801608570233,0.0013448475783438838,0.008826519477635287,0.0021825571846227597,0.0016677993509977966,0.0014282754058440091
0.2578966,0.004380678738793019,0.001848941407443957,0.0013631781725410828,0.0013446492444992237,0.008847825102173162,0.002183088383778243,0.0016750962230506654,0.0014360394516009611
0.2583621,0.004369404413330485,0.001854921244328068,0.0013639356405005666,0.0013445045361779526,0.008869084034642873,0.002183669988464264,0.0016824106507810324,0.0014438217130044648
0.2588276,0.0043582337403819185,0.0018609329063561484,0.0013646523873565013,0.0013444143607687757,0.008890296342517008,0.002184301943991536,0.0016897416646068594,0.001451619898373656
0.2592931,0.004347169390137708,0.0018669758159906543,0.0013653282395113715,0.001344379628990586,0.008911462080733863,0.0021849841739663136,0.0016970882821900457,0.0014594316984763136
0.2597586,0.004336214041813156,0.0018730493791650727,0.0013659630271015302,0.0013444012548683459,0.008932581290346383,0.002185716579680108,0.001704449508606524,0.0014672547870967704
0.2602241,0.0043253703829643315,0.0018791529853336196,0.0013665565839475504,0.0013444801557045756,0.008953653997184967,0.0021864990395085515,0.0017118243365236104,0.001475086821615858
0.2606897,0.0043146411087773605,0.0018852860075278103,0.0013671087475025385,0.001344617252046213,0.008974680210535258,0.002187331408319956,0.0017192117463846713,0.0014829254436028645
0.2611552,0.004304028921331216,0.0018914478024199676,0.0013676193587984279,0.0013448134676466005,0.008995659921832024,0.0021882135168940944,0.0017266107066011684,0.0014907682794194702
0.2616207,0.004293536528834092,0.0018976377103937336,0.0013680882623902748,0.0013450697294223656,0.00901659310337021,0.002189145171351751,0.00173402017375214,0.0014986129408356141
0.2620862,0.00428316664483347,0.0019038550556216523,0.0013685153062985898,0.0013453869674049527,0.009037479707034193,0.002190126152595559,0.0017414390927911723,0.0015064570256572319
0.2625517,0.004272921987399996,0.0019100991461498793,0.0013689003419497313,0.0013457661146865595,0.009058319663046209,0.0021911562157626617,0.0017488663972609138,0.001514298118365792
0.2630172,0.004262805278285335,0.0019163692739900665,0.0013692432241143998,0.00134620810736022,0.009079112878734976,0.002192235089689706,0.0017563010095151882,0.0015221337907695477
0.2634828,0.004252819242054232,0.001922664715218462,0.0013695438108442678,0.0013467138844537809,0.009099859237325543,0.0021933624763906777,0.0017637418409487584,0.0015299616026664031
0.2639483,0.004242966605191009,0.0019289847300822483,0.0013698019634067818,0.0013472843878575087,0.009120558596751378,0.002194538050548061,0.0017711877922347915,0.0015377791025182914
0.2644138,0.00423325009518078,0.0019353285631131371,0.0013700175462181736,0.0013479205622450687,0.009141210788489755,0.0021957614590178078,0.0017786377535700748,0.001545583828136941
0.2648793,0.004223672439565685,0.0019416954432482343,0.0013701904267747153,0.001348623354987611,0.009161815616421475,0.002197032320348572,0.0017860906049280297,0.0015533733073809074
0.2653448,0.004214236364976459,0.0019480845839581794,0.0013703204755822513,0.0013493937160607013,0.009182372855715975,0.0021983502243156645,0.0017935452163195462,0.0015611450588637183
0.2658103,0.00420494459613965,0.001954495183382569,0.0013704075660840546,0.0013502325979438254,0.009202882251742771,0.0021997147314701537,0.0018010004480616697,0.001568896592672986
0.2662759,0.00419579985486084,0.001960926424472668,0.0013704515745870522,0.0013511409555122117,0.00922334351901021,0.002201125372703545,0.0018084551510541469,0.0015766254111003214
0.2667414,0.004186804858984186,0.0019673774751414004,0.0013704523801864798,0.0013521197459207092,0.009243756340132471,0.002202581648828431,0.0018159081670638326,0.0015843290093818694
0.2672069,0.0041779623213286125,0.0019738474884206303,0.001370409864689019,0.0013531699284794678,0.009264120364825764,0.0022040830301755065,0.0018233583290169523,0.0015920048764492762
0.2676724,0.004169274948600946,0.0019803356026257147,0.0013703239125344884,0.0013542924645211587,0.009284435208934655,0.002205628956207334,0.0018308044612992001,0.0015996504956908891
0.2681379,0.004160745440286323,0.0019868409415273384,0.0013701944107161659,0.001355488317259475,0.009304700453489472,0.0022072188351492127,0.0018382453800636362,0.0016072633457229757
0.2686034,0.004152376487516184,0.0019933626145306332,0.0013700212486998198,0.0013567584516386473,0.009324915643795683,0.00220885204363751,0.001845679893546344,0.0016148409011707372
0.269069,0.004144170771914247,0.001999899716861605,0.001369804318341553,0.0013581038341737089,0.009345080288556079,0.0022105279263858043,0.001853106802389791,0.001622380633458886
0.2695345,0.004136130964420928,0.002006451329760894,0.0013695435138045525,0.0013595254327812443,0.009365193859026542,0.002212245795869172,0.0018605248999738486,0.0016298800116115375
0.27,0.004128259724096791,0.0020130165206848935,0.0013692387314748512,0.0013610242166003604,0.009385255788206065,0.0022140049320269616,0.0018679329727544084,0.001637336503061164
0.2704655,0.004120559696905719,0.0020195943435142665,0.0013688898698762234,0.0013626011558036224,0.00940526547006167,0.002215804581984365,0.0018753298006095513,0.0016447475744663475
0.270931,0.004113033514478597,0.0020261838387698847,0.0013684968295843386,0.0013642572213977012,0.009425222258788774,0.0022176439597930966,0.0018827141571932102,0.001652110692538063
0.2713966,0.004105683792858371,0.0020327840338362187,0.001368059513140319,0.0013659933850134736,0.00944512546810753,0.002219522246191472,0.0018900848102962734,0.0016594233248742177
0.2718621,0.004098513131227398,0.0020393939431922014,0.001367577824963849,0.0013678106186853156,0.00946497437059557,0.0022214385883841427,0.0018974405222150683,0.001666682940802161
0.2723276,0.004091524110618069,0.002046012568649578,0.0013670516712659966,0.001369709894619321,0.00948476819705753,0.0022233920998417493,0.001904780050127163,0.0016738870122288733
0.2727931,0.004084719292607809,0.002052638899598742,0.0013664809599619166,0.0013716921849501764,0.009504506135931665,0.0022253818601207236,0.0019121021464744098,0.0016810330144985395
0.2732586,0.004078101217999655,0.002059271913262052,0.0013658656005836106,0.0013737584614864169,0.00952418733273383,0.002227406914703456,0.0019194055593531603,0.0016881184272572044
0.2737241,0.004071672405489757,0.0020659105749546115,0.001365205504192927,0.0013759096954438057,0.009543810889538998,0.0022294662748590243,0.001926689032911583,0.0016951407353242012
0.2741897,0.004065435350323257,0.0020725538383524747,0.0013645005832949879,0.001378146857166582,0.009563375864500512,0.0022315589175246646,0.001933951307754023,0.0017020974295700413
0.2746552,0.004059392522940058,0.0020792006457682416,0.0013637507517522305,0.0013804709158363544,0.009582881271407155,0.0022336837852081535,0.001941191121352346,0.0017089860078004396
0.2751207,0.004053546367612061,0.002085849928433982,0.0013629559246992572,0.0013828828391684353,0.009602326079278134,0.0022358397859112357,0.0019484072084642173,0.0017158039756461421
0.2755862,0.004047899301073407,0.002092500606791418,0.0013621160184586862,0.001385383593095437,0.009621709211996001,0.00223802579307423,0.0019555983015582482,0.0017225488474582136
0.2760517,0.0040424537111452925,0.0020991515907893056,0.0013612309504582116,0.0013879741414379579,0.009641029547977568,0.0022402406455419217,0.0019627631312459414,0.0017292181472084295
0.2765172,0.004037211955356893,0.002105801780187925,0.0013603006391490788,0.0013906554455621993,0.009660285919882754,0.002242483147550843,0.001969900426720349,0.001735809409394414
0.2769828,0.0040321763595639075,0.0021124500648706116,0.0013593250039261899,0.0013934284640243523,0.00967947711436134,0.0022447520687380205,0.001977008916201337,0.001742320179949151
0.2774483,0.004027349216566196,0.002119095325162238,0.0013583039650500604,0.0013962941522016146,0.009698601871837529,0.0022470461441712764,0.0019840873273873523,0.0017487480171544923
0.2779138,0.0040227327847259875,0.0021257364321545734,0.0013572374435708442,0.0013992534619097123,0.009717658886332243,0.0022493640744011513,0.0019911343879135627,0.0017550904925582706
0.2783793,0.004018329286588089,0.002132372248038439,0.0013561253612546476,0.0014023073410068417,0.009736646805323023,0.002251704525534514,0.001998148825816255,0.0017613451918946175
0.2788448,0.004014140907503492,0.0021390016264425872,0.0013549676405123392,0.001405456732983978,0.009755564229641345,0.0022540661293299,0.00200512937000336,0.0017675097160070722
0.2793103,0.004010169794257737,0.0021456234127792445,0.0013537642043310685,0.0014087025765415298,0.009774409713407145,0.0022564474833146123,0.0020120747507309774,0.0017735816817740686
0.2797759,0.0040064180537053885,0.002152236444596256,0.0013525149762086902,0.0014120458051523406,0.009793181764000262,0.0022588471509236,0.002018983700085763,0.0017795587230363652
0.2802414,0.00400288775141191,0.0021588395519357754,0.0013512198800912927,0.0014154873466110465,0.009811878842068458,0.0022612636616600977,0.002025854952473025,0.001785438491525978
0.2807069,0.003999580910304229,0.0021654315576994476,0.0013498788403140131,0.001419028122569794,0.00983049936157168,0.002263695511278007,0.0020326872451103873,0.0017912186577961594
0.2811724,0.003996499509331253,0.002172011278020035,0.0013484917815453205,0.0014226690480603438,0.0098490416898622,0.002266141161985977,0.0020394793185268536,0.0017968969121519606
0.2816379,0.003993645482135585,0.0021785775226394427,0.0013470586287349306,0.0014264110310025849,0.009867504147800363,0.0022685990426731233,0.0020462299170670986,0.001802470965580893
0.2821034,0.003991020715737635,0.002185129095293089,0.0013455793070655153,0.001430254971699515,0.00988588500990576,0.002271067549156307,0.0020529377894008037,0.0018079385506831996
0.282569,0.003988627049233351,0.002191664794100562,0.0013440537419083588,0.0014342017623187632,0.00990418250454376,0.0022735450444488947,0.0020596016890368296,0.0018132974226012285
0.2830345,0.003986466272506742,0.002198183411962498,0.001342481858783099,0.0014382522863607568,0.009922394814147386,0.002276029859050899,0.002066220374842016,0.0018185453599473967
0.2835,0.003984540124958363,0.0022046837369636,0.0013408635833216925,0.0014424074181136597,0.009940520075474607,0.002278520291260401,0.0020727926115643685,0.0018236801657302187
0.2839655,0.003982850294250912,0.0022111645527817187,0.0013391988412367287,0.0014466680220952145,0.009958556379901083,0.0022810146075061353,0.0020793171703603845,0.0018286996682778693
0.284431,0.003981398415073076,0.0022176246391029043,0.00133748755829422,0.0014510349524816297,0.009976501773748423,0.002283511042701132,0.0020857928293262556,0.001833601722158737
0.2848966,0.003980186067922746,0.0022240627720423517,0.0013357296602909817,0.0014555090525236643,0.009994354258647998,0.0022860078006172735,0.0020922183740326697,0.0018383842090984085
0.2853621,0.00397921477791071,0.002230477724571138,0.0013339250730367194,0.0014600911539500625,0.01001211179194039,0.0022885030542806324,0.0020985925980629106,0.0018430450388925161
0.2858276,0.003978486013585914,0.002236868266948661,0.0013320737223409273,0.0014647820763585102,0.010029772287110578,0.002290994946387437,0.002104914303553953,0.0018475821503148627
0.2862931,0.003978001185783351,0.0022432331671606567,0.0013301755340046986,0.0014695826265942909,0.010047333614258967,0.002293481589740508,0.002111182301740232,0.0018519935120202325
0.2867586,0.003977761646495618,0.0022495711913626815,0.0013282304338175413,0.0014744935981168296,0.01006479360060845,0.002295961067706005,0.0021173954134997694,0.001856277123441295
0.2872241,0.003977768687769193,0.002255881104328907,0.0013262383475592953,0.0014795157703543275,0.010082150031047616,0.0022984314346903103,0.00212355246990233,0.0018604310156790122
0.2876897,0.003978023540626388,0.0022621616699060854,0.0013241992010072365,0.0014846499080467086,0.010099400648710281,0.002300890716636879,0.0021296523127592682,0.0018644532523859729
0.2881552,0.003978527374013988,0.002268411651472525,0.001322112919948452,0.0014898967605771229,0.010116543155591545,0.0023033369115428542,0.0021356937951747383,0.0018683419306421089
0.2886207,0.003979281293779487,0.0022746298124019363,0.0013199794301975599,0.001495257061292266,0.010133575213200576,0.0023057679899952553,0.0021416757820979185,0.0018720951818222591
0.2890862,0.003980286341675847,0.002280814916532013,0.0013177986576198457,0.0015007315268118122,0.010150494443250408,0.0023081818957265254,0.0021475971508759083,0.0018757111724550758
0.2895517,0.003981543494395652,0.0022869657286376265,0.0013155705281598681,0.001506320856327269,0.010167298428385036,0.0023105765461892288,0.002153456791806957,0.0018791881050727714
0.2900172,0.003983053662635505,0.0022930810149085243,0.0013132949678755904,0.001512025730890586,0.01018398471294405,0.002312949833149685,0.002159253608693706,0.0018825242190512303
0.2904828,0.003984817690191505,0.002299159543431416,0.0013109719029780849,0.0015178468126928535,0.010200550803765078,0.0023152996233003318,0.002164986519396144,0.001885717791440014
0.2909483,0.003986836353086595,0.0023052000846763383,0.0013086012598768522,0.0015237847443334324,0.010216994171024297,0.0023176237588905958,0.0021706544563839737,0.0018887671377817933
0.2914138,0.003989110358730588,0.002311201411987163,0.0013061829652308073,0.0015298401480798576,0.010233312249115247,0.0023199200583760445,0.0021762563672881024,0.0018916706129207313
0.2918793,0.003991640345113663,0.0023171623020761126,0.00130371694600498,0.0015360136251188587,0.010249502437566331,0.0023221863170855834,0.0021817912154509555,0.0018944266117993467
0.2923448,0.003994426880034073,0.0023230815355221343,0.001301203129532982,0.0015423057547988318,0.01026556210199743,0.0023244203079064414,0.0021872579804753183,0.0018970335702433601
0.2928103,0.003997470460360855,0.0023289578972729534,0.0012986414435852817,0.0015487170938641062,0.01028148857511617,0.0023266197819866883,0.0021926556587714037,0.0018994899657340347
0.2932759,0.004000771511332228,0.00233479017715064,0.001296031816443329,0.0015552481756813366,0.010297279157754418,0.0023287824694550024,0.002197983264101848,0.001901794318167508
0.2937414,0.0040043303858904,0.002340577170360479,0.0012933741769795572,0.0015618995094583657,0.010312931119945652,0.0023309060801574,0.0022032398281243305,0.001903945190600609
0.2942069,0.004008147364053457,0.002346317678002942,0.0012906684547432925,0.0015686715794558804,0.010328441702043866,0.0023329883044106168,0.0022084244009315055,0.0019059411899826511
0.2946724,0.004012222652324966,0.002352010507588531,0.0012879145800525917,0.00157556484419219,0.010343808115884706,0.002335026813771832,0.0022135360515879274,0.0019077809678726685
0.2951379,0.004016556383141923,0.002357654473555268,0.001285112484092031,0.0015825797356414447,0.01035902754598946,0.002337019261824398,0.0022185738686636316,0.0019094632211415637
0.2956034,0.004021148614361614,0.002363248397788586,0.0012822620990164567,0.0015897166584256136,0.010374097150812592,0.0023389632849792237,0.002223536960764024,0.0019109866926586164
0.296069,0.004025999328787966,0.0023687911101433717,0.0012793633580607138,0.0015969759890005408,0.01038901406403337,0.002340856503291447,0.002228424457055731,0.0019123501719617879
0.2965345,0.004031108433737898,0.002374281448967919,0.0012764161956553542,0.0016043580748364042,0.010403775395892167,0.0023426965212920182,0.0022332355077880556,0.0019135524959112498
0.297,0.004036475760648191,0.002379718261629556,0.001273420547548325,0.0016118632335929027,0.010418378234571939,0.0023444809288337954,0.0022379692848096696,0.0019145925493255541
0.2974655,0.004042101064723317,0.0023851004050417105,0.0012703763509326299,0.0016194917522895124,0.010432819647625356,0.0023462073019517283,0.002242624982080177,0.0019154692655998448
0.297931,0.004047984024624691,0.0023904267461921933,0.0012672835445799479,0.0016272438864711647,0.010447096683447992,0.002347873203736705,0.0022472018161761686,0.0019161816273055114
0.2983966,0.004054124242201722,0.002395696162672473,0.0012641420689801874,0.001635119859369715,0.01046120637279803,0.0023494761852226073,0.002251699026791378,0.001916728666770671
0.2988621,0.004060521242265074,0.0024009075432077248,0.0012609518664869564,0.0016431198610615883,0.010475145730362878,0.0023510137862861142,0.002256115877230564,0.0019171094666408555
0.2993276,0.00406717447240249,0.002406059788187449,0.0012577128814689228,0.0016512440476220023,0.010488911756373162,0.0023524835365587777,0.002260451654896748,0.0019173231604192775
0.2997931,0.00407408330283755,0.0024111518101964523,0.0012544250604670452,0.0016594925402761797,0.010502501438264589,0.0023538829563508885,0.002264705671771443,0.00191736893298603
0.3002586,0.004081247026331698,0.0024161825345460058,0.0012510883523576502,0.0016678654245479724,0.010515911752388236,0.0023552095575866284,0.002268877264887522,0.0019172460210955624
0.3007241,0.004088664858129845,0.002421150899804965,0.0012477027085213322,0.0016763627494063367,0.01052913966576989,0.0023564608447499994,0.0022729657967943636,0.0019169537138517647
0.3011897,0.0040963359359498545,0.0024260558583306547,0.0012442680830176429,0.0016849845264101005,0.010542182137918995,0.002357634315841005,0.0022769706560148936,0.0019164913531599817
0.3016552,0.00410425932001615,0.002430896376799311,0.0012407844327655367,0.001693730728851481,0.010555036122687772,0.002358727463341549,0.002280891257494147,0.0019158583341552665
0.3021207,0.004112433993137682,0.00243567143673586,0.0012372517177295242,0.0017026012908988137,0.010567698570181035,0.0023597377751905005,0.0022847270430389447,0.0019150541056061697
0.3025862,0.0041208588608304605,0.0024403800350428283,0.0012336699011114833,0.0017115961067389596,0.010580166428717199,0.002360662735767368,0.002288477481748273,0.0019140781702933708
0.3030517,0.0041295327514848665,0.0024450211845281605,0.001230038949548073,0.0017207150297198562,0.010592436646840984,0.0023614998268839974,0.002292142070433954,0.0019129300853624757
0.3035172,0.004138454416577925,0.0024495939144317225,0.0012263588333136922,0.001729957871493692,0.010604506175388271,0.002362246528783726,0.00229572033403118,0.0019116094626503266
0.3039828,0.004147622530930734,0.00245409727095025,0.0012226295265289277,0.001739324401161184,0.01061637196960358,0.0023629003211474054,0.0022992118259984786,0.0019101159689842123
