Time,Rectus Femoris right,Rectus Femoris left,Hamstrings right,Hamstrings left,TibilaisÂ Anterior right,TibilaisÂ Anterior left,Gastrocnemius right,Gastrocnemius left
0.0,0.00888243694715967,0.008727725179627546,0.04217317770635406,-0.0009726149431263938,0.019622509313247494,-0.017353189223685277,-0.012018471336742574,-0.0004269130125458157
0.0005192,0.008989330907766385,0.008852607143887723,0.04289365825552217,-0.0009169354711272554,0.020070966795563538,-0.016673871291789426,-0.011475623187595886,-0.0003720868844812216
0.0010385,0.009095756978369984,0.008977798714807406,0.04361309696915011,-0.0008599089434982849,0.020520761760410358,-0.01599621130025874,-0.010932371340917568,-0.00031713144428322535
0.0015577,0.009201698144439587,0.009103280046240485,0.0443313763117373,-0.0008015246375493449,0.02097182998311714,-0.015320302695106758,-0.010388776173124203,-0.0002620521258577486
0.0020769,0.00930713752033388,0.009229031092786295,0.0450483786911247,-0.0007417719667277993,0.0214241066074469,-0.014646238497484912,-0.009844898065811195,-0.00020685438231279906
0.0025962,0.009412058355878113,0.00935503161386578,0.04576398649447823,-0.0006806404843619986,0.021877526159770344,-0.013974111275023814,-0.009300797389089859,-0.00015154368456997723
0.0031154,0.009516444042871124,0.009481261177880607,0.04647808212431662,-0.0006181198874102889,0.022332022563488884,-0.013304013113440231,-0.008756534485023271,-9.612551997903428e-05
0.0036346,0.009620278121514132,0.009607699166453744,0.04719054803455506,-0.0005542000202147574,0.022787529153700047,-0.012636035588430516,-0.008212169651172467,-4.0605390936415356e-05
0.0041538,0.00972354428675344,0.009734324778749966,0.04790126676653645,-0.0004888708782588979,0.023243978692098596,-0.011970269737870317,-0.00766776312426432,1.5011186491305721e-05
0.0046731,0.009826226394529812,0.009861117035874722,0.0486101209850227,-0.0004221226119283511,0.023701303382106808,-0.011306806034339622,-0.007123375063992187,7.071868393822133e-05
0.0051923,0.009928308467927706,0.0099880547853497,0.049316993514119174,-0.00035394553027385167,0.024159434884227303,-0.010645734357991371,-0.006579065536960044,0.00012651156210325722
0.0057115,0.010029774703218093,0.010115116705663394,0.05002176737310662,-0.00028433010477549005,0.024618304331611992,-0.00998714396978119,-0.006034894500780452,0.00018238427210687415
0.0062308,0.010130609475789039,0.010242281310894955,0.05072432581215618,-0.00021326697310738885,0.025077842345840786,-0.009331123485075062,-0.005490921788336043,0.00023833125683948484
0.00675,0.010230797345958654,0.010369526955409469,0.05142455234790447,-0.00014074694290187978,0.025537979052904024,-0.008677760847651175,-0.004947207092213696,0.00029434695230078106
0.0072692,0.01033032306466548,0.01049683183862285,0.05212233079886702,-6.676099551226527e-05,0.025998644099382746,-0.008027143304111622,-0.004403809949319963,0.0003504257889291782
0.0077885,0.010429171579031735,0.010624174009834326,0.05281754532066989,8.699710226757921e-06,0.026459766668821022,-0.007379357378719196,-0.0038607897256860207,0.0004065621929205955
0.0083077,0.010527328037795167,0.010751531373124526,0.053510080441079216,8.564383424193936e-05,0.026921275498284738,-0.006734488848674021,-0.003318205601470095,0.0004627505875358044
0.0088269,0.010624777796605507,0.010878881692317018,0.05419982109480967,0.00016407985146851402,0.0273830988951011,-0.006092622719844208,-0.0027761165561650497,0.0005189853943955969
0.0093462,0.010721506423181678,0.011006202596001113,0.054886652658091985,0.00024401604810238108,0.02784516475377303,-0.005453843202963952,-0.0022345813540185075,0.0005752610347630535
0.0098654,0.010817499702325956,0.011133471582613673,0.055570460982980414,0.0003254605178583722,0.02830740057306243,-0.00481823369031164,-0.0016936585296724743,0.0006315719308122181
0.0103846,0.0109127436407913,0.011260666025577529,0.05625113243138071,0.00040842115823556507,0.028769733473236248,-0.004185876732879536,-0.0011534063740290873,0.0006879125068825202
0.0109038,0.011007224471998093,0.011387763178494142,0.056928553908779975,0.000492905666790601,0.029232090213469075,-0.0035568540180455476,-0.0006138829203486763,0.0007442771907183189
0.0114231,0.011100928660596615,0.011514740180387999,0.05760261289766028,0.0005789215374199688,0.029694397209395842,-0.0029312463477566054,-7.514593058589038e-05,0.0008006604146929998
0.0119423,0.011193842906871698,0.011641574061000274,0.058273197490578216,0.0006664760566522212,0.0301565805508081,-0.002309133617232108,0.0004627471180309356,0.000857056617017134
0.0124615,0.011285954150986264,0.01176824174612925,0.05894019642289357,0.0007555762999510943,0.0306185660194872,-0.0016905947941945661,0.0009997390461725787,0.0009134602429303023
0.0129808,0.011377249577060777,0.011894720063014992,0.059603499105129985,0.0008462291280305165,0.031080279107167746,-0.001075707898632979,0.0015357729853298196,0.000969865745876283
0.0135,0.011467716617086123,0.012020985745765846,0.060262995654950996,0.0009384411831825006,0.03154164503362472,-0.0004645499831026957,0.0020707923904787627,0.0010262675886613683
0.0140192,0.011557342954667834,0.012147015440824378,0.06091857692873435,0.0010322188856189396,0.032002588764877785,0.00014280288643607578,0.0026047410524872297,0.0010826602445956216
0.0145385,0.011646116528600009,0.012272785712470435,0.06157013455272763,0.0011275684298283533,0.03246303503150621,0.0007462756492401992,0.003137563110259146,0.0011390381986169037
0.0150577,0.011734025536267739,0.012398273048359143,0.062217560953767896,0.001224495780948663,0.032922908347068125,0.0013457942678659104,0.0036692030626140565,0.0011953959483975067
0.0155769,0.011821058436877118,0.012523453865091546,0.06286074938954773,0.0013230066711571113,0.033382133026617786,0.0019412857457119942,0.004199605779899086,0.0012517280054332286
0.0160962,0.01190720395451221,0.012648304513815755,0.06349959397841042,0.0014231065960784626,0.03384063320531454,0.0025326781440247405,0.004728716515330774,0.001308028896114726
0.0166154,0.01199245108101852,0.012772801285856308,0.0641339897286567,0.0015248008112126558,0.034298332857117524,0.003119900598365919,0.0052564809160643025,0.0013642931627809805
0.0171346,0.012076789078712674,0.012896920418369418,0.06476383256734675,0.0016280943283830762,0.03475515581356053,0.0037028833345453542,0.005782845033987735,0.0014205153647547219
0.0176538,0.012160207482918106,0.013020638100021695,0.06538901936858119,0.001732991912206643,0.03521102578260165,0.0042815576840200525,0.006307755336239095,0.00147669007935966
0.0181731,0.012242696104326706,0.013143930476689946,0.0660094479812466,0.0018394980765869126,0.035665866367543056,0.004855856098762173,0.006831158715444377,0.0015328119029193949
0.0186923,0.012324245031186822,0.013266773657179659,0.06662501725621191,0.0019476170812314187,0.03611960108601633,0.00542571216559842,0.00735300249967492,0.001588875451737903
0.0192115,0.012404844631318324,0.013389143718959832,0.06723562707296349,0.0020573529281944906,0.03657215338902938,0.005991060620023707,0.007873234462122809,0.001644875363061538
0.0197308,0.012484485553956197,0.013511016713911961,0.06784117836566839,0.0021687093584467987,0.037023446680071036,0.006551837359492244,0.008391802830493272,0.0017008062960225138
0.02025,0.012563158731424755,0.013632368674091108,0.06844157314865654,0.0022816898484728947,0.03747340433426927,0.007107979456189422,0.008908656296113338,0.0017566629325638779
0.0207692,0.012640855380645312,0.013753175617497154,0.06903671454131434,0.0023962976068979997,0.037921949717599435,0.0076594251692881235,0.009423744022756439,0.0018124399783459887
0.0212885,0.012717567004480774,0.013873413553854401,0.06962650679238369,0.002512535571145294,0.03836900620613891,0.008206113956693148,0.009937015655183222,0.0018681321636345313
0.0218077,0.012793285392921261,0.013993058490397801,0.07021085530366133,0.002630406404124949,0.038814497205364944,0.008747986486277516,0.010448421327399362,0.0019237342441701072
0.0223269,0.012868002624115252,0.014112086437664047,0.0707896666530946,0.0027499124909561344,0.039258346169492975,0.009284984646614402,0.010957911670631575,0.0019792410020194606
0.0228462,0.012941711065251093,0.014230473415285765,0.07136284861726984,0.002871055935723234,0.03970047662085293,0.00981705155720846,0.011465437821023354,0.002034647246408428
0.0233654,0.01301440337329383,0.014348195457786947,0.07193031019328998,0.002993838558267502,0.04014081216930163,0.010344131578230324,0.011970951427052024,0.0020899478145367267
0.0238846,0.013086072495582414,0.014465228620377663,0.07249196162003738,0.0031182618910154327,0.04057927653166933,0.010866170319758115,0.012474404656668997,0.0021451375723747176
0.0244038,0.013156711670292214,0.014581548984745984,0.07304771439881844,0.0032443271758451084,0.0410157935512389,0.011383114650529859,0.01297575020416509,0.002200211415442307
0.0249231,0.013226314426767753,0.014697132664844938,0.07359748131338575,0.003372035360991833,0.04145028721725614,0.01189491270621088,0.013474941296762931,0.0022551642695701596
0.0254423,0.013294874585730464,0.014811955812672225,0.07414117644933349,0.0035013870979943846,0.04188268168446998,0.012401513897180371,0.013971931700938496,0.0023099910916434202
0.0259615,0.013362386259366173,0.01492599462404032,0.0746787152128612,0.003632382738683243,0.042312901292701155,0.012902868915841501,0.014466675728473878,0.0023646868703281485
0.0264808,0.01342884385129691,0.015039225344334514,0.0752100143489015,0.003765022332212176,0.04274087058643825,0.013398929743459605,0.014959128242243202,0.002419246626780688
0.027,0.01349424205644164,0.01515162427425635,0.07573499195860686,0.0038993056221345974,0.0431665143344599,0.01388964965653314,0.015449244661733677,0.002473665415340185
0.0275192,0.013558575860770312,0.01526316777554982,0.07625356751619218,0.0040352320435261225,0.04358975754948187,0.014374983232702183,0.01593698096830359,0.002527938324204478
0.0280385,0.013621840540955617,0.01537383227670766,0.07676566188513131,0.004172800720154783,0.04401052550782778,0.014854886356199401,0.016422293710178972,0.0025820604760895625
0.0285577,0.013684031663926677,0.01548359427865499,0.07727119733370785,0.004312010461700377,0.04442874376912195,0.01532931622284844,0.01690514000719076,0.002636027028872818
0.0290769,0.013745145086328807,0.015592430360407493,0.07777009754992183,0.004452859761024463,0.044844338196002774,0.015798231344614812,0.017385477555254245,0.00268983317622018
0.0295962,0.013805176953893331,0.015700317184701388,0.07826228765575599,0.00459534679149252,0.04525723497385495,0.01626159155371435,0.017863264630592988,0.0027434741481974236
0.0301154,0.013864123700721398,0.015807231503592506,0.07874769422080587,0.004739469404349814,0.04566736063055855,0.016719358006284497,0.018338460093709583,0.002796945211865733
0.0306346,0.013921982048485626,0.015913150164021925,0.07922624527527865,0.0048852251261525025,0.04607464205625275,0.017171493185623662,0.01881102339310604,0.0028502416718617102
0.0311538,0.013978749005553268,0.01601805011334576,0.07969787032236599,0.005032611156255512,0.04647900652311201,0.01761796090500404,0.019280914568756833,0.002903358870961986
0.0316731,0.014034421866034544,0.016121908404826902,0.08016250034999613,0.005181624364358707,0.04688038170513176,0.018058726310063396,0.019748094255337693,0.002956292190632614
0.0321923,0.014088998208759645,0.016224702203086746,0.080620067841971,0.005332261288112886,0.047278695697920856,0.018493755880781348,0.02021252368521349,0.0030090370515634397
0.0327115,0.014142475896187843,0.01632640878951505,0.0810705067884937,0.005484518130787142,0.0476738770384972,0.018923017433045818,0.020674164691188334,0.0030615889141876965
0.0332308,0.01419485307325204,0.01642700556763635,0.08151375269609241,0.005638390758999208,0.04806585472508311,0.019346480119815324,0.021132979709021293,0.0031139432791870863
0.03375,0.014246128166141991,0.016526470068431384,0.08194974259694687,0.005793874700510402,0.048454558236896296,0.019764114431882838,0.021588931779710996,0.0031660956879826347
0.0342692,0.014296299881029387,0.016624779955612203,0.0823784150576242,0.005950965142086906,0.04883991755393257,0.02017589219824703,0.022041984551552398,0.0032180417232116074
0.0347885,0.014345367202737868,0.01672191303084945,0.08279971018723142,0.006109656927429131,0.04922186317673567,0.020581786586096735,0.02249210228196896,0.003269777009190763
0.0353077,0.014393329393360944,0.016817847238950388,0.08321356964499167,0.006269944555170993,0.04960032614614988,0.0209817721004145,0.022939249839123425,0.0033212972123662097
0.0358269,0.014440185990830731,0.016912560672986278,0.08361993664725173,0.006431822176951014,0.049975238063050695,0.021375824583205215,0.0233833927033105,0.0033725980417501464
0.0363462,0.014485936807440232,0.017006031579367788,0.08401875597392824,0.006595283595557174,0.05034653110804877,0.02176392121235561,0.02382449696813465,0.0034236752493447715
0.0368654,0.014530581928321832,0.01709823836286726,0.08440997397440014,0.006760322263147488,0.05071413806116195,0.02214604050013045,0.024262529341476713,0.0034745246305536866
0.0373846,0.014574121709884572,0.0171891595915869,0.08479353857285529,0.006926931279548277,0.05107799232145022,0.022522162291311057,0.024697457146253,0.003525142024581178
0.0379038,0.014616556778212627,0.017278774001872273,0.08516939927309986,0.007095103390632101,0.051438027926608086,0.022892267760981744,0.025129248320970795,0.0035755233148198145
0.0384231,0.0146578880274273,0.01736706050317074,0.08553750716283938,0.007264830986777295,0.05179417957250847,0.023256339411969598,0.02555787142008416,0.003625664429226848
0.0389423,0.014698116618014704,0.017453998182834784,0.08589781491744163,0.007436106101410986,0.05214638263269228,0.023614361071942976,0.025983295614153877,0.0036755613406899428
0.0394615,0.014737243975121233,0.01753956631087032,0.08625027680319164,0.00760892040963744,0.052494573177797065,0.023966317890174036,0.02640549068981535,0.003725210067382801
0.0399808,0.014775271786818735,0.017623744344630397,0.08659484868005005,0.007783265226953546,0.05283868799491789,0.024312196333970748,0.026824427049558234,0.0037746066731112874
0.0405,0.014812202002341235,0.017706511933454606,0.08693148800392626,0.007959131508053136,0.053178664606893224,0.024651984184783846,0.027240075711321452,0.0038237472676507416
0.0410192,0.014848036830294911,0.017787848923254586,0.08726015382847777,0.00813650984572184,0.05351444129150788,0.024985670533994503,0.02765240830790733,0.003872628007075187
0.0415385,0.014882778736843008,0.017867735361045998,0.0875808068064472,0.00831539046982411,0.05384595710060529,0.025313245778388487,0.028061397086218624,0.003921245094079215
0.0420577,0.014916430443867175,0.01794615149942727,0.08789340919054865,0.008495763246384007,0.05417315187910029,0.025634701615322608,0.028467014906322446,0.003969594778293316
0.0425769,0.014948994927106714,0.01802307780100539,0.08819792483391507,0.008677617676761297,0.054495966283883944,0.02595003103758926,0.028869235240344997,0.0040176733565934365
0.0430962,0.014980475414277118,0.018098494942768995,0.08849431919011824,0.008860942896924415,0.05481434180261078,0.0262592283279848,0.029268032171201115,0.00406547717340553
0.0436154,0.015010875383169187,0.018172383820409074,0.08878255931277398,0.009045727676821744,0.05512822077235899,0.026562289053587426,0.029663380391162626,0.004113002621005846
0.0441346,0.015040198559730013,0.018244725552587524,0.08906261385474572,0.009231960419852712,0.05543754639815351,0.026859210059750296,0.030055255200269533,0.004160246139817668
0.0446538,0.015068448916127096,0.018315501485153672,0.08933445306695952,0.00941962916244016,0.055742262771341415,0.027149989463815694,0.030443632504588196,0.004207204218705233
0.0451731,0.015095630668796874,0.01838469319530894,0.08959804879684502,0.009608721573705502,0.05604231488780891,0.027434626648555838,0.03082848881432084,0.004253873395265496
0.0456923,0.015121748276479031,0.01845228249571972,0.08985337448641598,0.009799224955248168,0.056337648666028334,0.02771312225534613,0.031209801241770883,0.004300250256118446
0.0462115,0.015146806438237905,0.018518251438578468,0.09010040517000459,0.009991126241030912,0.05662821096492362,0.027985478177076556,0.03158754749916856,0.004346331437196626
0.0467308,0.015170810091472428,0.01858258231961311,0.09033911747166377,0.01018441199737258,0.05691394960154205,0.028251697550806983,0.03196170589636152,0.004392113624034523
0.04725,0.015193764409916072,0.01864525768204487,0.09056948960225067,0.010379068423049958,0.0571948133685199,0.028511784750172072,0.0323322553383749,0.0044375935520584685
0.0477692,0.01521567480162822,0.01870626032049477,0.09079150135620458,0.010575081349510428,0.05747075205132923,0.028765745377541643,0.03269917532284562,0.00448276800687766
0.0482885,0.015236546906978548,0.01876557328483914,0.09100513410803183,0.010772436241197158,0.057741716445293155,0.029013586255942178,0.03306244593733553,0.004527633824576863
0.0488077,0.015256386596625846,0.018823179884014586,0.09121037080850954,0.010971118195988677,0.05800765837235651,0.029255315420745186,0.033422047856528234,0.004572187892011343
0.0493269,0.015275199969492786,0.01887906368977273,0.09140719598061933,0.011171111945754634,0.05826853069759859,0.029490942111128134,0.03377796233931423,0.004616427147104515
0.0498462,0.01529299335073808,0.018933208540385143,0.09159559571522231,0.011372401857029615,0.05852428734547455,0.02972047676131348,0.03413017122576902,0.004660348579148787
0.0503654,0.0153097732897274,0.018985598544298713,0.09177555766648487,0.011574971931806866,0.0587748833157722,0.029943930991591365,0.034478656934028414,0.004703949229110032
0.0508846,0.01532554655800436,0.019036218083741643,0.09194707104706512,0.011778805808453629,0.05902027469927011,0.030161317599131404,0.034823402457065354,0.0047472261899361
0.0514038,0.015340320147262705,0.01908505181828009,0.0921101266230687,0.011983886762749802,0.05926041869308321,0.03037265054858894,0.03516439135937232,0.004790176606869734
0.0519231,0.01535410126732079,0.019132084688325474,0.09226471670878217,0.012190197709051527,0.05949527361568169,0.03057794496251108,0.03550160777355331,0.0048327976777662535
0.0524423,0.01536689734409933,0.019177301918592383,0.09241083516119179,0.012397721201581212,0.059724798921569185,0.030777217111547996,0.03583503639682936,0.004875086653416323
0.0529615,0.015378716017603242,0.01922068902150718,0.09254847737429492,0.012606439435845506,0.0599489552156066,0.030970484404474925,0.03616466248746155,0.004917040837874086
0.0534808,0.015389565139908346,0.019262231800567343,0.09267764027321093,0.012816334250182623,0.06016770426696851,0.03115776537803072,0.03649047186109535,0.00495865758879094
0.054,0.015399452773153502,0.019301916353651825,0.09279832230809817,0.013027387127440372,0.06038100902272006,0.03133907968657861,0.03681245088703018,0.0049999343177551565
0.0545192,0.015408387187538723,0.019339729076282865,0.09291052344788349,0.013239579196786188,0.06058883362100249,0.03151444809159521,0.037130586484418006,0.005040868490637602
0.0550385,0.01541637685932956,0.01937565666483983,0.09301424517380978,0.013452891235650464,0.06079114340381692,0.03168389245099354,0.03744486611839477,0.005081457627943715
0.0555577,0.015423430468868094,0.019409686119725884,0.09310949047280721,0.013667303671804455,0.06098790492939613,0.03184743570828599,0.03775527779614839,0.005121699305171979
0.0560769,0.01542955689859069,0.01944180474848842,0.09319626383069181,0.013882796585574021,0.06117908598415502,0.03200510188159281,0.03806181006292678,0.005161591153179056
0.0565962,0.015434765231052658,0.01947200016889433,0.09327457122519515,0.0140993497121905,0.06136465559421119,0.03215691605250157,0.038364451997989546,0.005201130858551782
0.0571154,0.015439064746959831,0.019500260311961337,0.09334442011882826,0.014316942444279947,0.06154458403646715,0.032302904354783196,0.038663193210506146,0.005240316163986196
0.0576346,0.015442464923207172,0.019526573424946663,0.093405819451582,0.014535553834492069,0.06171884284924627,0.032443093962969634,0.038958023835403754,0.005279144868673766
0.0581538,0.01544497543092431,0.019550928074294358,0.09345877963346538,0.014755162598270099,0.061887404842474326,0.03257751308079885,0.03924893452916731,0.0053176148286949625
0.0586731,0.01544660613352811,0.019573313148542784,0.09350331253688339,0.014975747116762937,0.0620502441073987,0.03270619092953247,0.039535916465594255,0.005355723957420354
0.0591923,0.015447367084782263,0.019593717861193637,0.09353943148885485,0.01519728543988083,0.06220733602583747,0.032829157736151894,0.03981896133150605,0.005393470225919382
0.0597115,0.015447268526863966,0.019612131753543947,0.09356715126307132,0.015419755289495895,0.06235865727895076,0.03294644472143906,0.04009806132241851,0.005430851663377001
0.0602308,0.015446320888437849,0.019628544697482382,0.09358648807179748,0.01564313406278879,0.06250418585552724,0.03305808408794814,0.04037320913817233,0.005467866357518336
0.06075,0.015444534782737347,0.019642946898251166,0.09359745955761495,0.015867398835742768,0.06264390105977959,0.03316410900787517,0.04064439797852533,0.005504512455041539
0.0612692,0.015441921005653779,0.019655328897174744,0.09360008478501171,0.016092526366786417,0.06277778351864356,0.0332645536108326,0.040911621538707615,0.0055407881620589804
0.0617885,0.015438490533833582,0.019665681574356195,0.09359438423182127,0.016318493100586303,0.06290581518857621,0.03335945297153613,0.04117487400494082,0.0055766917445469405
0.0623077,0.015434254522784163,0.019673996151342316,0.09358037978051507,0.01654527517199068,0.06302797936185024,0.03344884309741113,0.04143415004992277,0.005612221528803978
0.0628269,0.015429224304988982,0.019680264193758137,0.09355809470935209,0.01677284841012538,0.06314426067234215,0.033532760916126524,0.04168944482827904,0.005647375901918231
0.0633462,0.015423411388032588,0.019684477613911608,0.09352755368338939,0.017001188342642855,0.06325464510081315,0.033611244263063896,0.04194075397198269,0.0056821533122439144
0.0638654,0.015416827452736365,0.019686628673369136,0.09348878274535674,0.017230270200125238,0.06335911997968235,0.033684331868729975,0.042188073585743724,0.005716552269887295
0.0643846,0.015409484351305779,0.01968670998550265,0.09344180930639794,0.0174600689206422,0.06345767399729295,0.033752063346120735,0.04243140024236976,0.005750571347202435
0.0649038,0.015401394105489881,0.01968471451800882,0.09338666213668184,0.017690559154464165,0.06355029720167245,0.03381447917804518,0.04267073097809995,0.005784209179296984
0.0654231,0.015392568904753849,0.019680635595401258,0.093323371355886,0.017921715268931444,0.06363698100378895,0.033871620704416926,0.04290606328791466,0.005817464464548245
0.0659423,0.01538302110446517,0.019674466901476353,0.09325196842355546,0.018153511353479566,0.06371771818030482,0.03392353010952151,0.0431373951208239,0.005850335965129726
0.0664615,0.01537276322409409,0.019666202481753544,0.09317248612933915,0.018385921224821033,0.0637925028758294,0.03397025040926721,0.043364724875138295,0.005882822507548364
0.0669808,0.015361807945428812,0.0196558367458907,0.09308495858310618,0.018618918432283582,0.06386133060467185,0.034011825438427054,0.04358805139372631,0.005914922983192595
0.0675,0.015350168110805838,0.019643364470075295,0.09298942120494283,0.018852476263304833,0.06392419825209489,0.034048299837879416,0.04380737395926206,0.0059466363488914365
0.0680192,0.015337856721355743,0.01962878079939192,0.09288591071503156,0.019086567749083058,0.06398110407506975,0.03407971904185422,0.04402269228946805,0.005977961627484728
0.0685385,0.015324886935264582,0.01961208125016672,0.09277446512341198,0.01932116567038377,0.06403204770253249,0.03410612926519184,0.044234006532357595,0.006008897908404592
0.0690577,0.015311272066051007,0.01959326171228934,0.0926551237196238,0.019556242563501525,0.06407703013514124,0.03412757749062126,0.044441317261481546,0.00603944434826822
0.0695769,0.015297025580859124,0.019572318451512853,0.09252792706223177,0.019791770726376376,0.06411605374453404,0.03414411145606402,0.044644625471184585,0.006069600171481988
0.0700962,0.015282161098767049,0.01954924811173231,0.0923929169682318,0.020027722224864146,0.06414912227208616,0.03415577964197014,0.044843932571876306,0.006099364670856892
0.0706154,0.015266692389111129,0.019524047717242306,0.09225013650233782,0.020264068899159594,0.06417624082716597,0.03416263125869196,0.04503924038532279,0.006128737208235297
0.0711346,0.015250633369825769,0.01949671467497417,0.09209962996614834,0.02050078237037142,0.06419741588488806,0.034164716233901604,0.04523055113996454,0.006157717215128907
0.0716538,0.015233998105798844,0.019467246776713118,0.09194144288719153,0.020737834047247817,0.06421265528336208,0.03416208520005754,0.045417867466266665,0.0061863041933679554
0.0721731,0.015216800807242694,0.019435642201295948,0.09177562200784678,0.020975195133051246,0.06422196822043569,0.034154789481925504,0.04560119239210688,0.006214497715761577
0.0726923,0.015199055828080675,0.019401899516789535,0.09160221527414074,0.021212836632580764,0.06422536524993026,0.03414288108415855,0.04578052933820671,0.006242297426769378
0.0732115,0.015180777664349328,0.01936601768265052,0.0914212718244142,0.02145072935934026,0.06422285827736798,0.03412641267894109,0.045955882113610694,0.006269703043184206
0.0737308,0.015161980952616184,0.019327996051866445,0.09123284197785624,0.02168884394285063,0.06421446055518977,0.03410543759370154,0.04612725491121831,0.006296714354826123
0.07425,0.015142680468413243,0.01928783437307849,0.09103697722290145,0.021927150836103797,0.06420018667746391,0.03408000979889789,0.046294652303372964,0.006323331225247519
0.0747692,0.015122891124686245,0.019245532792685857,0.09083373020548563,0.022165620323156363,0.06418005257408602,0.034050183895880486,0.04645807923751188,0.006349553592449347
0.0752885,0.015102627970259743,0.019201091856931935,0.09062315471715521,0.02240422252686043,0.06415407550447243,0.0340160151048361,0.046617541031880476,0.006375381469608387
0.0758077,0.015081906188318029,0.019154512513972294,0.0904053056830263,0.022642927416728936,0.06412227405075005,0.03397755925281692,0.046773043371314625,0.006400814945815474
0.0763269,0.015060741094901941,0.019105796115924806,0.09018023914958859,0.022881704816932764,0.06408466811044737,0.033934872761858116,0.04692459230309336,0.0064258541868246035
0.0768462,0.015039148137421488,0.019054944420902296,0.08994801227234954,0.023120524414426587,0.0640412788886923,0.033888012637187145,0.047072194232864795,0.006450499435812792
0.0773654,0.015017142893184187,0.019001959595028303,0.08970868330331386,0.02335935576720023,0.06399212888992367,0.03383703645552779,0.04721585592064745,0.0064747510141505765
0.0778846,0.014994741067938978,0.018946844214436757,0.08946231157829351,0.02359816831265222,0.06393724190912424,0.03378200235350176,0.04735558447690875,0.006498609322183048
0.0784038,0.014971958494435392,0.018889601267256462,0.08920895750404301,0.02383693137608188,0.06387664302258335,0.033722969016130186,0.047491387358722596,0.006522074840021372
0.0789231,0.014948811130997748,0.01883023415558134,0.08894868254521482,0.02407561417929619,0.06381035857819842,0.03365999566543718,0.04762327236600769,0.006545148128344705
0.0794423,0.014925315060113957,0.018768746697427507,0.08868154921113029,0.02431418584932747,0.06373841618532428,0.033593142049157344,0.047751247637848125,0.006567829829212486
0.0799615,0.014901486487038602,0.018705143128678135,0.08840762104236179,0.024552615427257625,0.06366084470417957,0.033522468429548785,0.04787532164889759,0.00659012066688698
0.0804808,0.014877341738409927,0.01863942810501728,0.08812696259712334,0.024790871877144575,0.06357767423481932,0.03344803557231315,0.04799550320586828,0.006612021448665983
0.081,0.014852897260880411,0.018571606703853855,0.08783963943746877,0.025028924095046243,0.06348893610568239,0.03336990473562381,0.048111801444105484,0.006633533065725486
0.0815192,0.01482816961976058,0.018501684426237085,0.08754571811529833,0.02526674091813729,0.06339466286172277,0.03328813765926334,0.04822422582424826,0.0066546564939720994
0.0820385,0.014803175497675732,0.01842966719876482,0.08724526615817604,0.02550429113391369,0.06329488825213332,0.03320279655387128,0.048332786128976554,0.006675392794905005
0.0825577,0.014777931693235213,0.018355561375486135,0.08693835205496124,0.02574154348947983,0.06318964721767123,0.03311394409030283,0.04843749245984478,0.006695743116487217
0.0830769,0.014752455119713728,0.018279373739799508,0.08662504524125807,0.025978466700912806,0.0630789758775944,0.03302164338909894,0.04853835523420163,0.006715708694025971
0.0835962,0.014726762803744176,0.018201111506347914,0.08630541608468688,0.02621502946269833,0.06296291151621844,0.032925958010068083,0.048635385182195415,0.00673529085106215
0.0841154,0.014700871884021307,0.01812078232291201,0.08597953586998142,0.026451200457232444,0.0628414925691044,0.032826951941979675,0.04872859334386424,0.006754491000268693
0.0846346,0.014674799610015415,0.018038394272302506,0.0856474767839153,0.026686948364383185,0.06271475860888774,0.03272468959236892,0.048817991066309976,0.006773310644357981
0.0851538,0.014648563340695229,0.017953955874252744,0.08530931190006112,0.02692224187110597,0.06258275033076037,0.032619235777452814,0.048903590000954664,0.006791751376998237
0.0856731,0.014622180543259,0.01786747608731248,0.08496511516338608,0.027157049681106455,0.062445509537617884,0.03251065571215664,0.048985402100878296,0.006809814883738902
0.0861923,0.01459566879187278,0.017778964310743717,0.08461496137468752,0.027391340524544307,0.06230307912488516,0.03239901500025029,0.04906343961823675,0.006827502942944988
0.0867115,0.014569045766414662,0.01768843038641947,0.08425892617487306,0.027625083167771333,0.06215550306503395,0.032284379624593434,0.04913771510175874,0.006844817426740356
0.0872308,0.01454232925122376,0.017595884600726273,0.08389708602908921,0.027858246423096953,0.06200282639180678,0.03216681593748858,0.049208241394320604,0.00686176030195987
0.08775,0.014515537133852563,0.017501337686471063,0.08352951821070355,0.028090799158574067,0.06184509518416147,0.03204639065114071,0.0492750316305977,0.006878333631110333
0.0882692,0.014488687403821232,0.017404800824793072,0.08315630078514533,0.028322710307798035,0.06168235654995068,0.03192317082822213,0.049338099234791426,0.00689453957334012
0.0887885,0.014461798151372326,0.01730628564708113,0.08277751259360958,0.028553948879711247,0.06151465860935058,0.03179722387254095,0.04939745791843088,0.0069103803854173715
0.0893077,0.014434887566224413,0.017205804236896736,0.0823932332366294,0.028784483968405616,0.06134205047805249,0.03166861751981136,0.049453121678248425,0.0069258584227166005
0.0898269,0.01440797393632301,0.017103369131903023,0.08200354305752106,0.02901428476291502,0.06116458225023163,0.03153741982852348,0.04950510479412842,0.006940976140213521
0.0903462,0.014381075646587218,0.016998993325799662,0.08160852312570595,0.02924332055698963,0.060982304981306225,0.03140369917091062,0.04955342182712808,0.006955736093487923
0.0908654,0.014354211177650471,0.016892690270263615,0.08120825521991354,0.029471560758843735,0.06079527067050084,0.03126752422401135,0.04959808761756973,0.006970140939734409
0.0913846,0.014327399104593724,0.016784473876895446,0.08080282181126873,0.029698974900868723,0.06060353224322713,0.03112896396082397,0.049639117283202853,0.006984193438780819
0.0919038,0.014300658095669518,0.01667435851917081,0.08039230604626742,0.029925532649302682,0.0604071435332951,0.030988087641550487,0.049676526217435,0.006997896454114195
0.0924231,0.014274006911015266,0.016562359034396623,0.07997679172964386,0.030151203813848053,0.06020615926496772,0.030844964804927297,0.04971033008763002,0.007011252953914149
0.0929423,0.014247464401354156,0.01644849072567119,0.07955636330713399,0.030375958357228793,0.06000063503487142,0.030699665259639623,0.04974054483347234,0.007024266012093489
0.0934615,0.014221049506682112,0.016332769363847536,0.07913110584813904,0.03059976640467867,0.059790627293774955,0.030552259075816515,0.049767186665395965,0.007036938809346012
0.0939808,0.014194781254939226,0.016215211189499083,0.07870110502829436,0.030822598253352318,0.05957619332824855,0.030402816576603115,0.04979027206307704,0.0070492746342012795
0.0945,0.014168678760664136,0.016095832914886664,0.07826644711194812,0.03104442438165111,0.059357391242215236,0.030251408329806845,0.04980981777398886,0.0070612768840862495
0.0950192,0.014142761223629782,0.015974651725925798,0.077827218934555,0.03126521545845616,0.059134279938405636,0.030098105139613994,0.04982584081201823,0.007072949066393559
0.0955385,0.014117047927458987,0.01585168528415311,0.07738350788498943,0.031484942352261104,0.05890691909972765,0.029942978038373095,0.04983835845614196,0.007084294799556278
0.0960577,0.014091558238218256,0.01572695172869066,0.0769354018877833,0.031703576140197726,0.05867536917056174,0.029786098278441347,0.04984738824916184,0.007095317814128926
0.0965769,0.014066311602988123,0.015600469678206864,0.07648298938529277,0.031921088116947875,0.05843969133799287,0.02962753732409026,0.049852947996496345,0.007106021953874535
0.0970962,0.014041327548408318,0.01547225823287275,0.07602635931979856,0.032137449803535556,0.05819994751298997,0.029467366843466528,0.049855055765026766,0.007116411176857493
0.0976154,0.014016625679195954,0.015342336976312041,0.07556560111554435,0.032352632955993395,0.05795620031154367,0.029305658700604073,0.0498537298819957,0.0071264895565419165
0.0981346,0.013992225676634851,0.015210725977543738,0.07510080466071725,0.03256660957389808,0.05770851303577301,0.029142484947483158,0.049848988933955174,0.007136261282895289
0.0986538,0.01396814729703401,0.015077445792915601,0.07463206028937507,0.03277935190876966,0.05745694965501148,0.028977917816132324,0.049840851765762036,0.0071457306634971325
0.0991731,0.01394441037015326,0.01494251746802704,0.07415945876332382,0.032990832472330006,0.05720157478688241,0.028812029710768843,0.04982933747961824,0.007154902124652473
0.0996923,0.013921034797594035,0.014805962539639818,0.07368309125394987,0.03320102404461581,0.05694245367837317,0.028644893199973275,0.049814465434153576,0.007163780212509889
0.1002115,0.013898040551153425,0.014667803037574912,0.07320304932401021,0.03340989968194172,0.05667965218691725,0.028476581008893526,0.04979625524354814,0.0071723695941839525
0.1007308,0.01387544767113958,0.01452806148659381,0.07271942490938481,0.03361743272470908,0.05641323676149309,0.028307166011473737,0.04977472677669191,0.007180675058881869
0.10125,0.013853276264646818,0.01438676090826246,0.07223231030079451,0.03382359680505579,0.056143274423747676,0.02813672122270328,0.04974990015637823,0.007188701519034113
0.1017692,0.01383154650378883,0.014243924822796026,0.07174179812548796,0.034028365854342726,0.055869832749153005,0.02796531979088088,0.049721795758527886,0.007196454011428867
0.1022885,0.013810278623888608,0.014099577250882508,0.07124798132890062,0.03423171411047247,0.05559297984820296,0.027793034989888908,0.049690434211440086,0.007203937698350019
0.1028077,0.013789492921623821,0.01395374271548321,0.0707509531562891,0.034433616125036266,0.05531278434765786,0.027619940211472703,0.049655836395066294,0.0072111578687184515
0.1033269,0.013769209753126574,0.013806446243607986,0.07025080713434328,0.03463404677028547,0.055029315371843815,0.02744610895752004,0.04961802344030243,0.007218119939236334
0.1038462,0.013749449532036634,0.013657713368063006,0.06974763705277824,0.034832981245924266,0.05474264252401377,0.0272716148323356,0.049577016728294995,0.007224829455534069
0.1043654,0.013730232727507386,0.013507570129168815,0.06924153694590772,0.035030395085720895,0.05445283586777719,0.02709653153490572,0.04953283788975624,0.007231292093319537
0.1048846,0.013711579862163937,0.01335604307644627,0.06873260107420036,0.035226264163934894,0.05415996590860501,0.026920932851148584,0.049485508804283596,0.0072375136595292855
0.1054038,0.013693511510012957,0.01320315927026787,0.06822092390581969,0.03542056470155861,0.0538641035754164,0.02674489264614541,0.04943505159967845,0.007243500093481321
0.1059231,0.013676048294304034,0.013048946283471925,0.06770660009814886,0.03561327327237137,0.05356532020225393,0.02656848485634859,0.04938148865125957,0.007249257468029171
0.1064423,0.013659210885342391,0.012893432202936842,0.06718972447930104,0.03580436680880518,0.05326368751005351,0.02639178348176302,0.049324842581166296,0.007254791990716869
0.1069615,0.013643019998252936,0.012736645631112764,0.06667039202961679,0.035993822607621385,0.05295927758851535,0.02621486257809715,0.049265136257647085,0.007260110004934491
0.1074808,0.013627496390695677,0.01257861568750768,0.06614869786315006,0.036181618335397785,0.05265216287808187,0.026037796248880318,0.04920239279432874,0.007265217991073854
0.108,0.013612660860532668,0.012419372010125026,0.06562473720914479,0.03636773203382626,0.05234241615202847,0.02586065863754291,0.049136635549462154,0.007270122567683889
0.1085192,0.013598534243446725,0.012258944756849683,0.06509860539350469,0.03655214212482122,0.05203011049867263,0.025683523919455577,0.049067888125140395,0.0072748304926251945
0.1090385,0.013585137410512241,0.012097364606779352,0.0645703978202592,0.03673482741543956,0.051715319303706965,0.025506466293923873,0.04899617436648521,0.007279348664223187
0.1095577,0.013572491265718545,0.011934662761498115,0.0640402099530292,0.036915767102613344,0.05139811623266124,0.025329559976134484,0.04892151836079805,0.00728368412241923
0.1100769,0.013560616743446344,0.011770870946289124,0.06350813729649675,0.037094940777696775,0.051078575213498574,0.025152879189049293,0.04884394443667211,0.007287844049919085
0.1105962,0.01354953480589781,0.011606021411283281,0.06297427537788323,0.03727232843082989,0.050756770419350575,0.02497649815524385,0.04876347716306162,0.007291835773337982
0.1111154,0.013539266440480948,0.011440146932540864,0.0624387197284411,0.03744791045512154,0.050432776251396125,0.02480049108868691,0.048680141348304846,0.007295666764341567
0.1116346,0.013529832657148883,0.01127328081306301,0.06190156586496488,0.037621667650654736,0.05010666732188848,0.024624932186458243,0.048593962039096814,0.007299344640781948
0.1121538,0.013521254485694672,0.011105456883730002,0.06136290927132738,0.03779358122831803,0.049778518437334954,0.02444989562040183,0.04850496451940772,0.007302877167827988
0.1126731,0.013513552973002137,0.010936709504163313,0.0608228453800475,0.03796363281346619,0.04944840458183323,0.0242754555287119,0.04841317430934267,0.007306272259088971
0.1131923,0.013506749180253188,0.010767073563508343,0.06028146955389662,0.03813180444941382,0.049116400900568354,0.024101686007449167,0.048318617163937864,0.007309537977730748
0.1137115,0.01350086418009201,0.010596584481134805,0.05973887706755049,0.03829807860076535,0.04878258268347366,0.023928661101984737,0.04822131907188843,0.007312682537583434
0.1142308,0.013495919053746454,0.010425278207251665,0.05919516308929403,0.03846243815658451,0.048447025349059154,0.02375645479836929,0.04812130625420308,0.007315714304239756
0.11475,0.013491934888106929,0.010253191223433579,0.05865042266278646,0.03862486643340612,0.04810980442841027,0.023585141014625315,0.048018605162780885,0.00731864179614316
0.1152692,0.013488932772763081,0.010080360543055769,0.058104750688894306,0.03878534717809306,0.047770995549359506,0.023414793591960435,0.047913242478905965,0.007321473685664845
0.1157885,0.01348693379699856,0.009906823711634278,0.057558241907599964,0.03894386457054092,0.04743067442083364,0.0232454862859,0.04780524511165585,0.00732421880016894
0.1163077,0.013485959046744229,0.009732618807068508,0.057010990879993104,0.039100403226232726,0.047088916817378715,0.02307729275733726,0.0476946401962196,0.007326886123065101
0.1168269,0.013486029601490151,0.009557784439783003,0.05646309197035224,0.039254948198646104,0.046745798563865175,0.022910286563499298,0.047581455092121965,0.0073294847948478445
0.1173462,0.013487166531156766,0.009382359752765355,0.05591463932832337,0.03940748498151525,0.04640139552037537,0.022744541148826982,0.04746571738134976,0.007332024114121944
0.1178654,0.013489390892925699,0.00920638442149712,0.05536572687120227,0.03955799951095018,0.046055783567275715,0.022580129835767168,0.04734745486637722,0.007334513538613211
0.1183846,0.013492723728030695,0.00902989865377458,0.054816448266326756,0.039706478167415606,0.04570903859047568,0.02241712581547547,0.047226695568086806,0.0073369626861639805
0.1189038,0.013497186058509223,0.008852943189416167,0.05426689691358495,0.039852907777572014,0.045361236466875544,0.022255602138428265,0.04710346772358266,0.007339381335712581
0.1194231,0.013502798883915357,0.008675559299853268,0.053717165928045395,0.03999727561598168,0.04501245305000462,0.022095631704942737,0.0469777997838942,0.007341779428256076
0.1199423,0.013509583177994597,0.008497788787601105,0.05316734812271489,0.040139569406682285,0.04466276415585192,0.02193728725560421,0.046849720411567944,0.007344167067795518
0.1204615,0.01351755988532137,0.008319673985606305,0.052617535991429966,0.040279777324631096,0.044312245548890544,0.021780641361599854,0.04671925847814607,0.0073465545222629255
0.1209808,0.013526749917900018,0.008141257756467691,0.052067821691887756,0.04041788799702296,0.04396097292829736,0.021625766414958326,0.04658644306153053,0.007348952224429201
0.1215,0.013537174151730159,0.007962583491526811,0.05151829702882216,0.0405538905044853,0.04360902191436953,0.021472734618694814,0.04645130344323202,0.007351370772792136
0.1220192,0.013548853423337386,0.007783695109824658,0.05096905343733115,0.04068777438215377,0.04325646803513978,0.02132161797686115,0.046313869105503426,0.007353820932443687
0.1225385,0.013561808526270362,0.00760463705692106,0.050420181966361055,0.04081952962063216,0.042903386713192576,0.02117248828450086,0.04617416972835732,0.007356313635915679
0.1230577,0.013576060207565481,0.00742545430357318,0.04987177326235343,0.040949146666840665,0.042549853252683525,0.021025417117509347,0.04603223518646737,0.007358859984003107
0.1235769,0.013591629164180238,0.007246192344269601,0.049323917553060107,0.04107661642475638,0.04219594282656416,0.020880475822399446,0.0458880955459534,0.007361471246564194
0.1240962,0.013608536039396555,0.007066897195616483,0.048776704631531685,0.041201930256050186,0.0418417304640142,0.020737735505973014,0.04574178106105004,0.007364158863296383
0.1246154,0.013626801419195282,0.0068876153945723745,0.048230223840284234,0.041325079980624256,0.041487291038083275,0.020597267024899255,0.045593322170659235,0.0073669344444874845
0.1251346,0.013646445828603016,0.006708393996528274,0.04768456405564876,0.04144605787705417,0.04113269925354384,0.02045914097520106,0.045442749494786695,0.007369809771741207
0.1256538,0.013667489728012362,0.006529280573229631,0.04713981367230757,0.04156485668293967,0.04077802963495687,0.020323427681650755,0.04529009383086342,0.00737279679867637
0.1261731,0.0136899535094766,0.006350323210536998,0.04659606058802119,0.04168146959516785,0.04042335651495149,0.02019019718707718,0.045135386149953535,0.007375907651599043
0.1266923,0.013713857492979686,0.0061715705060221724,0.046053392188549265,0.04179589027009233,0.040068754022719685,0.020059519241586065,0.044978657592850455,0.007379154630146876
0.1272115,0.013739221922682338,0.005993071566396676,0.04551189533276854,0.0419081128236318,0.039714296072726814,0.019931463291696056,0.0448199394660639,0.007382550207904805
0.1277308,0.013766066963144872,0.005814876004769521,0.04497165633799069,0.042018131831290904,0.03936005635363852,0.019806098469392724,0.04465926323770048,0.0073861070329912975
0.12825,0.01379441269552739,0.0056370339377313046,0.04443276096548277,0.04212594232810648,0.03900610831746423,0.01968349358110311,0.04449666053324101,0.0073898379286142625
0.1287692,0.013824279113767724,0.005459595982261734,0.04389529440619286,0.04223153980852174,0.038652525168917415,0.019563717096593436,0.044332163131217885,0.007393755893595708
0.1292885,0.01385568612073752,0.005282613252457772,0.04335934126668329,0.042334920226190925,0.0382993798549924,0.019446837137792657,0.044165802958796026,0.007397874102864193
0.1298077,0.013888653524376666,0.0051061373560796625,0.04282498555527428,0.04243607999371664,0.037946745054757425,0.019332921467544627,0.04399761208726099,0.007402205907914082
0.1303269,0.013923201033806223,0.004930220390912135,0.04229231066840025,0.04253501598232206,0.0375946931693634,0.019222037478291588,0.04382762272741821,0.007406764837230576
0.1308462,0.013959348255419892,0.0047549149409381215,0.04176139937718164,0.04263172552146008,0.03724329631226743,0.019114252180691675,0.04365586722490737,0.007411564596679471
0.1313654,0.013997114688954008,0.004580274072322332,0.0412323338142147,0.042726206398361395,0.03689262629967021,0.01900963219217318,0.043482378055435845,0.007416619069860496
0.1318846,0.014036519723535961,0.004406351329202036,0.04070519546058192,0.04281845685752347,0.036542754641165756,0.018908243725428247,0.04330718781993516,0.0074219423184230604
0.1324038,0.014077582633710884,0.0042332007292823996,0.0401800651330855,0.04290847560014193,0.03619375253060214,0.018810152576848763,0.04313032923964432,0.007427548582343195
0.1329231,0.014120322575446384,0.004060876759233689,0.03965702297170621,0.04299626178348602,0.03584569083715153,0.018715424114907075,0.04295183515112384,0.007433452280160443
0.1334423,0.014164758582115031,0.0038894343698876554,0.03913614842728975,0.04308181502021918,0.03549864009658776,0.018624123268484203,0.04277173850120421,0.0074396680091733955
0.1339615,0.014210909560454269,0.0037189289712304223,0.03861752024946251,0.043165135377665725,0.03515267050276958,0.018536314515148134,0.04259007234187244,0.007446210545592585
0.1344808,0.014258794286503403,0.003549416427189228,0.038101216474778266,0.04324622337702415,0.03480785189932737,0.018452061869384626,0.04240686982510046,0.007453094844649408
0.135,0.014308431401517253,0.0033809530502104477,0.03758731441509729,0.04332507999252737,0.034464253771551066,0.018371428870783028,0.04222216419761848,0.007460336040659746
0.1355192,0.014359839407856134,0.0032135955956263925,0.03707589064619904,0.04340170665055004,0.03412194523847684,0.018294478572179567,0.042035988795636484,0.007467949447040924
0.1360385,0.014413036664851747,0.003047401255808538,0.036567020996629604,0.04347610522866296,0.03378099504516962,0.018221273527760613,0.04184837703951684,0.007475950556280656
0.1365577,0.01446804138464863,0.0028824276541049394,0.03606078053678466,0.043548278054634224,0.03344147155519842,0.01815187578112838,0.041659362428400674,0.007484355039856641
0.1370769,0.014524871628020693,0.0027187328385597565,0.035557243568228813,0.04361822790537708,0.033103442743301265,0.01808634685333151,0.04146897853479106,0.007493178748105479
0.1375962,0.014583545300162475,0.0025563752754129356,0.03505648361325182,0.04368595800584378,0.032766976188236,0.018024747730862996,0.04127725899909564,0.007502437710039642
0.1381154,0.014644080146454637,0.0023954138423782335,0.03455857340466193,0.043751472027865126,0.032432139065813326,0.01796713885362788,0.04108423752413119,0.007512148133111285
0.1386346,0.014706493748203308,0.002235907821697886,0.03406358487581656,0.043814774088935124,0.03209899814210798,0.017913580102883343,0.040889947869592644,0.007522326402921707
0.1391538,0.014770803518352749,0.0020779168929723276,0.03357158915089002,0.04387586875094015,0.03176761976684395,0.017864130789154074,0.040694423846488414,0.0075329890828753614
0.1396731,0.014837026697170921,0.0019215011257634896,0.03308265653537826,0.04393476101883212,0.03143806986694941,0.017818849640126335,0.040497699311544254,0.0075441529137773135
0.1401923,0.014905180347907401,0.0017667209719702801,0.03259685650684024,0.04399145633924485,0.03111041394027707,0.017777794788524266,0.04029980816157746,0.007555834813373047
0.1407115,0.014975281352423103,0.001613637257974947,0.0321142577058757,0.0440459605990532,0.03078471704948557,0.017741023759972493,0.040100784327843676,0.007568051875829503
0.1412308,0.01504734640679123,0.0014623111765591,0.03163492792733908,0.0440982801238744,0.030461043816077334,0.017708593460849183,0.03990066177035883,0.007580821371156211
0.14175,0.015121392016868775,0.0013128042785882333,0.031158934111789282,0.0441484216765112,0.030139458414588677,0.017680560166133782,0.039699474472199105,0.00759416074456529
0.1422692,0.015197434493837854,0.0011651784644636366,0.03068634233717499,0.044196392455336256,0.02982002456692765,0.017656979507253905,0.03949725643378232,0.007608087615769057
0.1427885,0.015275489949716099,0.0010194959753406262,0.030217217810755256,0.04424220009261725,0.02950280553685508,0.01763790645993592,0.03929404166713415,0.007622619778213953
0.1433077,0.015355574292835203,0.0008758193841120517,0.02975162486125459,0.044285852652781996,0.029187864124604317,0.01762339533206384,0.039089864190142924,0.007637775198249438
0.1438269,0.015437703223286765,0.0007342115861560578,0.02928962693125199,0.04432735863062248,0.028875262661634916,0.017613499751551076,0.03888475802080665,0.007653572014230493
0.1443462,0.015521892228334453,0.0005947357898471235,0.02883128656980291,0.04436672694943682,0.028565063005515465,0.017608272654229554,0.03867875717147596,0.007670028535552329
0.1448654,0.015608156577791585,0.00045745550682946366,0.028376665425293175,0.04440396695910769,0.028257326534930585,0.0176077662717607,0.03847189564309638,0.007687163241615922
0.1453846,0.015696511319363286,0.0003224345420519659,0.027925824238523512,0.04443908843411593,0.027952114144807066,0.017612032119572768,0.03826420741945352,0.0077049947807229695
0.1459038,0.01578697127395242,0.00018973698356393765,0.0274788228360234,0.04447210157148805,0.027649486241553826,0.017621120984828965,0.038055726461423973,0.007723541968898873
0.1464231,0.01587955103092864,5.942719207105598e-05,0.027035720123592476,0.04450301698867641,0.027349502738410386,0.017635082914431065,0.03784648670123494,0.007742823788642363
0.1469423,0.01597426494336003,-6.843020974897515e-05,0.026596574080067787,0.044531845721371095,0.027052223050898487,0.01765396720306303,0.03763652203673509,0.0077628593876004
0.1474615,0.016071127123206963,-0.00019377034817143302,0.026161441751314896,0.044558599221242605,0.02675770609237153,0.017677822381279327,0.03742586632567914,0.007783668077166974
0.1479808,0.016170151436478028,-0.0003165281095904943,0.025730379244440858,0.04458328935361487,0.026466010269656552,0.017706696203642337,0.03721455338002799,0.007805269331004411
0.1485,0.016271351498348106,-0.00043663815192616554,0.025303441722227024,0.04460592839506808,0.02617719347878358,0.017740635636913443,0.03700261696026658,0.007827682783485791
0.1490192,0.016374740668238838,-0.0005540349162721733,0.024880683397779643,0.04462652903097121,0.02589131310079692,0.0177796868483021,0.03679009076974082,0.007850928228057061
0.1495385,0.016480332044862062,-0.0006686526387845884,0.024462157529396098,0.04464510435294434,0.0256084259976431,0.01782389519377718,0.036577008449015194,0.007875025615517372
0.1500577,0.016588138461226982,-0.0007804253628107807,0.024047916415644802,0.04466166785625084,0.02532858850812996,0.017873305206444798,0.03636340357025207,0.007899995052216224
0.1505769,0.016698172479612135,-0.0008892869512581144,0.02363801139065657,0.044676233437119794,0.025051856443951515,0.01792796058499675,0.03614930963161371,0.007925856798165981
0.1510962,0.01681044638650349,-0.0009951710992016237,0.023232492819625302,0.04468881538999882,0.024778285085773257,0.01798790418223362,0.0359347600516879,0.007952631265068314
0.1516154,0.01692497218750027,-0.0010980113467297557,0.022831410094515538,0.04469942840473764,0.024507929179372646,0.018053177993666635,0.03571978816393787,0.00798033901425313
0.1521346,0.01704176160219039,-0.001197741092027146,0.022434811629974377,0.04470808756370235,0.02424084293182958,0.01812382314620221,0.03550442721117714,0.008009000754528501
0.1526538,0.017160826058997523,-0.0012942936046933112,0.022042744859445112,0.04471480833882029,0.02397708000776171,0.01819987988691311,0.035288710340069626,0.008038637339940138
0.1531731,0.017282176690001986,-0.0013876020392960726,0.021655256231479673,0.04471960658855528,0.023716693525599464,0.018281387571900055,0.035072670595655255,0.008069269767438872
0.1536923,0.01740582432573784,-0.001477599449158496,0.021272391206246893,0.044722498554812966,0.023459736053895893,0.01836838465524748,0.03485634091590119,0.008100919174454725
0.1542115,0.017531779489968546,-0.0015642188003780865,0.020894194252233416,0.04472350085977639,0.02320625960766638,0.01846090867807708,0.03463975412627876,0.008133606836376116
0.1547308,0.0176600523944436,-0.001647392986076937,0.020520708843133943,0.04472263050267201,0.022956315644753672,0.018558996257702704,0.03442294293436617,0.008167354163932754
0.15525,0.017790652933638455,-0.0017270548408814706,0.0201519774549276,0.044719904856466736,0.02270995506221375,0.018662683076890056,0.03420593992447702,0.008202182700480825
0.1557692,0.01792359067948001,-0.0018031371556303478,0.01978804156313717,0.044715341664497296,0.022467228192718205,0.018772003873224512,0.03398877755231494,0.008238114119189049
0.1562885,0.018058874876059814,-0.0018755726923090354,0.019428941640268236,0.044708959037033376,0.022228184800969348,0.01888699242859037,0.03377148813965496,0.008275170220124166
0.1568077,0.01819651443433701,-0.0019442941992094587,0.01907471715342564,0.04470077544777649,0.021992874080124365,0.01900768155876464,0.03355410386905247,0.008313372927234391
0.1573269,0.018336517926833003,-0.0020092344263130677,0.018725406562105137,0.044690809730296675,0.021761344648225364,0.019134103103128425,0.03333665677858128,0.008352744285229328
0.1578462,0.018478893582319744,-0.00207032614089557,0.01838104731615822,0.04467908107440944,0.021533644544632326,0.01926628791449876,0.03311917875660224,0.008393306456354825
0.1583654,0.018623649280503536,-0.002127502143351472,0.018041675853928418,0.044665609022495216,0.021309821226456197,0.01940426584908364,0.03290170153656436,0.008435081717061223
0.1588846,0.018770792546706168,-0.002180695283236449,0.017707327600557234,0.04465041346576369,0.02108992156498944,0.019548065756562844,0.032684256691840066,0.008478092454563381
0.1594038,0.018920330546545284,-0.0022298384755254086,0.017378036966457955,0.04463351464046517,0.020873991842131578,0.019697715470297077,0.0324668756305962,0.008522361163290864
0.1599231,0.019072270080615867,-0.0022748647170839427,0.017053837345955516,0.04461493312405102,0.02066207774680719,0.019853241797667776,0.0322495895907022,0.00856791044122661
0.1604423,0.019226617579174727,-0.002315707103350643,0.016734761116090627,0.04459468983128513,0.020454224371374168,0.02001467051054983,0.03203242963467672,0.00861476298613238
0.1609615,0.019383379096829984,-0.002352298845227548,0.016420839635586243,0.044572806010308004,0.020250476208019935,0.020182026335919267,0.031815426644673794,0.008662941591659298
0.1614808,0.019542560307237646,-0.002384573286175765,0.016112103243974545,0.044549303238655025,0.020050877145143656,0.020355332946597884,0.03159861131750932,0.008712469143341815
0.162,0.019704166497807443,-0.0024124639195131103,0.0158085812608826,0.044524203419230246,0.019855470463722436,0.02053461295213663,0.03138201415972894,0.00876336861447341
0.1625192,0.019868202564420234,-0.0024359044059104455,0.015510301985474923,0.044497528776236896,0.019664298833659492,0.02071988788983952,0.03116566548271771,0.008815663061862452
0.1630385,0.02003467300615945,-0.0024548285910832063,0.015217292696051316,0.04446930185106578,0.019477404310112256,0.020911178215929756,0.030949595397852407,0.008869375621466684
0.1635577,0.020203581920059253,-0.0024691705236745127,0.014929579649798417,0.0444395454981425,0.01929482832979817,0.021108503296859916,0.030733833811696813,0.008924529503904932
0.1640769,0.02037493299587229,-0.002478864473326117,0.014647188082693488,0.044408282880734236,0.019116611707275934,0.02131188140076803,0.030518410421240746,0.00898114798984464
0.1645962,0.020548729510860123,-0.002483844948933362,0.014370142209559051,0.044375537466716714,0.01894279463119969,0.021521329689081502,0.03030335470918335,0.009039254425263852
0.1651154,0.020724974324609735,-0.0024840467170802356,0.014098465224266927,0.044341333024301655,0.018773416660543735,0.021736864208270798,0.03008869593926142,0.009098872216586246
0.1656346,0.020903669873879697,-0.0024794048206505472,0.013832179300090277,0.044305693617724795,0.01860851672079521,0.021958499881754936,0.029874463151623485,0.009160024825687807
0.1661538,0.0210848181674799,-0.002469854597611195,0.013571305590202167,0.044268643602894245,0.018448133100112177,0.022186250501960707,0.0296606851582504,0.009222735764773742
0.1666731,0.021268420781189058,-0.0024553316999634564,0.013315864228319192,0.04423020762299867,0.018292303445444604,0.022420128722537656,0.029447390538423344,0.00928702859112427
0.1671923,0.02145447885271432,-0.00243577211285819,0.013065874329488683,0.04419041060407451,0.018141064758615752,0.022660146050731102,0.029234607634239906,0.009352926901708128
0.1677115,0.02164299307669756,-0.0024111121738707745,0.012821353991018074,0.044149277750531346,0.017994453392361567,0.022906312839915566,0.029022364546179145,0.009420454327662798
0.1682308,0.021833963699773043,-0.002381288592431555,0.012582320293545146,0.04410683454063378,0.01785250504632579,0.023158638282291,0.028810689128716396,0.009489634528640864
0.16875,0.02202739051568118,-0.0023462384694074643,0.012348789302247924,0.04406310672193863,0.017715254763008764,0.02341713040174434,0.028599608985988612,0.009560491187022084
0.1692692,0.022223272860443108,-0.002305899316830407,0.01212077606819318,0.04401812030668595,0.017582736923668,0.02368179604687889,0.02838915146751101,0.00963304800199111
0.1697885,0.022421609607600854,-0.002260209077767849,0.011898294629822623,0.0439719015671424,0.017454985244168993,0.02395264088421388,0.028179343663945762,0.009707328683480903
0.1703077,0.02262239916352776,-0.0022091061463309467,0.011681358014576001,0.04392447703089572,0.01733203277078483,0.024229669391556588,0.02797021240292341,0.009783356945982001
0.1708269,0.022825639462813796,-0.0021525293878153708,0.01146997824065036,0.0438758734760988,0.017213911875943642,0.024512884851549323,0.027761784244917667,0.009861156502217836
0.1713462,0.023031327963730384,-0.0020904181589697915,0.0112641663188948,0.043826117926662606,0.017100654253923063,0.024802289345393393,0.02755408547917389,0.009940751056686434
0.1718654,0.02323946164377904,-0.0020227123283867877,0.011063932254840004,0.043775237647396666,0.016992290916491133,0.0250978837467523,0.027347142119691543,0.01002216429906903
0.1723846,0.02345003699532815,-0.0019493522970107098,0.010869285050861809,0.04372326013909673,0.016888852188493557,0.025399667715836217,0.027140979901260645,0.010105419897506388
0.1729038,0.023663050021341975,-0.0018702790187568128,0.010680232708478095,0.04367021313357901,0.016790367703387384,0.025707639693669713,0.026935624275551986,0.010190541491744011
0.1734231,0.023878496231205807,-0.0017854340212357575,0.010496782230778224,0.04361612458866094,0.016696866398721567,0.026021796896544557,0.026731100407260757,0.010277552686147664
0.1739423,0.024096370636651047,-0.0016947594265773868,0.010318939624984222,0.04356102268308833,0.016608376511565152,0.026342135310659348,0.026527433170303028,0.01036647704259094
0.1744615,0.02431666774778376,-0.001598197972347519,0.010146709905142905,0.04350493581140902,0.016524925573884002,0.026668649686947474,0.02632464714406437,0.010457338073216792
0.1749808,0.024539381569220226,-0.0014956930325513537,0.009980097094948069,0.0434478925787933,0.016446540407867135,0.027001333536094813,0.02612276660969971,0.010550159233075009
0.1755,0.02476450559633286,-0.001387188638716956,0.009819104230691818,0.043389921795801416,0.016373247121203922,0.02734017912374834,0.025921815546483346,0.0106449639126377
0.1760192,0.02499203281160979,-0.0012726295010521715,0.00966373336434416,0.04333105247309823,0.01630507110231348,0.02768517746591664,0.02572181762820805,0.010741775430194797
0.1765385,0.02522195568113127,-0.0011519610296682262,0.009513985566759945,0.04327131381611547,0.01624203701552765,0.0280363183245631,0.025522796219631955,0.01084061702413161
0.1770577,0.02545426615116615,-0.001025129355863164,0.009369860931012317,0.04321073521966173,0.016184168796228988,0.028393590203392584,0.025324774372972193,0.010941511845090422
0.1775769,0.025688955644891553,-0.0008920813534582176,0.009231358575851814,0.04314934626248048,0.016131489645945116,0.028756980343832207,0.02512777482444429,0.011044482948018118
0.1780962,0.02592601505923889,-0.0007527646601801514,0.009098476649290378,0.04308717670175631,0.016084022027400707,0.02912647472120707,0.02493181999084648,0.011149553284101901
0.1786154,0.026165434761869204,-0.0006071276990825776,0.008971212332309467,0.0430242564675697,0.016041787659528357,0.029502058041111646,0.02473693196618823,0.01125674569259527
0.1791346,0.026407204588281014,-0.00045511969999919183,0.008849561842691573,0.042960615657300374,0.016004807512439483,0.029883713735977785,0.024543132518362213,0.011366082892536732
0.1796538,0.026651313839053517,-0.0002966907210218141,0.008733520438974381,0.042896284529979595,0.015973101802356407,0.030271423961840214,0.024350443085858865,0.01147758747436391
0.1801731,0.026897751277228238,-0.00013179166999602364,0.0086230824245268,0.04283129350059132,0.015946689986506807,0.030665169595300645,0.0241588847745229,0.01159128189142594
0.1806923,0.027146505125831975,3.962567397295203e-05,0.008518241151746112,0.04276567313432207,0.015925590757981625,0.03106493023069174,0.02396847835435098,0.011707188451397118
0.1812115,0.02739756306554393,0.0002176086390115983,0.00841898902637539,0.04269945414075945,0.01590982204055773,0.031470684177442164,0.023779244256329993,0.011825329307594808
0.1817308,0.027650912232509803,0.0004022036389744239,0.00832531751194034,0.04263266736803908,0.015899400983486692,0.031882408457643986,0.02359120256931526,0.01194572645020459
0.18225,0.027906539216305475,0.0005934561519531274,0.008237217134304647,0.04256534379694038,0.01589434395625123,0.03230007880382363,0.023404373036948155,0.01206840169741563
0.1827692,0.02816443005805286,0.0007914106988067299,0.008154677486342897,0.042497514534931745,0.01589466654329108,0.03272366965691727,0.02321877505461272,0.012193376686469201
0.1832885,0.02842457024869018,0.0009961108217209672,0.008077687232730037,0.042429210810165915,0.015900383538700123,0.03315315416445148,0.023034427666430986,0.012320672864623223
0.1838077,0.02868694472739892,0.0012075990628053902,0.008006234114846337,0.04236046396542693,0.01591150894089681,0.03358850417892963,0.022851349562296945,0.01245031148003586
0.1843269,0.028951537880189466,0.0014259169427367454,0.007940304955796753,0.04229130545202986,0.015928055947270134,0.03402969025642449,0.022669559074949257,0.012582313572571259
0.1848462,0.029218333538647192,0.0016511049394573013,0.007879885665543552,0.04222176682367472,0.01595003694880368,0.03447668165537725,0.022489074177082954,0.012716699964530767
0.1853654,0.029487314978840835,0.0018832024669368566,0.007824961246151065,0.04215187973025573,0.015977463524680713,0.034929446335603485,0.022309912478500615,0.01285349125131332
0.1858846,0.02975846492039463,0.0021222478540072216,0.007775515797141447,0.04208167591162706,0.016010346436873633,0.03538795095750622,0.022132091223303618,0.01299270779200883
0.1864038,0.030031765525725666,0.0023682783232779957,0.007731532520960315,0.04201118719132602,0.016048695624721544,0.035852160881496925,0.021955627287124115,0.0131343696999287
0.1869231,0.03030719839944781,0.0026213299701425075,0.0076929937285511755,0.04194044547025424,0.016092520199499978,0.03632204016762555,0.021780537174398446,0.01327849683307778
0.1874423,0.030584744587943507,0.002881437741882799,0.007659880845037593,0.0418694827203174,0.016141828438987087,0.03679755157542094,0.021606837015682653,0.013425108784571954
0.1879615,0.03086438457910459,0.0031486354168825557,0.007632174415512068,0.04179833097802409,0.016196627782030685,0.03727865656394304,0.021434542565010747,0.013574224873005662
0.1884808,0.031146098302243276,0.0034229555839568925,0.007609854110930651,0.041727022338043915,0.016256924823120713,0.03776531529204872,0.021263669197296307,0.013725864132773564
0.189,0.031429865128174465,0.003704429621807887,0.00759289873411233,0.04165558894672525,0.016322725306971667,0.03825748661887262,0.021094231905778138,0.013880045304350566
0.1895192,0.03171566386947031,0.00399308767861479,0.007581286225842262,0.04158406299557263,0.016394034123119725,0.03875512810452477,0.020926245299510697,0.014036786824534296
0.1900385,0.03200347278088814,0.004288958651767846,0.007574993671077969,0.04151247671468382,0.01647085530053925,0.03925819601100642,0.020759723600900167,0.01419610681665412
0.1905577,0.03229326955997245,0.004592070167754684,0.007573997305257609,0.0414408623661462,0.016553192002283397,0.039766645303345505,0.020594680643287178,0.014358023080750695
0.1910769,0.032585031347832,0.004902448562208301,0.007578272520709455,0.04136925223739219,0.016641046520153583,0.040280429650952944,0.020431129868577275,0.0145225530837299
0.1915962,0.03287873473009249,0.005220118860125698,0.007587793873161691,0.04129767863451324,0.01673442026940255,0.04079950142920077,0.02026908432492043,0.014689713949494965
0.1921154,0.0331743557380255,0.005545104756266268,0.0076025350883516234,0.041226173875531645,0.016833313783475645,0.041323811721222965,0.020108556664440967,0.014859522449060605
0.1926346,0.03347186984985411,0.005877428595739105,0.007622469068733347,0.04115477028362962,0.016937726708794978,0.04185331031993971,0.019949559141019646,0.015031994990652942
0.1931538,0.03377125199223558,0.006217111354788444,0.007647567900282869,0.04108350018033453,0.017047657799591262,0.042387945730305375,0.01979210360812992,0.015207147609799111
0.1936731,0.034072476541921,0.006564172621786485,0.007677802859399633,0.041012395878659125,0.017163104912788295,0.042927665171780705,0.019636201516730692,0.015384995959410506
0.1941923,0.03437551732759221,0.0069186305784428945,0.007713144419903362,0.040941489676195236,0.017284065002945204,0.04347241458102925,0.019481863913217972,0.015565555299863792
0.1947115,0.034680347631875774,0.007280501981240324,0.0077535622601250884,0.040870813848159236,0.017410534117261657,0.044022138614837884,0.019329101437437882,0.015748840489083978
0.1952308,0.034986940193533766,0.0076498021431052705,0.0077990252700912335,0.040800400640387355,0.017542507390651347,0.04457678065326109,0.019177924320763335,0.015934865972633883
0.19575,0.035295267209831234,0.008026544915323619,0.007849501558799559,0.040730282262278844,0.01767997904088904,0.045136282802988606,0.019028342384236712,0.016123645773814338
0.1962692,0.03560530033907999,0.008410742669710241,0.007904958461585817,0.04066049087968537,0.0178229423638364,0.045700585900935654,0.018880365036780724,0.016315193483779505
0.1967885,0.03591701070335858,0.008802406281041984,0.007965362547579924,0.04059105860774512,0.017971389728751952,0.04626962951805495,0.018734001273479635,0.016509522251671616
0.1973077,0.03623036889140805,0.009201545109763365,0.008030679627250483,0.04052201750366058,0.018125312573690495,0.04684335196336989,0.018589259673933007,0.01670664477477942
0.1978269,0.03654534496170335,0.009608166984974322,0.00810087476003644,0.0404533995594194,0.018284701400997163,0.04742169028822811,0.018446148400684016,0.016906573288724552
0.1983462,0.036861908445699906,0.010022278187709276,0.008175912262064674,0.040385236694458294,0.018449545772901425,0.04800458029077553,0.018304675197724423,0.01710931955768007
0.1988654,0.03718002835125507,0.010443883434516786,0.008255755713952264,0.04031756074827032,0.018619834307216112,0.04859195652065106,0.01816484738907821,0.017314894864625292
0.1993846,0.03749967316622378,0.010872985861349025,0.008340367968692083,0.04025040347295635,0.01879555467314644,0.04918375228390324,0.018026671877465907,0.017523310001641042
0.1999038,0.037820810862227695,0.011309587007770284,0.008429711159620375,0.040183796525721495,0.018976693587213975,0.04977989964813017,0.017890155143051572,0.017734575260249387
0.2004231,0.03814340889859674,0.011753686801493725,0.008523746708464865,0.040117771461317536,0.01916323680930027,0.05038032944784481,0.017755303242274336,0.017948700421801897
0.2009423,0.03846743422648191,0.012205283543255575,0.008622435333471918,0.0400523597244321,0.019355169138814885,0.050984971290067044,0.017622121806766432,0.01816569474792045
0.2014615,0.038792853293137745,0.012664373892035945,0.008725737057611196,0.03998759264202524,0.01955247441099224,0.051593753560144125,0.017490616042359578,0.018385566970994506
0.2019808,0.03911963204637298,0.013130952850635383,0.008833611216856201,0.03992350141561382,0.019755135493321682,0.052206603427801326,0.01736079072818143,0.01860832528473878
0.2025,0.03944773593916754,0.013605013751616234,0.00894601646853905,0.039860117113504,0.019963134282115026,0.05282344685342442,0.017232650215843727,0.018833977334815098
0.2030192,0.03977712993445408,0.01408654824361777,0.00906291079977784,0.03979747066297175,0.0201764516992157,0.053444208594576104,0.017106198428723702,0.019062530209522106
0.2035385,0.040107778510062295,0.014575546278054033,0.009184251535974944,0.0397355928423912,0.02039506768885367,0.05406881221274862,0.016981438861340126,0.01929399043055634
0.2040577,0.0404396456638243,0.015071996096203171,0.009309995349384655,0.039674514273310375,0.02061896121465028,0.05469718008035471,0.0168583745788253,0.019528363943848253
0.2045769,0.040772694918839295,0.015575884216696981,0.009440098267748578,0.03961426541247363,0.020848110256777297,0.05532923338795885,0.016737008216494157,0.01976565611047652
0.2050962,0.041106889328896036,0.01608719542341932,0.009574515682997269,0.039554876543790085,0.021082491809274646,0.05596489215175036,0.016617341979511493,0.0200058716976641
0.2056154,0.041442191484051684,0.016605912753821915,0.009713202360016614,0.03949637777024755,0.021322081877531276,0.05660407522125949,0.016499377642658228,0.020249014869859434
0.2061346,0.04177856351636611,0.01713201748766609,0.009856112445477525,0.03943879900577183,0.02156685547593395,0.05724670028731738,0.016383116550197543,0.020495089179906133
0.2066538,0.04211596710579053,0.01766548913619878,0.010003199476727584,0.039382169967031935,0.021816786625688627,0.05789268389026038,0.016268559615841557,0.020744097560304483
0.2071731,0.04245436348621012,0.018206305431771288,0.010154416390743357,0.0393265201651925,0.022071848352819418,0.05854194142837881,0.016155707322819193,0.02099604231456797
0.2076923,0.04279371345163994,0.018754442317909018,0.010309715533142133,0.039271878897615436,0.022332012686350017,0.0591943871666101,0.016044559724045827,0.02125092510867794
0.2082115,0.043133977362574114,0.019309873939840443,0.010469048667251962,0.03921827523951331,0.022597250656672587,0.059849934245476015,0.015935116442395262,0.021508746962639536
0.2087308,0.04347511515248771,0.019872572635493472,0.010632366983238944,0.039165738035557444,0.022867532294109115,0.06050849469026387,0.015827376671074547,0.021769508242141893
0.20925,0.04381708633449075,0.02044250892696714,0.010799621107290817,0.039114295891444016,0.02314282662767024,0.061169979420451485,0.01572133917410211,0.02203320865032569
0.2097692,0.04415985000813377,0.02101965151248649,0.010970761110855962,0.039063977165421704,0.02342310168401641,0.06183429825937574,0.015617002286889664,0.022299847219661013
0.2102885,0.04450336486636375,0.021603967258848347,0.011145736519937114,0.03901480995978458,0.023708324486626037,0.06250135994414456,0.01551436391692839,0.022569422303938637
0.2108077,0.04484758920262928,0.0221954211943656,0.011324496324439076,0.03896682211233404,0.023998461055175304,0.0631710721357922,0.015413421544579751,0.022841931570377772
0.2113269,0.04519248091813351,0.022793976502317438,0.011506988987569853,0.03892004118781335,0.024293476405134046,0.0638433414296775,0.015314172223971493,0.02311737199185322
0.2118462,0.04553799752923305,0.023399594514912896,0.011693162455294656,0.038874494469318475,0.02459333454758215,0.06451807336612456,0.015216612583999313,0.023395739839244895
0.2123654,0.04588409617498113,0.024012234707775054,0.01188296416584228,0.03883020894968874,0.024897998489250818,0.06519517244130539,0.015120738829434838,0.023677030673912622
0.2128846,0.046230733624812545,0.024631854694952895,0.012076341059263333,0.03878721132288054,0.02520743023279298,0.06587454211836417,0.015026546742140674,0.02396123934029887
0.2134038,0.0465778662863678,0.025258410224467943,0.01227323958703975,0.03874552797532744,0.025521590777287103,0.06655608483878284,0.014934031682393422,0.024248359958662143
0.2139231,0.04692545021345361,0.025891855174402352,0.01247360572174503,0.03870518497729034,0.025840440118978545,0.06723970203398835,0.01484318859031573,0.024538385917943602
0.2144423,0.047273441114136304,0.026532141549535187,0.012677384966754515,0.03866620807420111,0.02616393725226261,0.06792529413720239,0.01475401198741845,0.02483130986876967
0.2149615,0.047621794358964555,0.027179219478533138,0.012884522366005041,0.038628622678003884,0.026492040170913302,0.0686127605955345,0.014666495978254058,0.025127123716593255
0.2154808,0.047970464989317334,0.02783303721170201,0.013094962513803297,0.0385924538584985,0.026824705869561895,0.06930199988232068,0.014580634252182593,0.025425818614976496
0.216,0.04831940772587276,0.028493541119304976,0.013308649564682204,0.038557726334691025,0.027161890345429297,0.06999290950970896,0.014496420085251345,0.025727384959018086
0.2165192,0.048668576977193456,0.029160675690453504,0.013525527243304641,0.03852446446615682,0.027503548600316455,0.07068538604149412,0.014413846342189545,0.026031812378928328
0.2170385,0.04901792684842364,0.029834383532576794,0.013745538854413894,0.03849269224442217,0.027849634642856877,0.07137932510620283,0.01433290547851926,0.026339089733755372
0.2175577,0.04936741115009309,0.030514605371475465,0.013968627292830224,0.03846243328437101,0.028200101491035544,0.07207462141043108,0.014253589542783761,0.026649205105266322
0.2180769,0.04971698340702318,0.03120128005196529,0.014194735053493002,0.038433710815683565,0.028554901174978466,0.07277116875243517,0.014175890178894432,0.02696214579198714
0.2185962,0.05006659686733019,0.03189434453911676,0.014423804241547862,0.038406547674314104,0.028913984740017166,0.07346886003597876,0.01409979862859734,0.027277898303405428
0.2191154,0.05041620451152155,0.03259373392009625,0.014655776582478403,0.038380966294014926,0.02927730225003248,0.07416758728443883,0.014025305734060432,0.027596448354340337
0.2196346,0.0507657590616808,0.03329938140661444,0.014890593432281963,0.03835698869791365,0.029644802791081976,0.0748672416551747,0.013952401940582278,0.027917780859483977
0.2201538,0.05111521299073755,0.03401121833798771,0.015128195787689074,0.03833463649015065,0.030016434475315344,0.07556771345416533,0.013881077299423165,0.02824187992811891
0.2206731,0.05146451853181911,0.03472917418481775,0.015368524296426262,0.038313930847583104,0.030392144445182,0.0762688921509207,0.013811321470759272,0.02856872885901667
0.2211923,0.0518136276876808,0.035453176553294746,0.015611519267521896,0.03829489251156214,0.03077187887793494,0.07697066639367298,0.013743123726760523,0.02889831013552276
0.2217115,0.0521624922402123,0.03618315119012894,0.015857120681654995,0.0382775417797888,0.03115558299043474,0.0776729240248531,0.013676472954792719,0.029230605420834135
0.2222308,0.05251106376001766,0.03691902198811538,0.01610526820154696,0.03826189849825477,0.031543201044257375,0.07837555209685786,0.01361135766074432,0.029565595553475606
0.22275,0.052859293616066255,0.037660710992336144,0.01635590118239636,0.038247982053273184,0.031934676351109456,0.07907843688811261,0.0135477659724782,0.029903260542981768
0.2232692,0.053207132985412096,0.03840813840700408,0.016608958682357032,0.03823581136360485,0.032329951278554134,0.07978146391943394,0.013485685643408709,0.030243579565791236
0.2237885,0.053554532862978586,0.039161222602951774,0.01686437947305965,0.038225404872685095,0.032728967256050956,0.08048451797069717,0.01342510405620414,0.030586530961359784
0.2243077,0.053901444071405465,0.03991988012576925,0.01712210205017713,0.03821678054095611,0.033131664781312554,0.08118748309781332,0.01336600822661481,0.030932092228498884
0.2248269,0.0542478172709547,0.040684025704593334,0.01738206464403394,0.03820995583830967,0.03353798342698098,0.08189024265002036,0.01330838480742681,0.031280240021945974
0.2253462,0.05459360296947209,0.041453572261551684,0.017644205230259495,0.038204947736644936,0.03394786184762615,0.0825926792874937,0.013252220092541494,0.031630950149172575
0.2258654,0.05493875153240137,0.042228430921863735,0.01790846154048577,0.03820177270254578,0.03436123778706882,0.08329467499928063,0.013197500021180667,0.03198419756743641
0.2263846,0.05528321319284785,0.043008511024600786,0.01817477107308924,0.03820044669008168,0.03477804808603009,0.08399611112156362,0.013144210182217422,0.032339956381083376
0.2269038,0.055626938061688946,0.04379372013410701,0.018443071103977318,0.03820098513373623,0.035198228690109405,0.08469686835625775,0.013092335818632441,0.032698199839105414
0.2274231,0.055969876137728615,0.04458396405208287,0.018713298697419604,0.038203402941466964,0.035621714658092815,0.08539682678994782,0.013041861832095615,0.033058900332960064
0.2279423,0.05631197731789343,0.04537914683033189,0.018985390716924205,0.03820771448789993,0.03604844017059299,0.08609586591317132,0.012992772787672647,0.03342202939465756
0.2284615,0.056653191407467794,0.046179170784171615,0.01925928383615956,0.038213933607662384,0.03647833853902282,0.08679386464005381,0.012945052918656342,0.03378755769512096
0.2289808,0.056993468130365536,0.046983936506509304,0.019534914549922216,0.038222073588856494,0.036911342214904136,0.08749070132830356,0.01289868613152217,0.034155455042824585
0.2295,0.05733275713943544,0.04779334288258225,0.019812219185151077,0.0382321471666768,0.03734738279951328,0.08818625379957303,0.0128536560110077,0.034525690382716044
0.2300192,0.05767100802679765,0.04860728710536271,0.020091133911988725,0.038244166517173696,0.037786391053865186,0.08888039936019461,0.012809945825315385,0.03489823179542634
0.2305385,0.05800817033420807,0.04942566469162679,0.020371594754890372,0.0382581432511651,0.038228296909037424,0.08957301482229783,0.01276753853143821,0.03527304649677283
0.2310577,0.058344193563447264,0.050248369498686406,0.02065353760378102,0.03827408840829788,0.03867302947683564,0.09026397652531506,0.012726416780607588,0.03565010083755919
0.2315769,0.058679027186730535,0.051075293741783004,0.02093689822526136,0.03829201245126058,0.03912051706080176,0.0909531603578821,0.012686562923862858,0.036029360303676664
0.2320962,0.05901262065713563,0.05190632801214174,0.021221612273862787,0.03831192526014855,0.039570687167566246,0.09164044178013926,0.012647959017741624,0.03641078951651034
0.2326154,0.05934492341904478,0.05274136129568394,0.021507615303351896,0.03833383612698258,0.04002346651854577,0.09232569584643824,0.012610586830090151,0.03679435223365432
0.2331346,0.059675884918597884,0.05358028099239555,0.021794842778084748,0.038357753750381626,0.04047878106198764,0.09300879722845899,0.01257442784599286,0.037180011349939084
0.2336538,0.06000545461415409,0.05442297293634888,0.02208323008441115,0.0383836862303905,0.04093655598536222,0.09368962023874133,0.012539463273819959,0.03756772889877439
0.2341731,0.06033358198675933,0.05526932141637468,0.02237271254212916,0.038411641063463106,0.04139671572810444,0.0943680388546349,0.012505674051392135,0.03795746605381081
0.2346923,0.060660216550617735,0.056119209197381115,0.022663225415989977,0.038441625137602055,0.041859183994705514,0.09504392674267162,0.012473040852261148,0.03834918313092268
0.2352115,0.060985307863565215,0.05697251754231611,0.022954703927253302,0.03847364472765528,0.04232388376815575,0.09571715728336387,0.012441544092105085,0.03874283959051517
0.2357308,0.06130880553754356,0.05782912623476893,0.023247083265293084,0.038507705490770684,0.04279073732373905,0.09638760359643156,0.012411163935237017,0.03913839404015788
0.23625,0.061630659249073474,0.058688913602206766,0.02354029859925353,0.03854381246200974,0.04325966624317967,0.0970551385664602,0.01238188030122568,0.03953580423754699
0.2367692,0.06195081874972526,0.05955175653984147,0.023834285089755155,0.03858197005012104,0.04373059142914107,0.09771963486899164,0.012353672871626723,0.03993502709379798
0.2372885,0.062269233876585554,0.06041753053512112,0.024128977900650602,0.03862218203347504,0.044203433120076845,0.09838096499704876,0.012326521096823103,0.04033601867707049
0.2378077,0.06258585456271913,0.06128610969284072,0.024424312210829854,0.03866445155616121,0.04467811090543325,0.09903900128809491,0.012300404202973056,0.04073873421652673
0.2383269,0.06290063084762436,0.0621573667608657,0.024720223226074464,0.03870878112424879,0.04515454374120239,0.09969361595142832,0.012275301199064156,0.041143128106624724
0.2388462,0.06321351288768129,0.06303117315646156,0.02501664619096039,0.03875517260221242,0.0456326499658252,0.100344681096012,0.012251190884071816,0.041549153911747384
0.2393654,0.06352445096659164,0.06390739899322241,0.025313516400809068,0.038803627209523746,0.046112347316443106,0.10099206875873962,0.012228051854220571,0.041956764371168555
0.2398846,0.06383339550580931,0.06478591310859062,0.02561076921368635,0.03885414551740996,0.04659355294549712,0.10163565093313791,0.01220586251034644,0.04236591140435667
0.2404038,0.0641402970749606,0.06566658309195934,0.025908340062448933,0.03890672744578014,0.047076183437672926,0.10227529959850588,0.012184601065358505,0.04277654611661675
0.2409231,0.06444510640225264,0.06654927531334932,0.02620616446683801,0.03896137226031973,0.04756015482719047,0.10291088674949199,0.012164245551797818,0.043188618805071126
0.2414423,0.0647477743848684,0.06743385495265072,0.02650417804561961,0.03901807856975395,0.04804538261543636,0.10354228442610891,0.012144773829491619,0.04360207896497934
0.2419615,0.06504825209934628,0.0683201860294209,0.02680231652877136,0.03907684432328047,0.04853178178893725,0.10416936474418587,0.012126163593300807,0.04401687529639702
0.2424808,0.06534649081194206,0.06920813143322817,0.027100515769715037,0.03913766680817216,0.04901926683767222,0.10479199992625723,0.012108392380958571,0.04443295571117385
0.243,0.06564244198897114,0.07009755295453152,0.027398711757594386,0.03920054264755058,0.049507751773721735,0.10541006233288594,0.012091437580998001,0.044850267340290476
0.2435192,0.0659360573071291,0.07098831131608571,0.027696840629597513,0.03926546779833145,0.04999715015025051,0.1060234244944186,0.012075276440766449,0.04526875654153376
0.2440385,0.0662272886637889,0.07188026620486081,0.027994838683323132,0.03933243754934354,0.05048737508082141,0.10663195914316943,0.01205988607452437,0.04568836890750999
0.2445577,0.06651608818727293,0.07277327630446481,0.02829264238918972,0.03940144651962275,0.05097833925903703,0.10723553924602916,0.012045243471626256,0.046109049273995506
0.2450769,0.06680240824709942,0.07366719932805803,0.0285901884028867,0.03947248865688341,0.05146995497850564,0.10783403803749426,0.012031325504781181,0.04653074172862445
0.2455962,0.06708620146420136,0.07456189205174767,0.028887413577866627,0.039545557236169156,0.05196213415312785,0.10842732905311209,0.012018108938390394,0.04695338961991379
0.2461154,0.06736742072111744,0.07545721034845186,0.029184254977877192,0.03962064485868583,0.05245478833769995,0.10901528616333607,0.01200557043695935,0.04737693556662573
0.2466346,0.06764601917215379,0.07635300922222242,0.029480649889531717,0.0396977434508189,0.052947828748830104,0.10959778360778451,0.011993686573581498,0.04780132146746823
0.2471538,0.0679219502535153,0.07724914284301651,0.02977653583491669,0.03977684426333795,0.05344116628616303,0.11017469602989588,0.011982433838491086,0.0482264885111344
0.2476731,0.0681951676934053,0.07814546458190788,0.03007185058423464,0.03985793787079038,0.05393471155390864,0.11074589851197256,0.011971788647682224,0.048652377186681514
0.2481923,0.06846562552209251,0.07904182704672925,0.03036653216848052,0.03994101417108656,0.054428374882670265,0.11131126661060371,0.011961727351591348,0.049078927294250695
0.2487115,0.06873327808194392,0.07993808211813758,0.030660518892149515,0.04002606238527817,0.05492206635156774,0.11187067639245807,0.011952226243840248,0.049506077956128054
0.2492308,0.06899808003742272,0.0808340809860946,0.030953749345974172,0.040113071057531445,0.05541569581065053,0.11242400447043559,0.011943261570036742,0.04993376762814863
0.24975,0.06925998638505071,0.08172967418675549,0.03124616241968864,0.04020202805529669,0.0559091729035959,0.11297112804016668,0.011934809536630134,0.050361934111444115
0.2502692,0.06951895246333485,0.08262471163975822,0.03153769731481784,0.040292920569675365,0.05640240709068671,0.11351192491684639,0.011926846319818607,0.05079051456453556
0.2507885,0.0697749339626584,0.08351904268590653,0.03182829355748937,0.04038573511598569,0.05689530767206318,0.1140462735723904,0.011919348074505691,0.0512194455157718
0.2513077,0.07002788693513684,0.08441251612523898,0.03211789101126593,0.04048045753452782,0.05738778381124264,0.11457405317289822,0.011912290943302895,0.05164866287611424
0.2518269,0.07027776780443944,0.0853049802554766,0.032406429889996265,0.04057707299154927,0.057879744558900985,0.11509514361640859,0.011905651065575696,0.05207810195226801
0.2523462,0.070524533375577,0.08619628291084097,0.032693850770682216,0.04067556598041128,0.05837109887690953,0.11560942557093125,0.011899404586530044,0.05250769746015962
0.2528654,0.07076814084465663,0.08708627150123432,0.03298009460635973,0.04077592032295668,0.05886175566262082,0.116116780512738,0.011893527666336603,0.0529373835387605
0.2533846,0.07100854780860343,0.08797479305177289,0.03326510273899107,0.04087811917107996,0.05935162377339682,0.11661709076489576,0.011887996489289914,0.05336709376425566
0.2539038,0.0712457122748492,0.08886169424266357,0.033548816912365526,0.04098214500849977,0.059840612051372574,0.1171102395360236,0.011882787272999728,0.053796761164556416
0.2544231,0.07147959267098743,0.08974682144941401,0.03383117928500551,0.04108797965273478,0.060328629348448674,0.11759611095925442,0.011877876277611697,0.05422631823415574
0.2549423,0.07171014785439356,0.09063002078336523,0.0341121324430746,0.041195604257283504,0.06081558455150527,0.11807459013138194,0.011873239815054577,0.054655696949324796
0.2554615,0.07193733712180925,0.09151113813253518,0.034391619413284016,0.041304999314008946,0.06130138660783019,0.11854556315217293,0.011868854258311067,0.05508482878364887
0.2559808,0.07216112021888858,0.0923900192027612,0.03466958367579348,0.0414161446557292,0.06178594455075325,0.1190089171638235,0.01186469605070941,0.055513644723900676
0.2565,0.07238145734970382,0.09326650955912827,0.03494596917710243,0.04152901945901529,0.06226916752547843,0.11946454039053758,0.011860741715232704,0.05594207528624882
0.2570192,0.07259830918620803,0.09414045466766946,0.035220720342927316,0.04164360224719747,0.06275096481510532,0.11991232217820495,0.011856967863842886,0.056370050532798636
0.2575385,0.07281163687765167,0.09501169993732433,0.03549378209106054,0.04175987089358151,0.0632312458668307,0.12035215303415535,0.011853351206816257,0.056797500088462634
0.2580577,0.07302140205994985,0.09588009076214005,0.03576509984420663,0.0418778026248764,0.06370992031832075,0.12078392466696482,0.011849868562087373,0.057224353158156965
0.2585769,0.07322756686499715,0.09674547256369949,0.03603461954279083,0.04199737402483478,0.06418689802424417,0.12120753002629046,0.011846496864598087,0.05765053854432031
0.2590962,0.07343009392992697,0.0976076908337598,0.036302287657735334,0.0421185610381072,0.0646620890829559,0.12162286334270954,0.01184321317564853,0.05807598466475073
0.2596154,0.07362894640631207,0.09846659117708416,0.0365680512031979,0.04224133897431115,0.06513540386332127,0.12202982016753947,0.011839994692246662,0.05850061957075584
0.2601346,0.07382408796930348,0.09932201935444927,0.03683185774926762,0.04236568251231538,0.06560675303167,0.12242829741261509,0.011836818756453095,0.05892437096561113
0.2606538,0.07401548282670425,0.10017382132581021,0.037093655434612176,0.0424915657047398,0.06607604757886905,0.1228181933899991,0.011833662864717886,0.05934716622332071
0.2611731,0.07420309572797466,0.10102184329360415,0.03735339297907096,0.04261896198267103,0.06654319884750347,0.12319940785160213,0.011830504677205977,0.0597689324076744
0.2616923,0.074386891973165,0.1018659317461748,0.03761101969618824,0.042747844160592983,0.06700811855915378,0.12357184202868794,0.011827322027108142,0.06018959629159481
0.2622115,0.07456683742177166,0.10270593350129824,0.03786648550568051,0.042878184441531984,0.06747071884175827,0.12393539867123898,0.011824092929934221,0.060609084376767444
0.2627308,0.07474289850151251,0.10354169574979144,0.03811974094583212,0.04300995442241524,0.06793091225704838,0.12428998208715729,0.011820795592785482,0.061027322913546816
0.26325,0.07491504221701797,0.10437306609918445,0.03837073718581327,0.04314312509964148,0.0683886118280453,0.12463549818127627,0.011817408423602835,0.06144423792113112
0.2637692,0.07508323615843426,0.10519989261743731,0.03861942603791426,0.043277666874862224,0.06884373106660564,0.12497185449415842,0.011813910040387572,0.0618597552079977
0.2642885,0.07524744850993698,0.10602202387668283,0.03886575996968968,0.043413549560972015,0.06929618400100372,0.1252989602406552,0.011810279280391215,0.062273800392591325
0.2648077,0.07540764805815343,0.10683930899697666,0.03910969211600612,0.043550742388305905,0.06974588520353832,0.12561672634820523,0.011806495209270983,0.0626862989242567
0.2653269,0.07556380420049295,0.10765159769003665,0.03935117629098671,0.043689214011042365,0.07019274981815171,0.12592506549484692,0.01180253713020732,0.06309717610440625
0.2658462,0.07571588695338483,0.10845874030295388,0.03959016699984567,0.043828932513809815,0.07063669358804872,0.12622389214692303,0.011798384592979896,0.06350635710791419
0.2663654,0.07586386696042385,0.10926058786185805,0.039826619450606074,0.043969865418494916,0.07107763288330389,0.1265131225964549,0.011794017402998385,0.0639137670047271
0.2668846,0.0760077155004229,0.11005699211552072,0.04006048956569357,0.04411197969125087,0.07151548472844468,0.1267926749981644,0.011789415630284383,0.0643193307816813
0.2674038,0.07614740449537202,0.11084780557888009,0.04029173399339901,0.04425524174970394,0.07195016682999877,0.12706246940612245,0.011784559618400657,0.06472297336451698
0.2679231,0.07628290651830338,0.11163288157647179,0.04052031011920266,0.0443996174703565,0.07238159760399346,0.1273224278100016,0.011779429993323902,0.06512461964007925
0.2684423,0.07641419480106126,0.11241207428574995,0.04074617607695313,0.044545072196185025,0.07280969620339489,0.12757247417091042,0.01177400767225711,0.06552419447869673
0.2689615,0.07654124324197722,0.11318523878028232,0.04096929075989428,0.044691570744431315,0.07323438254547487,0.12781253445678567,0.011768273872377626,0.06592162275672876
0.2694808,0.07666402641345073,0.11395223107280318,0.041189613831533765,0.044839077414585704,0.07365557733909213,0.12804253667731866,0.011762210119516928,0.06631682937927282
0.27,0.07678251956943653,0.1147129081581073,0.041407105736347566,0.044987555996560964,0.07407320211187482,0.12826241091838983,0.011755798256768205,0.06670973930302433
0.2705192,0.07689669865284099,0.11546712805576699,0.04162172771031489,0.0451369697790558,0.07448717923729056,0.12847208937598573,0.011749020453017732,0.0671002775592815
0.2710385,0.07700654030282984,0.11621474985265512,0.04183344179127862,0.04528728155810674,0.07489743196158949,0.1286715063895713,0.011741859211396173,0.0674883692770873
0.2715577,0.07711202186205138,0.11695563374525525,0.04204221082912638,0.04543845364582744,0.0753038844306053,0.12886059847488904,0.011734297377645888,0.06787393970650153
0.2720769,0.07721312138377898,0.11768964108174124,0.04224799849578778,0.04559044787933407,0.07570646171639868,0.12903930435615615,0.011726318148400305,0.06825691424199483
0.2725962,0.07730981763897792,0.11841663440380808,0.04245076929504325,0.04574322562985555,0.07610508984372669,0.12920756499762928,0.011717905079371529,0.06863721844595735
0.2731154,0.07740209012330146,0.11913647748823622,0.042650488572140294,0.04589674781202714,0.07649969581632123,0.12936532363450595,0.01170904209344228,0.06901477807231415
0.2736346,0.07748991906402163,0.11984903538817122,0.04284712252321292,0.04605097489336584,0.07689020764295901,0.129512525803131,0.011699713488658335,0.06938951909023897
0.2741538,0.07757328542690003,0.1205541744741015,0.04304063820450051,0.04620586690392581,0.07727655436330506,0.129649119370476,0.011689903946117611,0.06976136770795811
0.2746731,0.07765217092300439,0.12125176247451656,0.04323100354136246,0.0463613834461321,0.07765866607351131,0.12977505456285912,0.011679598537752115,0.07013025039663513
0.2751923,0.07772655801547583,0.12194166851622835,0.04341818733708501,0.04651748370479098,0.0780364739515519,0.12989028399387287,0.01166878273399903,0.0704960939143265
0.2757115,0.07779642992625219,0.12262376316433758,0.04360215928147703,0.04667412645727481,0.0784099102822769,0.12999476269148696,0.011657442411357395,0.07085882532999811
0.2762308,0.07786177064275172,0.12329791846182789,0.04378288995925103,0.04683127008387971,0.07877890848216593,0.1300884481242939,0.0116455638598269,0.0712183720475917
0.27675,0.07792256492452139,0.12396400796876902,0.04396035085818569,0.04698887257835393,0.07914340312376379,0.1301713002268658,0.011633133790225448,0.07157466183012984
0.2772692,0.07797879830985295,0.12462190680111075,0.04413451437706606,0.047146891558594695,0.07950332995977996,0.13024328142419267,0.011620139341382214,0.071927622823848
0.2777885,0.07803045712236996,0.12527149166904814,0.04430535383339784,0.04730528427751136,0.07985862594683386,0.13030435665517545,0.01160656808720296,0.0722771835823417
0.2783077,0.07807752847758778,0.12591264091493867,0.04447284347089191,0.047464007634052015,0.08020922926882805,0.1303544933951488,0.011592408043604402,0.07262327309071674
0.2788269,0.07812000028944806,0.12654523455075128,0.04463695846671548,0.047623018184390964,0.08055507935993166,0.13039366167741187,0.011577647675314386,0.0729658207897305
0.2793462,0.07815786127682854,0.1271691542950268,0.04479767493850641,0.0477822721532736,0.08089611692715722,0.13042183411374672,0.011562275902534658,0.07330475659991194
0.2798654,0.0781911009700287,0.12778428360932934,0.044954969951146846,0.04794172544551527,0.08123228397251464,0.13043898591390607,0.011546282107462943,0.07364001094564804
0.2803846,0.07821970971723045,0.12839050773416802,0.04510882152329266,0.04810133365765017,0.08156352381472701,0.13044509490405215,0.011529656140671059,0.07397151477922449
0.2809038,0.07824367869093331,0.1289877137243676,0.04525920863365466,0.04826105208972588,0.08188978111049343,0.13044014154412903,0.011512388327335872,0.07429919960480794
0.2814231,0.07826299989436179,0.12957579048386747,0.04540611122702759,0.04842083575723909,0.08221100187528511,0.13042410894415046,0.011494469473319955,0.07462299750235747
0.2819423,0.07827766616784348,0.1301546287999283,0.04554951022006259,0.048580639403207705,0.08252713350366081,0.13039698287938467,0.011475890871099024,0.07494284115145303
0.2824615,0.0782876711951547,0.13072412137672462,0.04568938750677893,0.04874041751037413,0.08283812478908825,0.13035875180441708,0.011456644305533357,0.07525866385502779
0.2829808,0.07829300950983076,0.13128416286830175,0.04582572596381074,0.04890012431353466,0.0831439259432587,0.13030940686607226,0.011436722059480606,0.07557039956299261
0.2835,0.07829367650143756,0.13183464991087554,0.04595850945538439,0.04905971381198921,0.08344448861488189,0.13024894191517591,0.011416116919247618,0.07587798289573996
0.2840192,0.07828966842180124,0.13237548115445139,0.04608772283802267,0.0492191397821061,0.08373976590794922,0.1301773535171389,0.01139482217987935,0.07618134916751519
0.2845385,0.07828098239119272,0.1329065572937388,0.04621335196497172,0.04937835578999604,0.08402971239945356,0.1300946409613462,0.011372831650283322,0.0764804344096428
0.2850577,0.07826761640446452,0.13342778109833683,0.04633538369034715,0.0495373152042898,0.08431428415655474,0.13000080626933444,0.011350139658188435,0.07677517539359596
0.2855769,0.07824956933713756,0.13393905744216517,0.046453805872995614,0.049695971209013895,0.08459343875318134,0.1298958542017437,0.011326741054937273,0.07706550965389684
0.2860962,0.07822684095143635,0.1344402933321153,0.046568607380068426,0.049854276816558754,0.08486713528606042,0.12977979226403027,0.011302631220111211,0.07735137551083611
0.2866154,0.07819943190227165,0.13493139793589734,0.04667977809030361,0.05001218488073388,0.0851353343901692,0.1296526307109293,0.01127780606598758,0.07763271209299892
0.2871346,0.07816734374316993,0.13541228260905872,0.046787308897013026,0.05016964810990434,0.08539799825360428,0.12951438254965933,0.011252262041828248,0.07790945935958488
0.2876538,0.0781305789321499,0.13588286092115393,0.04689119171077129,0.05032661908020336,0.08565509063186619,0.12936506354186186,0.011225996137998915,0.07818155812250892
0.2881731,0.07808914083754619,0.13634304868104752,0.046991419461803,0.050483050248815865,0.08590657686155928,0.12920469220427305,0.011199005889918448,0.07844895006826935
0.2886923,0.07804303374378078,0.13679276396133655,0.047087986102065084,0.05063889396732782,0.0861524238735089,0.12903328980812634,0.011171289381837583,0.07871157777956922
0.2892115,0.0779922628570829,0.13723192712188267,0.04718088660702102,0.05079410249513658,0.08639260020529853,0.12885088037728804,0.011142845250446258,0.0789693847566767
0.2897308,0.0779368343111577,0.13766046083244865,0.047270116977104,0.05094862801291812,0.08662707601323066,0.12865749068512988,0.011113672688308865,0.07922231543851001
0.29025,0.07787675517280439,0.13807829009443756,0.047355674238866066,0.0511024226361471,0.08685582308371542,0.12845315025014414,0.01108377144712667,0.07947031522343254
0.2907692,0.07781203344748368,0.1384853422617371,0.0474375564458106,0.05125543842866648,0.08707881484409133,0.12823789133030958,0.011053141840826564,0.079713330489744
0.2912885,0.07774267808483436,0.13888154706067393,0.04751576267890582,0.05140762741630398,0.08729602637288214,0.1280117489162169,0.011021784748475491,0.07995130861585369
0.2918077,0.07766869898413833,0.13926683660908545,0.047590293046777296,0.05155894160053318,0.08750743440949317,0.1277747607229639,0.01098970161701987,0.08018419800012214
0.2923269,0.07759010699973296,0.13964114543451694,0.047661148685578254,0.051709332972177405,0.08771301736335023,0.12752696718083095,0.010956894463849353,0.08041194808035779
0.2928462,0.07750691394636865,0.1400044104915535,0.04772833175853663,0.05185875352515521,0.08791275532248348,0.12726841142474815,0.010923365879184323,0.08063450935295566
0.2933654,0.07741913260450974,0.1403565711782955,0.04779184545517945,0.052007155270266184,0.08810663006155785,0.12699913928256493,0.010889119028286487,0.08085183339166555
0.2938846,0.07732677672557563,0.14069756935198696,0.047851693990235346,0.052154490249015924,0.0882946250493513,0.1267191992621332,0.010854157653491863,0.08106387286597766
0.2944038,0.07722986103711908,0.14102734934380415,0.04790788260221685,0.05230071054747921,0.08847672545568187,0.12642864253721423,0.010818486076065415,0.08127058155911418
0.2949231,0.07712840124793799,0.14134585797281263,0.047960417551684335,0.05244576831020025,0.08865291815778376,0.12612752293221863,0.010782109197876501,0.08147191438561632
0.2954423,0.07702241405311737,0.14165304455909958,0.04800930611919355,0.0525896157541287,0.08882319174613289,0.12581589690578887,0.010745032502894276,0.08166782740851714
0.2959615,0.07691191713899768,0.14194886093608783,0.04805455660292858,0.05273220518258984,0.08898753652972233,0.1254938235332323,0.010707262058502108,0.08185827785609198
0.2964808,0.07679692918806634,0.142233261462037,0.048096178316021795,0.05287348899928707,0.08914594454078746,0.12516136448781348,0.01066880451663014,0.08204322413817974
0.297,0.07667746988376944,0.14250620303073694,0.04813418158356227,0.05301341972233452,0.08929840953898141,0.12481858402091439,0.010629667114705027,0.08222262586206897
0.2975192,0.07655355991524095,0.14276764508139794,0.04816857773929359,0.05315194999831704,0.08944492701500102,0.12446554894107122,0.01058985767641593,0.08239644384794446
0.2980385,0.076425220981947,0.14301754960774157,0.04819937912200205,0.05328903261637465,0.08958549419366431,0.12410232859189795,0.010549384612295846,0.08256464014389021
0.2985577,0.07629247579824368,0.14325588116629595,0.0482265990715957,0.05342462052230776,0.08972011003644022,0.12372899482890676,0.010508256920117436,0.08272717804044534
0.2990769,0.07615534809784659,0.1434826068838985,0.0482502519248745,0.05355866683269931,0.08984877524343254,0.12334562199523676,0.010466484185102466,0.08288402208470999
0.2995962,0.0760138626382111,0.14369769646440908,0.04827035301099171,0.053691124849049726,0.08997149225481964,0.12295228689630353,0.010424076579944092,0.0830351380939979
0.3001154,0.07586804520482203,0.1439011221946357,0.04828691864660668,0.053821948071919895,0.09008826525175212,0.12254906877338281,0.010381044864641208,0.08318049316903224
0.3006346,0.07571792261539202,0.14409285894947424,0.048299966130729025,0.05395109021507766,0.09019910015671126,0.12213604927614362,0.010337400386144148,0.08332005570668102
0.3011538,0.0755635227239677,0.14427288419626416,0.04830951373925435,0.05407850521964285,0.09030400463333128,0.12171331243414674,0.010293155077811044,0.08345379541222754
0.3016731,0.07540487442494231,0.1444411779983595,0.04831558071919191,0.0542041472682259,0.09040298808568877,0.12128094462732676,0.010248321458674207,0.08358168331117091
0.3021923,0.07524200765697385,0.14459772301791524,0.04831818728258454,0.0543279707990551,0.09049606165706245,0.12083903455547654,0.010202912632515803,0.08370369176055124
0.3027115,0.0750749534068066,0.1447425045178868,0.048317354600121744,0.054449930520087696,0.09058323822816704,0.12038767320675486,0.0101569422867522,0.08381979445979336
0.3032308,0.07490374371299426,0.14487551036324028,0.048313104794446886,0.05456998142309995,0.09066453241486401,0.11992695382523925,0.010110424691126257,0.08392996646106252
0.30375,0.07472841166952185,0.1449967310213697,0.04830546093315984,0.05468807879775192,0.09073996056535297,0.11945697187754746,0.010063374696206948,0.0840341841791256
0.3042692,0.0745489914293235,0.14510615956171713,0.048294447021516695,0.054804178245622615,0.0908095407568463,0.11897782501855282,0.01001580773169578,0.0841324254007106
0.3047885,0.0743655182076925,0.14520379165459085,0.04828008799482837,0.05491823569421144,0.09087329279173138,0.11848961305621958,0.00996773980453958,0.08422466929335719
0.3053077,0.07417802828557993,0.14528962556917693,0.04826240971056041,0.0550302074109022,0.09093123819322482,0.11799243791558589,0.009919187496849419,0.08431089641375121
0.3058269,0.07398655901277817,0.1453636621707396,0.048241438940136015,0.055140050016885815,0.09098340020052315,0.11748640360192274,0.009870167963625541,0.08439108871553526
0.3063462,0.07379114881098559,0.14542590491700616,0.04821720336044512,0.05524772050103781,0.09102980376345482,0.11697161616309809,0.009820698930288281,0.08446522955658764
0.3068654,0.07359183717674879,0.1454763598537334,0.04818973154506168,0.05535317623374652,0.09107047553663782,0.1164481836511759,0.00977079869001495,0.0845333037057617
0.3073846,0.07338866468427921,0.14551503560945253,0.048159052955172366,0.05545637498068764,0.09110544387314645,0.1159162160832798,0.009720486100882698,0.08459529734907763
0.3079038,0.07318167298814053,0.14554194338939144,0.04812519793021955,0.05555727491654017,0.09113473881769127,0.11537582540175159,0.009669780582817318,0.08465119809535887
0.3084231,0.07297090482580369,0.14555709696857355,0.04808819767826217,0.05565583463863859,0.09115839209931544,0.11482712543363388,0.009618702114347913,0.0847009949813057
0.3089423,0.07275640402006633,0.14556051268409423,0.04804808426605807,0.05575201318055587,0.09117643712361063,0.11427023184950641,0.009567271229167352,0.08474467847599854
0.3094615,0.07253821548133309,0.14555220942657648,0.0480048906088719,0.055845770025611585,0.09118890896445642,0.11370526212170404,0.009515509012498419,0.08478224048482456
0.3099808,0.07231638520975343,0.14553220863080912,0.04795865046001282,0.05593706512029948,0.09119584435528644,0.11313233548194429,0.00946343709726557,0.08481367435282172
0.3105,0.07209096029721322,0.14550053426557133,0.047909398400106724,0.05602585888762909,0.09119728167988542,0.11255157287839135,0.009411077660072311,0.08483897486743511
0.3110192,0.07186198892917615,0.14545721282264934,0.047857169826107826,0.05611211224037605,0.09119326096272055,0.11196309693218308,0.00935845341698422,0.084858138260682
0.3115385,0.07162952038637084,0.14540227330505168,0.047802000940054434,0.05619578659423644,0.09118382385881081,0.11136703189344702,0.009305587619117756,0.08487116221072294
0.3120577,0.07139360504631895,0.14533574721443024,0.0477439287375743,0.0562768438808807,0.0911690136431372,0.11076350359683135,0.009252504048035026,0.08487804584283658
0.3125769,0.0711542943846994,0.1452576685377165,0.047682990996145085,0.05635524656090323,0.09114887519959687,0.11015263941657646,0.009199227010944791,0.08487878972979826
0.3130962,0.07091164097654322,0.14516807373298227,0.0476192262631156,0.056430957636664336,0.09112345500950376,0.10953456822115293,0.009145781335710071,0.08487339589166243
0.3136154,0.07066569849725286,0.14506700171453626,0.047552673843493924,0.05650394066502138,0.09109280113963811,0.10890942032749089,0.009092192365662744,0.08486186779495009
0.3141346,0.07041652172343964,0.14495449383726822,0.04748337378750872,0.056574159769946716,0.09105696322984654,0.10827732745482697,0.00903848595422571,0.08484421035124402
0.3146538,0.07016416653357183,0.14483059388025377,0.04741136687795,0.05664157965502989,0.09101599248019472,0.10763842267819418,0.008984688459343177,0.08482042991519545
0.3151731,0.06990868990842623,0.14469534802963402,0.04733669461729549,0.05670616561586208,0.09096994163767362,0.10699284038158027,0.008930826737719742,0.08479053428194727
0.3156923,0.06965014993133516,0.14454880486078503,0.04725939921462875,0.05676788355230056,0.09091886498245988,0.106340716210781,0.008876928138868893,0.08475453268398049
0.3162115,0.06938860578822091,0.1443910153197928,0.047179523572355005,0.05682669998061113,0.09086281831373033,0.10568218702597454,0.008823020498971655,0.08471243578739107
0.3167308,0.06912411776740975,0.14422203270425057,0.047097111272720205,0.05688258204548628,0.09080185893503026,0.10501739085404374,0.00876913213454607,0.08466425568760524
0.31725,0.06885674725921716,0.1440419126433963,0.04701220656413878,0.05693549753193667,0.09073604563919453,0.10434646684067336,0.008715291835928266,0.08461000590454107
0.3177692,0.06858655675529694,0.14385071307760783,0.046924854347335114,0.056985414877053255,0.09066543869282065,0.10366955520224962,0.00866152886056586,0.08454970137722398
0.3182885,0.06831360984774634,0.14364849423727502,0.046835100161303836,0.057032303181637226,0.09059009982029302,0.1029867971775898,0.00860787292612448,0.08448335845786338
0.3188077,0.06803797122795982,0.1434353186210672,0.04674299016909374,0.05707613222169445,0.09051009218735803,0.1022983349795298,0.00855435420340824,0.08441099490539694
0.3193269,0.06775970668522409,0.14321125097361515,0.04664857114342058,0.0571168724597908,0.09042548038424968,0.10160431174639757,0.008501003309094961,0.0843326298785085
0.3198462,0.06747888310504743,0.14297635826262617,0.04655189045211372,0.05715449505626432,0.09033633040836571,0.1009048714934011,0.00844785129828694,0.08424828392812551
0.3203654,0.06719556846721629,0.14273070965545012,0.0464529960434016,0.057188971880289756,0.09024270964649374,0.10020015906395914,0.008394929656877975,0.08415797898940153
0.3208846,0.06690983184357242,0.14247437649511355,0.046351936431041345,0.05722027552079081,0.09014468685658648,0.0994903200810028,0.008342270293737419,0.08406173837318855
0.3214038,0.06662174339550399,0.1422074322758382,0.04624876067929811,0.05724837929719482,0.09004233214908519,0.09877550089827679,0.008289905532711953,0.08395958675700431
0.3219231,0.06633137437114393,0.14192995261805894,0.04614351838777979,0.057273257270024254,0.08993571696778911,0.09805584855166768,0.008237868104445876,0.08385155017549908
0.3224423,0.06603879710226887,0.14164201524295497,0.046036259676133215,0.05729488425131905,0.08982491407026914,0.09733151071058689,0.008186191138020714,0.08373765601042593
0.3229615,0.06574408500089127,0.14134369994650778,0.04592703516860766,0.05731323581488364,0.08970999750782317,0.09660263562943568,0.008134908152415063,0.08361793298011863
0.3234808,0.06544731255553758,0.14103508857309735,0.045815895978491464,0.05732828830635187,0.08959104260497117,0.09586937209917844,0.008084053047785672,0.08349241112848092
0.324,0.06514855532720443,0.1407162649886481,0.045702893692427325,0.057340018853063356,0.08946812593848798,0.09513186939905023,0.008033660096570878,0.08336112181349138
0.3245192,0.06484788994498461,0.14038731505333477,0.04558808035461184,0.05734840537374372,0.08934132531597296,0.09439027724842326,0.007983763934417697,0.08322409769522832
0.3250385,0.06454539410135468,0.14004832659385744,0.045471508450884796,0.05735342658798159,0.08921071975395597,0.09364474575885685,0.007934399550933996,0.08308137272341932
0.3255577,0.06424114654711557,0.13969938937529391,0.04535323089271361,0.05735506202549444,0.08907638945554032,0.09289542538635386,0.007885602280267336,0.08293298212452085
0.3260769,0.06393522708597828,0.13934059507253682,0.04523330100107833,0.05735329203517523,0.08893841578758267,0.09214246688384639,0.007837407791512173,0.08277896238833363
0.3265962,0.06362771656878684,0.13897203724132107,0.04511177249026245,0.05734809779391157,0.08879688125741197,0.09138602125393266,0.0077898520789471725,0.08261935125416064
0.3271154,0.06331869688737148,0.13859381128884712,0.0449886994515545,0.057339461315168726,0.08865186948908826,0.09062623970188584,0.007742971452104421,0.08245418769651497
0.3276346,0.06300825096802504,0.13820601444400402,0.04486413633686531,0.057327365457327834,0.08850346519920317,0.08986327358895539,0.007696802525672464,0.08228351191038519
0.3281538,0.0626964627645965,0.13780874572719454,0.044738137942265575,0.05731179393177025,0.08835175417222392,0.08909727438598075,0.007651382209235221,0.08210736529606749
0.3286731,0.06238341725119571,0.13740210591976473,0.04461075939144868,0.05729273131069943,0.08819682323538282,0.08832839362733634,0.007606747696848952,0.08192579044357372
0.3291923,0.06206920041450372,0.1369861975330387,0.04448205611912338,0.0572701630346915,0.08803876023311442,0.08755678286522633,0.00756293645645953,0.0817388311166259
0.3297115,0.06175389924568388,0.13656112477695903,0.044352083854341175,0.057244075419965935,0.08787765400104205,0.08678259362434683,0.007519986219162301,0.08154653223624819
0.3302308,0.061437601731888405,0.1361269935283325,0.044220898603762916,0.057214455665368,0.08771359433951621,0.08600597735693231,0.00747793496830677,0.0813489398639681
0.33075,0.061120396847355866,0.13568391129868027,0.04408855663486896,0.05718129185905499,0.08754667198670738,0.08522708539820285,0.007436820928448321,0.08114610118463936
0.3312692,0.06080237454409467,0.13523198720169183,0.04395511445911712,0.05714457298487861,0.08737697859125568,0.08444606892222721,0.007396682554149151,0.08093806448889938
0.3317885,0.06048362574214781,0.13477133192028146,0.043820628815052345,0.05710428892845617,0.08720460668448042,0.08366307889821689,0.00735755851863054,0.08072487915527499
0.3323077,0.06016424231943363,0.13430205767324666,0.04368515665137193,0.0570604304829238,0.08702964965215196,0.08287826604726513,0.007319487702278658,0.08050659563195019
0.3328269,0.05984431710115738,0.1338242781815283,0.043548755109950106,0.05701298935436537,0.08685220170582827,0.08209178079954456,0.007282509181006115,0.08028326541821086
0.3333462,0.05952394384878784,0.13333810863407342,0.04341148150882586,0.056961958166911325,0.08667235785375803,0.08130377325197673,0.007246662214471531,0.08005494104558107
0.3338654,0.05920321724859329,0.13284366565330263,0.043273393325157714,0.05690733046750217,0.08649021387135143,0.08051439312638592,0.007211986234159506,0.079821676058666
0.3343846,0.05888223289973085,0.13234106726018646,0.043134548178149754,0.056849100730312165,0.08630586627121951,0.0797237897281496,0.007178520831323407,0.0795835249957165
0.3349038,0.058561087301883474,0.1318304328389355,0.04299500381195286,0.05678726436082927,0.0861194122727823,0.0789321119053575,0.007146305744793479,0.07934054336892984
0.3354231,0.05823987784243907,0.13131188310131245,0.042854818078545624,0.056721817699588194,0.08593094977144616,0.07813950800849097,0.007115380848652858,0.0790927876445011
0.3359423,0.05791870278320665,0.13078554005057516,0.04271404892059939,0.05665275802555402,0.08574057730735098,0.07734612585063375,0.007085786139784092,0.0788403152224388
0.3364615,0.05759766124666469,0.13025152694506262,0.04257275435433235,0.056580083559154754,0.08554839403368861,0.07655211266822494,0.007057561725288819,0.07858318441615832
0.3369808,0.05727685320173782,0.1297099682614377,0.0424309924523575,0.05650379346496161,0.08535449968459462,0.07575761508236482,0.0070307478097833285,0.07832145443186643
0.3375,0.05695637944909808,0.1291609896576018,0.04228882132652995,0.056423887854016565,0.0851589945426166,0.0749627790606835,0.007005384682572715,0.07805518534774948
0.3380192,0.05663634160598805,0.12860471793529832,0.042146299110799035,0.05634036778580717,0.08496197940576362,0.07416774987978195,0.0069815127047063675,0.07778443809297779
0.3385385,0.05631684209056357,0.12804128100242357,0.042003483944071246,0.056253235269889165,0.08476355555414294,0.07337267208825499,0.006959172295917511,0.07750927442653853
0.3390577,0.0559979841057542,0.12747080783506456,0.04186043395309086,0.056162493267157616,0.08456382471619198,0.0725776894703048,0.00693840392144954,0.07722975691590878
0.3395769,0.055679871622639786,0.12689342843928345,0.041717207235345374,0.05606814569076767,0.08436288903451569,0.07178294500995355,0.006919248078771858,0.07694594891558003
0.3400962,0.0553626093633419,0.12630927381266935,0.04157386184200348,0.05597019740670594,0.08416085103134151,0.07098858085586311,0.00690174528418801,0.07665791454544484
0.3406154,0.05504630278342884,0.1257184759056783,0.04143045576089315,0.0558686542340132,0.08395781357360556,0.07019473828676899,0.006885936059338896,0.07636571866905587
0.3411346,0.05473105805383277,0.1251211675827815,0.04128704689952767,0.0557635229446593,0.08375387983768502,0.06940155767753545,0.006871860917604,0.07606942687176681
0.3416538,0.0544169820422773,0.12451748258344192,0.04114369306818664,0.05565481126307033,0.08354915327379207,0.06860917846583793,0.00685956035040352,0.0757691054387643
0.3421731,0.054104182294213765,0.12390755548293929,0.04100045196305924,0.05554252786530805,0.08334373757004462,0.06781773911947858,0.006849074813404368,0.07546482133299907
0.3426923,0.05379276701326447,0.12329152165306215,0.04085738114945634,0.05542668237790114,0.08313773661622957,0.06702737710433986,0.006840444712633001,0.07515664217302448
0.3432115,0.05348284504117168,0.12266951722268496,0.04071453804509808,0.055307285376327564,0.08293125446727444,0.06623822885298064,0.00683371039049803,0.0748446362107503
0.3437308,0.05317452583725119,0.12204167903824775,0.040571979903483074,0.05518434838314727,0.08272439530644367,0.06545042973387877,0.006828912111725707,0.07452887230911957
0.34425,0.05286791945735062,0.12140814462415427,0.04042976379734546,0.055057883865784286,0.08251726340827668,0.06466411402132337,0.006826090049211462,0.07420941991971654
0.3447692,0.05256313653231302,0.1207690521431041,0.0402879466022057,0.05492790523395718,0.08230996310128509,0.06387941486595984,0.006825284269790819,0.07388634906031352
0.3452885,0.052260288245947334,0.12012454035637303,0.04014658498002093,0.054794426836756886,0.08210259873042829,0.06309646426598993,0.006826534719933125,0.07355973029236504
0.3458077,0.05195948631250819,0.11947474858405516,0.04000573536294056,0.054657463959371266,0.08189527461938777,0.06231539303902891,0.006829881211361626,0.07322963469845697
0.3463269,0.05166084295368838,0.1188198166652797,0.03986545393717254,0.05451703281945542,0.08168809503266215,0.061536330794621355,0.006835363406603492,0.07289613385971948
0.3468462,0.051364470875128014,0.1181598849184148,0.03972579662696564,0.054373150563147184,0.08148116413750556,0.060759405907416776,0.006843020804473486,0.07255929983321138
0.3473654,0.051070483242445334,0.11749509410127008,0.03958681907871275,0.05422583526072709,0.0812745859657326,0.05998474549100599,0.006852892725495024,0.07221920512928415
0.3478846,0.05077899365679412,0.11682558537130969,0.03944857664518023,0.05407510590192195,0.0810684643754133,0.05921247537241879,0.006865018297262427,0.07187592268893285
0.3484038,0.05049011612995371,0.11615150024588686,0.03931112436986791,0.05392098239085114,0.08086290301248139,0.058442720067283155,0.0068794364397482335,0.07152952586114186
0.3489231,0.050203965058957294,0.11547298056251187,0.03917451697150426,0.05376348554061494,0.08065800527227966,0.05767560275564622,0.006896185850559538,0.0711800883802325
0.3494423,0.04992065520026426,0.11479016843916474,0.03903880882868102,0.05360263706752407,0.08045387426106644,0.05691124525845694,0.006915304990147459,0.07082768434322004
0.3499615,0.04964030164348246,0.1141032062346646,0.038904053964631466,0.05343845958497001,0.08025061275750718,0.056149768014710215,0.0069368320669739286,0.07047238818718712
0.3504808,0.04936301978464575,0.11341223650910819,0.038770306032156115,0.05327097659693625,0.08004832317417528,0.05539129005925157,0.006960805022640105,0.0701142746666804
0.351,0.04908892529905221,0.11271740198439048,0.038637618298699807,0.05310021249115084,0.07984710751908598,0.054635929001241555,0.006987261516980842,0.06975341883113685
0.3515192,0.04881813411366843,0.11201884550482151,0.03850604363158374,0.05292619253188153,0.07964706735728726,0.053883801003278095,0.007016238913129665,0.06938989600234628
0.3520385,0.048550762379105175,0.11131670999785391,0.03837563448339617,0.05274894285237516,0.07944830377253088,0.053135020761174975,0.007047774262558751,0.06902378175195603
0.3525577,0.04828692644117031,0.11061113843493726,0.03824644287754522,0.05256849044694394,0.07925091732904682,0.05238970148439428,0.007081904290098462,0.06865515187902367
0.3530769,0.04802674281200541,0.10990227379251545,0.03811852039397736,0.05238486316270159,0.07905500803344373,0.051647954877130094,0.007118665378940973,0.06828408238762328
0.3535962,0.047770328140813105,0.10919025901318481,0.03799191815506484,0.05219808969095323,0.07886067529675807,0.05090989112004077,0.007158093555632606,0.06791064946451031
0.3541154,0.047517799184183064,0.10847523696703153,0.0378666868116655,0.052008199558243304,0.07866801789667383,0.05017561885262647,0.007200224475059435,0.0675349294568501
0.3546346,0.04726927277602524,0.10775735041316693,0.03774287652935791,0.05181522311706672,0.07847713393993476,0.049445245156248506,0.007245093405430764,0.06715699885001487
0.3551538,0.047024865797119744,0.10703674196147972,0.03762053697485499,0.051619191536248665,0.0782881208249705,0.04871887553778679,0.007292735213265041,0.06677693424545368
0.3556731,0.046784695144293426,0.10631355403462446,0.03749971730259911,0.051420136790999466,0.07810107520475748,0.047996613913931306,0.0073431843483827254,0.06639481233863977
0.3561923,0.0465488776992336,0.10558792883026558,0.0373804661415417,0.05121809165265102,0.07791609294993543,0.04727856259610373,0.007396474828910567,0.06601070989709895
0.3567115,0.04631753029694984,0.1048600082835958,0.03726283158211037,0.05101308967808199,0.0777332691121991,0.04656482227600478,0.007452640226301734,0.06562470373852286
0.3572308,0.04609076969389539,0.10412993403014781,0.037146861163366136,0.05080516519883919,0.07755269788798497,0.04585549201178287,0.007511713650376191,0.06523687070897023
0.35775,0.04586871253575938,0.10339784736891722,0.03703260186035342,0.05059435330996284,0.07737447258247143,0.045150669214819555,0.007573727734385659,0.0648472876611592
