Time,Rectus Femoris right,Rectus Femoris left,Hamstrings right,Hamstrings left,TibilaisÂ Anterior right,TibilaisÂ Anterior left,Gastrocnemius right,Gastrocnemius left
0.0,-0.0017967459256898266,0.02391535048691549,-0.013514822798428767,0.0021054478123149556,-0.04268347711119774,0.020117080992218386,-0.002481538875162593,0.015305864094983718
0.0004655,-0.001642048698352027,0.02540984467113369,-0.013139421407298013,0.0024179927790966573,-0.04035963884058173,0.02045528608757646,-0.0024912857924664755,0.015813067234395718
0.000931,-0.0014879697611835038,0.026904360547903787,-0.012757942656012447,0.0027298843157636836,-0.038044113607735734,0.02079480076033838,-0.0025006399505342063,0.01632379583022046
0.0013966,-0.0013345322532628107,0.02839868178698002,-0.01237034352813418,0.003041072952151186,-0.03573725938375748,0.021135581420728366,-0.002509577737473534,0.016838032746809863
0.0018621,-0.0011817591533695613,0.029892591586720134,-0.011976581361343712,0.0033515093145015233,-0.03343943221086611,0.021477584021997505,-0.0025180751511952584,0.017355760496653435
0.0023276,-0.001029673272025736,0.03138587273555274,-0.011576613858852558,0.0036611441420934974,-0.031150986081399566,0.021820764070995438,-0.002526107799938387,0.017876961243396532
0.0027931,-0.0008782972435998213,0.03287830767359939,-0.011170399100940129,0.003969928303839037,-0.028872272817632435,0.022165076638920905,-0.0025336509029423807,0.018401616804784263
0.0032586,-0.0007276535184787683,0.03436967855440847,-0.010757895556616066,0.0042778128148334435,-0.026603641952501682,0.022510476372244077,-0.0025406792912697285,0.0189297086555227
0.0037241,-0.0005777643553127174,0.03585976730676146,-0.010339062095409012,0.0045847488528461934,-0.02434544061132649,0.022856917503793574,-0.0025471674087819605,0.01946121793004964
0.0041897,-0.0004286518133374076,0.037348355696515415,-0.009913857999282596,0.004890687774739924,-0.02209801339460674,0.023204353864000868,-0.002553089313272072,0.019996125425207626
0.0046552,-0.0002803377447791557,0.03883522538844861,-0.009482242974679186,0.005195581132805809,-0.019861702261983145,0.02355273889229475,-0.0025584186777561444,0.020534411602812074
0.0051207,-0.00013284378734726868,0.04032015800807817,-0.009044177164691622,0.005499380691004187,-0.017636846417440434,0.023902025648638546,-0.002563128791926744,0.02107605659210764
0.0055862,1.3808643181301103e-05,0.04180293520342054,-0.008599621161362703,0.005802038441100148,-0.01542378219583255,0.02425216682520291,-0.002567192563770459,0.021621040192105954
0.0060517,0.00015959836028033464,0.04328333870666585,-0.008148536018111795,0.0061035066186848575,-0.013222842950805652,0.024603114758167326,-0.0025705825213516954,0.022169341873797946
0.0065172,0.00030450441389117127,0.044761150395738095,-0.007690883262287381,0.006403737719074358,-0.011034358944190114,0.024954821439643907,-0.002573270814764614,0.0227209407822339
0.0069828,0.00044850609753357734,0.04623615235571264,-0.007226624907843854,0.006702684513078442,-0.008858657236927279,0.02530723852971749,-0.0025752292182549003,0.023275815738464406
0.0074483,0.0005915829553064678,0.047708126940063045,-0.006755723468140371,0.007000300062632741,-0.006696061581590992,0.025660317368596405,-0.002576429132512857,0.023833945241335367
0.0079138,0.0007337147887745097,0.049176856831709304,-0.006278141968859125,0.00729653773628748,-0.004546892316558756,0.026014008988868464,-0.0025768415871391813,0.02439530746913019
0.0083793,0.0008748816637368556,0.05064212510384018,-0.0057938439610399845,0.0075913512245465884,-0.0024114662618829707,0.026368264127856797,-0.0025764372432846784,0.02495988028105239
0.0088448,0.001015063916874461,0.05210371528048236,-0.005302793534228089,0.007884694555050913,-0.00029009661690943087,0.026723033240070124,-0.0025751863964650814,0.025527641218541945
0.0093103,0.0011542421622726497,0.053561411396789264,-0.004804955329730695,0.008176522107599423,0.0018169071403123177,0.02707826650974214,-0.0025730589795520853,0.02609856750641905
0.0097759,0.001292397297815814,0.05501499805902261,-0.004300294553979358,0.008466788629002239,0.0039092393517842555,0.027433913863454777,-0.002570024565941638,0.026672636053849272
0.0102414,0.0014295105114513632,0.056464260504199455,-0.0037887769919933557,0.008755449247759365,0.005986598276439951,0.027789924982840525,-0.002566052372900462,0.02724982345512464
0.0107069,0.0015655632873202918,0.05790898465937717,-0.0032703690209401294,0.009042459488559055,0.008048686185109923,0.028146249317359182,-0.002561111265091717,0.0278301059902554
0.0111724,0.0017005374117519854,0.059348957200548745,-0.002745037623788417,0.009327775286589715,0.01009520945353406,0.02850283609714466,-0.00255516975828063,0.028413459625367697
0.0116379,0.001834414979121129,0.06078396561112048,-0.0022127504030496547,0.009611353001659365,0.012125878653384376,0.028859634345917727,-0.0025481960232208493,0.02899986001290262
0.0121034,0.0019671783975648053,0.062213798239944135,-0.001673475594603118,0.00989314943211671,0.014140408641263381,0.0292165928939608,-0.0025401578897221817,0.0295892824916125
0.012569,0.002098810394558071,0.06363824435887587,-0.0011271820816001182,0.010173121828568018,0.016138518645645698,0.0295736603911512,-0.002531022850900306,0.030181702086350556
0.0130345,0.002229294022346469,0.06505709421983484,-0.0005738394084424638,0.01045122790738411,0.018119932351732832,0.029930785320049395,-0.002520758067608959,0.0307770935076501
0.0135,0.0023586126632340718,0.06647013911133433,-1.3417794830257532e-05,0.010727425863991995,0.020084377984192856,0.030287916009038855,-0.0025093303730550475,0.03137543115108952
0.0139655,0.0024867500347257533,0.06787717141445926,0.0005541118501260214,0.01100167438594576,0.02203158838775786,0.030645000645514214,-0.002496706277597083,0.03197668909643939
0.014431,0.0026136901945224547,0.06927798465826417,0.001128777913734336,0.01127393266577145,0.023961301105652907,0.031001987289114522,-0.0024828519737272988,0.032580841106588126
0.0148966,0.002739417545368275,0.0706723735745663,0.0017106080654961408,0.011544160413580884,0.025873258455830862,0.03135882388499825,-0.002467733341237766,0.033187860626242724
0.0153621,0.0028639168397482945,0.07206013415210925,0.0022996292428331413,0.011812317869449421,0.027767207604987947,0.031715458277156786,-0.002451315952570776,0.033797720780401164
0.0158276,0.0029871731844361405,0.07344106369007306,0.002895867636771419,0.01207836581555296,0.029642900640335867,0.03207183822176289,-0.002433565078353718,0.03441039437259329
0.0162931,0.0031091720448904376,0.07481496085090696,0.0034993486775887605,0.012342265588059571,0.03150009463910729,0.03242791140055051,-0.0024144456931186062,0.03502585388288694
0.0167586,0.0032298992494994468,0.07618162571246244,0.004110097020431214,0.012603979088771339,0.03333855173577264,0.03278362543422225,-0.0023939224812063314,0.03564407146565648
0.0172241,0.003349340993673364,0.07754085981940469,0.004728136530905112,0.012863468796512114,0.03515803918694751,0.033138927895880674,-0.0023719598428555855,0.03626501894711168
0.0176897,0.0034674838437839697,0.07889246623388219,0.00535349027065102,0.01312069777825683,0.036958329433970864,0.03349376632447928,-0.0023485219004762492,0.036888667822585625
0.0181552,0.0035843147409515158,0.0802362495854348,0.005986180482906273,0.013375629699998108,0.038739200163135125,0.03384808823828904,-0.002323572505106847,0.037514989253580995
0.0186207,0.003699821004678968,0.08157201612012192,0.0066262285780629825,0.013628228837345876,0.04050043436354993,0.034201841148375954,-0.0022970752430555206,0.03814395406457459
0.0190862,0.003813990336333875,0.08289957374885354,0.007273655119228529,0.013878460085855922,0.04224182038262269,0.034554972572085146,-0.0022689934427238515,0.03877553273958018
0.0195517,0.003926810822478285,0.08421873209490802,0.00792847980779569,0.014126288971083523,0.04396315197914098,0.034907430046526904,-0.002239290181612779,0.039409695418470087
0.0200172,0.004038270938047213,0.08552930254062253,0.008590721469029592,0.014371681658358578,0.04566422837394455,0.03525916114205998,-0.002207928293509793,0.04004641189305585
0.0204828,0.0041483595493762,0.0868310982732422,0.009260398037678674,0.014614604962279083,0.04734485429817851,0.03561011347576781,-0.002174870375856509,0.040685651602928634
0.0209483,0.004257065917078552,0.08812393432991428,0.009937526543616829,0.014855026355920134,0.04900484003912287,0.035960234724923434,-0.0021400787972956576,0.04132738363105963
0.0214138,0.004364379698772822,0.08940762764181413,0.01062212309752386,0.015092913979756043,0.05064400148359774,0.036309472640438906,-0.0021035157053963874,0.04197157669916074
0.0218793,0.004470290951661115,0.09068199707738883,0.011314202876611335,0.015328236650293519,0.05226216015894689,0.036657775060295335,-0.002065143034556654,0.04261819916280564
0.0223448,0.004574790134958785,0.09194686348470395,0.012013780110400907,0.015560963868414228,0.053859143271605237,0.03700508992294917,-0.002024922514081277,0.04326721900631133
0.0228103,0.004677868112176077,0.09320204973287871,0.012720868066562072,0.015791065827425406,0.055434783743257825,0.037351365280710494,-0.001982815676434069,0.04391860383738009
0.0232759,0.004779516153252275,0.0944473807525939,0.013435479036816293,0.016018513420817372,0.05698892024459933,0.03769654931308886,-0.0019387838656622866,0.04457232088150193
0.0237414,0.004879725936542896,0.09568268357565726,0.01415762432291439,0.016243278249727072,0.05852139722670345,0.03804059034010226,-0.001892788245991483,0.04522833697611783
0.0242069,0.004978489550660489,0.09690778737361093,0.01488731422269398,0.016465332630106817,0.060032064950012086,0.038383436835544404,-0.0018447898105887776,0.04588661856454472
0.0246724,0.005075799496169568,0.09812252349536617,0.015624558016223767,0.01668464959959747,0.06152077951095419,0.03872503744020595,-0.0017947493904924639,0.04654713168966391
0.0251379,0.005171648687136224,0.0993267255038524,0.01636936395204137,0.01690120292410537,0.0629874028662044,0.03906534097504486,-0.0017426276637058388,0.04720984198737581
0.0256034,0.005266030452533011,0.10052022921166931,0.0171217392334914,0.01711496710408219,0.0644318028545922,0.039404296454301393,-0.0016883851644531032,0.047874714679824106
0.026069,0.005358938537499697,0.10170287271573449,0.017881690005170314,0.017325917380507122,0.06585385321667395,0.039741853098553034,-0.0016319822925951284,0.04854171456839365
0.0265345,0.005450367104460548,0.10287449643092132,0.018649221339484587,0.017534029740570597,0.06725343361198174,0.0400779603477044,-0.0015733793232028438,0.049210806026486545
0.027,0.005540310734098789,0.10403494312268519,0.019424337223328612,0.01773928092305893,0.06863042963396558,0.040412567873907214,-0.0015125364162859247,0.049881952992081674
0.0274655,0.0056287644261889145,0.10518405793867756,0.020207040544888713,0.01794164842343929,0.06998473282264771,0.0407456255944051,-0.0014494136266743824,0.050555118960083474
0.027931,0.005715723600287504,0.10632168843934874,0.02099733308057963,0.018141110498644395,0.07131624067501062,0.04107708368429817,-0.0013839709140505716,0.05123026697446608
0.0283966,0.005801184096283208,0.10744768462753972,0.021795215482119865,0.018337646171556293,0.07262485665314135,0.04140689258922243,-0.0013161681531290276,0.05190735962021975
0.0288621,0.0058851421748065385,0.10856189897706366,0.02260068726375225,0.01853123523518855,0.07391049019015601,0.04173500303793947,-0.0012459651439814476,0.052586359015106734
0.0293276,0.00596759451750014,0.10966418646027724,0.023413746789616215,0.01872185825656601,0.07517305669392887,0.04206136605483174,-0.0011733216225040181,0.05326722680123498
0.0297931,0.006048538227150205,0.1107544045746413,0.024234391261278233,0.018909496580301256,0.07641247754864999,0.04238593297229892,-0.0010981972710241994,0.053949924136459035
0.0302586,0.006127970827679692,0.11183241336826963,0.025062616705426928,0.01909413233186674,0.07762868011423538,0.04270865544305075,-0.0010205517290439578,0.054634411685618466
0.0307241,0.006205890264004014,0.11289807546446527,0.02589841796173934,0.019275748420561394,0.07882159772361393,0.04302948545229147,-0.0009403446041163516,0.055320649611625125
0.0311897,0.006282294901749832,0.11395125608524302,0.026741788670924766,0.01945432854217063,0.07999116967791571,0.04334837532979121,-0.000857535482852277,0.05600859756641112
0.0316552,0.006357183526837631,0.11499182307383944,0.027592721262952476,0.01962985718131858,0.08113734123958695,0.043665277761839115,-0.0007720839420541212,0.05669821468174991
0.0321207,0.006430555344928772,0.1160196469162128,0.02845120694546957,0.019802319613511584,0.0822600636234577,0.04398014580307333,-0.0006839495599730168,0.057389459559963336
0.0325862,0.006502409980737783,0.11703460076153765,0.029317235692415,0.019971701906872134,0.08335929398578859,0.044292932888182764,-0.0005930919276863536,0.05808229026452769
0.0330517,0.0065727474772107036,0.11803656044170152,0.030190796232835725,0.020137990923562766,0.0844349954113231,0.04460359284347544,-0.0004994706605921761,0.05877666431059323
0.0335172,0.006641568294570411,0.11902540448981205,0.031071876039910934,0.02030117432089975,0.08548713689837233,0.04491207989830826,-0.00040304541001706526,0.05947253865543226
0.0339828,0.006708873309229925,0.12000101415772405,0.03196046132019005,0.020461240552156788,0.08651569334195947,0.0452183486963731,-0.00030377587493406953,0.060169869688832436
0.0344483,0.0067746638125747985,0.12096327343259618,0.032856537003050114,0.020618178867059442,0.08752064551505179,0.0455223543068343,-0.00020162181378722115,0.060868613223452786
0.0349138,0.006838941509615779,0.12191206905248772,0.03376008673037798,0.02077197931197137,0.08850198004790821,0.04582405223531267,-9.654305641913676e-05,0.06156872448516146
0.0353793,0.006901708517513073,0.12284729052100504,0.034671092846482704,0.020922632729773943,0.08945968940557045,0.046123398434711395,1.1500483901832138e-05,0.06227015810337456
0.0358448,0.006962967363973626,0.12376883012100823,0.03558953638824331,0.02107013075944122,0.09039377186352512,0.046420349315880134,0.00012254879835847817,0.06297286810141589
0.0363103,0.007022720985522923,0.12467658292738769,0.03651539707549737,0.02121446583531261,0.09130423148156441,0.0467148617581132,0.00023664177036928263,0.06367680788691756
0.0367759,0.007080972725652868,0.12557044681892074,0.037448653301675766,0.021355631186065944,0.09219107807587112,0.04700689311947844,0.0003538191632843367,0.06438193024228103
0.0372414,0.007137726332847337,0.12645032248921875,0.0383892821246895,0.021493620833393987,0.09305432718935464,0.04729640124697325,0.0004741206079964286,0.06508818731521844
0.0377069,0.007192985958486977,0.12731611345677535,0.03933725925807438,0.021628429590387646,0.09389400006026291,0.04758334448650467,0.0005975855904711555,0.06579553060939373
0.0381724,0.007246756154634822,0.12816772607412644,0.04029255906240005,0.021760053059629383,0.09471012358909622,0.04786768169269098,0.0007242534391999656,0.06650391097518356
0.0386379,0.0072990418717043554,0.12900506953613303,0.04125515453694971,0.02188848763100035,0.09550273030384739,0.04814937223848285,0.0008541633125800757,0.06721327860057699
0.0391034,0.007349848456011719,0.1298280558873977,0.04222501731167759,0.022013730479204824,0.0962718583235938,0.048428376024602746,0.0009873541862252314,0.06792358300223338
0.039569,0.007399181647213902,0.13063660002882585,0.04320211763945088,0.022135779561015315,0.09701755132046606,0.04870465348880194,0.0011238648402113075,0.06863477301671692
0.0400345,0.00744704757563492,0.13143061972334155,0.04418642438858321,0.022254633612241972,0.09773985848001784,0.04897816561493398,0.0012637338462607563,0.06934679679192614
0.0405,0.007493452759482179,0.13221003560076938,0.04517790503566681,0.02237029214442976,0.09843883446002186,0.0492488739418441,0.0014069995548699327,0.07005960177873576
0.0409655,0.007538404101955424,0.13297477116189216,0.04617652565871019,0.02248275544128715,0.09911453934771561,0.04951674057207334,0.0015537000823833275,0.070773134722868
0.041431,0.007581908888250833,0.13372475278169668,0.04718225093058806,0.02259202455485005,0.0997670386155212,0.04978172818037637,0.0017038732980187807,0.0714873416570099
0.0418966,0.0076239747824629524,0.13445990971182045,0.04819504411280998,0.022698101301385002,0.10039640307526308,0.05004380002205162,0.0018575568108477843,0.07220216789319245
0.0423621,0.007664609824387311,0.1351801740822141,0.04921486704961387,0.022800988257035647,0.10100270883090665,0.050302919941082415,0.0020147879567350446,0.07291755801544735
0.0428276,0.00770382242622661,0.13588548090203625,0.05024168016239018,0.02290068875321665,0.1015860372298411,0.050559052378087686,0.0021756037852415414,0.07363345587275615
0.0432931,0.007741621369203461,0.1365757680597979,0.05127544244444197,0.022997206871759317,0.1021464748127287,0.05081216237808087,0.002340041046495374,0.07434980457230633
0.0437586,0.00777801580008266,0.1372509763227741,0.05231611145608581,0.023090547439813057,0.10268411326194281,0.051062215598035504,0.002508136178034739,0.0750665464730681
0.0442241,0.007813015227605987,0.13791104933570084,0.05336364332009834,0.023180716024506855,0.10319904934861629,0.051309178314255834,0.002679925291627422,0.07578362317970523
0.0446897,0.007846629518842463,0.13855593361877488,0.054417992717512326,0.02326771892737483,0.10369138487832248,0.051553017429550846,0.0028554441600712323,0.07650097553683315
0.0451552,0.00787886889545697,0.13918557856497452,0.05547911288376619,0.02335156317855014,0.10416122663540993,0.05179370048020979,0.003034728203979846,0.07721854362363623
0.0456207,0.007909743929900109,0.13979993643671748,0.056546955605210454,0.023432256530731572,0.10460868632601199,0.05203119564277731,0.003217812478558537,0.07793626674885659
0.0460862,0.007939265541522054,0.140398962361873,0.0576214712159742,0.023509807452927318,0.10503388051975152,0.052265471740626165,0.0034047316603742946,0.07865408344616584
0.0465517,0.007967444992613154,0.14098261432914325,0.058702608595194446,0.023584225123980628,0.10543693059016054,0.052496498250325055,0.0035955200341248397,0.07937193146993089
0.0470172,0.007994293884373942,0.14155085318282964,0.05979031516461131,0.023655519425882305,0.10581796265383381,0.052724245307798866,0.0037902114794110477,0.0800897477913846
0.0474828,0.008019824152817137,0.14210364261699873,0.060884536886531525,0.023723700936875144,0.10617710750833508,0.05294868371427835,0.003988839457517303,0.08080746859521128
0.0479483,0.008044048064604218,0.14264094916906367,0.061985218262163085,0.023788780924355733,0.10651450056887511,0.05316978494203559,0.004191436998204298,0.08152502927655711
0.0484138,0.008066978212818982,0.14316274221279723,0.06309230233032356,0.023850771337579096,0.10683028180378186,0.053387521139901806,0.004398036686518774,0.08224236443847426
0.0488793,0.008088627512680586,0.14366899395079333,0.06420573066652492,0.023909684800171884,0.10712459566878428,0.05360186513856386,0.004608670649624704,0.08295940788980743
0.0493448,0.008109009197198445,0.14415967940639463,0.06532544338243729,0.02396553460245983,0.10739759104013402,0.05381279045563622,0.004823370543660389,0.08367609264353057
0.0498103,0.008128136812771424,0.14463477641510308,0.06645137912573426,0.02401833469361522,0.1076494211465902,0.05402027130050496,0.005042167540625987,0.08439235091554083
0.0502759,0.008146024214733745,0.14509426561549024,0.06758347508032204,0.02406809967363005,0.10788024350029371,0.05422428257894116,0.005265092315306085,0.0851081141239164
0.0507414,0.008162685562850045,0.14553813043962252,0.0687216669669545,0.024114844785120288,0.10809021982655856,0.0544247998974811,0.005492175032232036,0.08582331288864392
0.0512069,0.008178135316762104,0.14596635710301675,0.06986588904423616,0.02415858590496666,0.1082795159926071,0.05462179956757108,0.005723445332689007,0.08653787703182043
0.0516724,0.008192388231389744,0.14637893459413923,0.07101607411001465,0.02419933953579718,0.10844830193527685,0.054815258609474844,0.005958932321772881,0.0872517355783347
0.0521379,0.00820545935228844,0.14677585466346132,0.07217215350316385,0.024237122797316466,0.10859675158772653,0.055005154755941636,0.0061986645555023616,0.0879648167570315
0.0526034,0.008217364010966111,0.14715711181208363,0.07333405710575863,0.024271953417486843,0.10872504280517072,0.055191466455633026,0.00644267002799187,0.08867704800236316
0.053069,0.008228117820161671,0.14752270327993927,0.0745017133456417,0.02430384972356625,0.10883335728967343,0.055374172876306776,0.006690976158690892,0.08938835595653162
0.0535345,0.008237736669087722,0.14787262903358597,0.07567504919938264,0.024332830633007757,0.10892188051403287,0.05555325390775614,0.006943609779695557,0.09009866647212499
0.054,0.008246236718639872,0.14820689175359553,0.07685399019562886,0.024358915644225605,0.10899080164479154,0.05572869016450368,0.007200597123138245,0.09080790461525229
0.0544655,0.008253634396575003,0.14852549682154836,0.07803846041884772,0.02438212482723282,0.10904031346440776,0.0559004629882493,0.007461963808661094,0.09151599466918
0.054931,0.008259946392660832,0.14882845230663969,0.0792283825134584,0.024402478814155294,0.10907061229262661,0.05606855445007336,0.007727734830979308,0.09222286013847433
0.0553966,0.008265189653799033,0.14911576895190312,0.08042367768835165,0.024419998789627403,0.10908189790708935,0.05623294735239671,0.00799793454754027,0.09292842375365305
0.0558621,0.008269381379124198,0.14938746016005758,0.08162426572179503,0.024434706481073938,0.10907437346322164,0.05639362523070031,0.008272586666284588,0.09363260747635196
0.0563276,0.00827253901508084,0.1496435419789823,0.08283006496672034,0.024446624148883316,0.10904824541344123,0.056550572355007996,0.00855171423351528,0.09433533250500985
0.0567931,0.008274680250480669,0.1498840330868244,0.08404099235638986,0.024455774576476727,0.10900372342572516,0.05670377373113634,0.008835339621881402,0.09503651928107677
0.0572586,0.008275823011542303,0.1501089547767433,0.08525696341043665,0.02446218106027788,0.1089410203015768,0.05685321510171627,0.009123484518482494,0.09573608749575026
0.0577241,0.008275985456915548,0.15031833094129451,0.08647789224127414,0.02446586739958786,0.10886035189343209,0.05699888294699166,0.009416169913100306,0.09643395609724403
0.0581897,0.008275185972692325,0.1505121880564556,0.08770369156086959,0.02446685788636953,0.10876193702154427,0.05714076448540029,0.00971341608656428,0.09713004329859388
0.0586552,0.008273443167406282,0.15069055516529595,0.08893427268787539,0.024465177294945836,0.10864599739038633,0.05727884767394269,0.010015242599257313,0.09782426658600522
0.0591207,0.008270775867023059,0.15085346386129214,0.0901695455551119,0.024460850871616195,0.10851275750461001,0.05741312120834435,0.01032166827976835,0.09851654272774606
0.0595862,0.008267203109923116,0.15100094827129137,0.0914094187173949,0.024453904324195037,0.10836244458460034,0.05754357452301682,0.01063271121369836,0.09920678778358892
0.0600517,0.008262744141879,0.1511330450381247,0.09265379935970108,0.024444363811476445,0.10819528848166463,0.05767019779082262,0.010948388732626154,0.09989491711480501
0.0605172,0.00825741841102881,0.1512497933028743,0.09390259330566438,0.02443225593262858,0.10801152159289462,0.057792981922649415,0.011268717403240477,0.10058084539471318
0.0609828,0.008251245562847597,0.15135123468679873,0.09515570502639563,0.0244176077165216,0.10781137877574115,0.05791191856679785,0.011593713016644741,0.10126448661978565
0.0614483,0.008244245435118347,0.15143741327292073,0.09641303764961852,0.024400446610992787,0.10759509726233944,0.05802700010818793,0.011923390577840691,0.10194575412131217
0.0619138,0.008236438052904117,0.15150837558728222,0.09767449296911417,0.02438080047205252,0.10736291657362362,0.05813821966738819,0.012257764295397268,0.10262456057762338
0.0623793,0.00822784362352289,0.15156417057987093,0.09893997145446756,0.024358697553035123,0.10711507843326833,0.05824557109947171,0.012596847571310918,0.10330081802687394
0.0628448,0.008218482531526553,0.15160484960522416,0.10020937226110903,0.024334166493698815,0.10685182668149498,0.05834904899270271,0.012940652991063575,0.10397443788038423
0.0633103,0.008208375333685455,0.1516304664027157,0.10148259324064546,0.024307236309279317,0.10657340718877935,0.05844864866705708,0.013289192313884557,0.10464533093653972
0.0637759,0.008197542753979832,0.15164107707653235,0.1027595309514763,0.02427793637950205,0.10628006776949657,0.058544366172580145,0.013642476463222612,0.10531340739524515
0.0642414,0.008186005678599407,0.15163674007534778,0.10404008066969049,0.024246296437558077,0.10597205809553911,0.05863619828758488,0.014000515517434375,0.10597857687293065
0.0647069,0.008173785150952385,0.15161751617170185,0.10532413640024088,0.024212346559049174,0.10564962960994234,0.05872414251669376,0.014363318700695495,0.10664074841810539
0.0651724,0.00816090236668505,0.15158346844109336,0.10661159088839303,0.02417611715090763,0.10531303544055179,0.05880819708872719,0.014730894374140609,0.10729983052745407
0.0656379,0.008147378668713158,0.1515346622407948,0.10790233563144512,0.024137638940296243,0.1049625303137651,0.05888836095444148,0.015103250027238344,0.1079557311624703
0.0661034,0.008133235542266335,0.15147116518839798,0.10919626089071523,0.024096942963494166,0.10459837046838144,0.058964633784118974,0.015480392269407409,0.10860835776662073
0.066569,0.008118494609946651,0.15139304714009874,0.11049325570379301,0.024054060554774093,0.10422081356958991,0.05903701596501344,0.01586232682187973,0.10925761728303288
0.0670345,0.008103177626802599,0.1513003801687291,0.11179320789705256,0.024009023335276394,0.10383011862312769,0.05910550859865373,0.016249058509816502,0.1099034161726998
0.0675,0.008087306475419621,0.15119323854154565,0.11309600409842437,0.023961863201885748,0.10342654588963819,0.05917011349800909,0.016640591254682882,0.11054566043319417
0.0679655,0.008070903161028287,0.1510716986977823,0.11440152975042463,0.02391261231611572,0.10301035679925834,0.05923083318451944,0.01703692806688693,0.11118425561788371
0.068431,0.008053989806631209,0.15093583922597525,0.1157096691234402,0.023861303093006665,0.10258181386646352,0.05928767088499415,0.01743807103868828,0.11181910685564006
0.0688966,0.00803658864814964,0.15078574084106694,0.11702030532926744,0.023807968190042147,0.10214118060519753,0.0593406305283825,0.017844021337381954,0.11245011887103255
0.0693621,0.00801872202959073,0.1506214863612953,0.11833332033490226,0.023752640496088977,0.10168872144431411,0.05938971674241926,0.018254779198762457,0.11307719600499823
0.0698276,0.008000412398236251,0.15044316068487384,0.11964859497657883,0.0236953531203657,0.10122470164335619,0.05943493485014819,0.018670343920873356,0.11370024223597888
0.0702931,0.00798168229985362,0.1502508507664671,0.12096600897405298,0.023636139381444342,0.10074938720869782,0.059476290866326616,0.019090713858047288,0.11431916120151571
0.0707586,0.007962554373929932,0.15004464559346606,0.12228544094512747,0.023575032796289887,0.10026304481007274,0.05951379149371331,0.019515886415241275,0.11493385622029252
0.0712241,0.007943051348929695,0.14982463616206804,0.12360676842041521,0.023512067069341943,0.09976594169751322,0.05954744411924191,0.019945858042672144,0.11554423031461755
0.0716897,0.007923196037576838,0.14959091545316608,0.12492986785833757,0.023447276081642817,0.09925834561872166,0.05957725681008216,0.020380624230756816,0.11615018623333534
0.0721552,0.007903011332161577,0.14934357840805315,0.1262546146603548,0.02338069388001622,0.09874052473689647,0.059603238309591064,0.02082017950536211,0.11675162647515998
0.0726207,0.007882520199872647,0.14908272190394645,0.12758088318642527,0.023312354666300578,0.09821274754903382,0.05962539803315628,0.021264517423368743,0.11734845331242093
0.0730862,0.007861745678155391,0.14880844472933694,0.12890854677068944,0.023242292786640757,0.09767528280472462,0.05964374606393415,0.02171363056855403,0.1179405688152125
0.0735517,0.007840710870096215,0.14852084755916917,0.13023747773737424,0.023170542720841975,0.09712839942546683,0.05965829314848434,0.02216751054779787,0.11852787487593759
0.0740172,0.007819438939833868,0.14822003292985586,0.13156754741691218,0.023097139071789334,0.09657236642451107,0.05966905069230315,0.02262614798761625,0.11911027323423515
0.0744828,0.007797953107998081,0.14790610521413064,0.13289862616226952,0.02302211655493637,0.09600745282725763,0.059676030755257146,0.02308953253102663,0.11968766550228026
0.0749483,0.007776276647176005,0.14757917059574088,0.134230583365477,0.022945509987865827,0.09543392759222176,0.05967924604691842,0.023557652834749265,0.12025995319044505
0.0754138,0.007754432877406962,0.14723933704398265,0.13556328747435537,0.022867354279925613,0.09485205953258358,0.059678709921802325,0.0240304965667484,0.12082703773330794
0.0758793,0.0077324451617059335,0.14688671428807779,0.13689660600942866,0.022787684421942858,0.09426211723833831,0.05967443637450859,0.02450805040411717,0.12138882051599925
0.0763448,0.0077103369016162295,0.1465214137913933,0.13823040558101693,0.022706535476018853,0.09366436899906246,0.059666440034766434,0.024990300031309795,0.1219452029008709
0.0768103,0.007688131532791739,0.14614354872550134,0.13956455190650105,0.022623942565407437,0.09305908272731118,0.05965473616238414,0.02547723013872453,0.12249608625447826
0.0772759,0.007665852520609154,0.14575323394407733,0.14089890982775238,0.02253994086447941,0.09244652588266268,0.059639340642103834,0.025968824421640696,0.12304137197486174
0.0777414,0.007643523355810529,0.1453505859566328,0.14223334332872037,0.022454565588775326,0.09182696539642504,0.059620269978362214,0.026465065579513038,0.123580961519116
0.0782069,0.007621167550176465,0.14493572290207876,0.1435677155531711,0.02236785198514883,0.0912006675970222,0.05959754128995806,0.02696593531562632,0.12411475643123535
0.0786724,0.007598808632230223,0.1445087645221139,0.1449018888225695,0.022279835322002745,0.09056789813607466,0.059571172304627426,0.027471414337113136,0.12464265837022478
0.0791379,0.0075764701429729756,0.1440698321344324,0.14623572465409684,0.02219055087961994,0.08992892191519146,0.05954118135352781,0.027981482355337546,0.1251645691384679
0.0796034,0.007554175631650383,0.14361904860574426,0.14756908377879482,0.022100033940590964,0.08928400301348882,0.05950758736563274,0.02849611808664712,0.12568039071034443
0.080069,0.007531948651550638,0.14315653832460187,0.14890182615982556,0.02200831978034043,0.08863340461585142,0.05947040986203815,0.02901529925349576,0.12619002526109185
0.0805345,0.007509812755834077,0.14268242717402582,0.15023381101083857,0.021915443657754007,0.08797738894195173,0.059429668950182056,0.029539002585939493,0.12669337519590598
0.081,0.007487791493394402,0.1421968425039229,0.15156489681443475,0.021821440805907862,0.08731621717604349,0.05938538531797884,0.030067203823507253,0.1271903431792749
0.0814655,0.00746590840475154,0.1416999131032891,0.1528949413407184,0.02172634642290211,0.08665014939754569,0.05933758022786945,0.030599877717448574,0.12768083216454104
0.081931,0.007444187017976039,0.14119176917219098,0.15422380166593072,0.02163019566279979,0.08597944451243315,0.05928627551078869,0.03113699803335983,0.12816474542368433
0.0823966,0.007422650844644945,0.1406725422935194,0.1555513341911582,0.02153302362667264,0.0853043601854505,0.05923149356005097,0.03167853755419051,0.12864198657732037
0.0828621,0.007401323375829022,0.14014236540451253,0.1568773946611121,0.02143486535375486,0.08462515277316614,0.059173257325155756,0.03222446808363078,0.12911245962490572
0.0833276,0.00738022807811114,0.13960137276804663,0.15820183818297462,0.02133575581270579,0.08394207725788227,0.059111590305513856,0.03277476044988149,0.1295760689751425
0.0837931,0.007359388389635654,0.13904969994369543,0.1595245192453088,0.0212357298929824,0.083255387182417,0.05904651654409581,0.033329384509807554,0.13003271947657438
0.0842586,0.007338827716188592,0.13848748375856174,0.16084529173702894,0.021134822396322365,0.08256533458577374,0.05897806062100339,0.033888309153475314,0.1304823164483653
0.0847241,0.007318569427308423,0.13791486227788713,0.16216400896642877,0.0210330680283384,0.08187216993971323,0.058906247646965,0.034451502309074476,0.13092476571125275
0.0851897,0.007298636852427248,0.137331974775447,0.16348052368026578,0.020930501390224614,0.08117614208624267,0.058831103256756084,0.03501893094822469,0.131359973618667
0.0856552,0.007279053277042231,0.13673896170373906,0.16479468808290268,0.02082715697057567,0.08047749817603632,0.05875265360254583,0.03559056109166677,0.1317878470880078
0.0861207,0.007259841938917103,0.13613596466397354,0.16610635385550804,0.02072306913731965,0.07977648360780157,0.05867092534717132,0.036166357815338265,0.13220829363207004
0.0865862,0.007241026024313614,0.1355231263758739,0.16741537217532038,0.02061827212976569,0.07907334196860374,0.05858594565734085,0.036746285256832836,0.1326212213906085
0.0870517,0.007222628664252807,0.13490059064729545,0.16872159373498025,0.02051280005076755,0.07836831497516288,0.05849774219676808,0.037330306622242695,0.13302653916203253
0.0875172,0.007204672930806003,0.13426850234367116,0.17002486876193482,0.020406686859004243,0.07766164241613514,0.05840634311923816,0.03791838419338313,0.13342415643521918
0.0879828,0.007187181833415349,0.13362700735729308,0.1713250470379188,0.02029996636137909,0.07695356209539124,0.058311777061607006,0.03851047933539794,0.13381398342143455
0.0884483,0.007170178315243825,0.13297625257643936,0.17262197791851416,0.020192672205538435,0.07624430977630403,0.05821407313673427,0.039106552504744416,0.1341959310863518
0.0889138,0.0071536852495545445,0.13231638585435632,0.1739155103527916,0.02008483787251131,0.07553411912705701,0.05811326092635027,0.039706563257556254,0.1345699111821541
0.0893793,0.007137725436119203,0.13164755597810493,0.17520549290303547,0.0199764966694713,0.07482322166698487,0.05800937047385682,0.04031047025838266,0.13493583627971018
0.0898448,0.007122321597655494,0.13096991263728047,0.17649177376455452,0.01986768172262187,0.07411184671395674,0.057902432277061655,0.04091823128930163,0.13529361980080934
0.0903103,0.00710749637629329,0.13028360639261308,0.17777420078557918,0.01975842597020629,0.07340022133281278,0.05779247728084604,0.04152980325940559,0.13564317605044365
0.0907759,0.0070932723300693905,0.1295887886444561,0.17905262148724624,0.01964876215564333,0.07268857028486361,0.057679536869764986,0.04214514221465707,0.13598442024912347
0.0912414,0.00707967192945057,0.12888561160116854,0.18032688308367065,0.0195387228207898,0.07197711597846183,0.05756364286057958,0.04276420334811245,0.13631726856521256
0.0917069,0.007066717553884656,0.12817422824739716,0.18159683250210382,0.019428340299330982,0.07126607842065433,0.057444827494720574,0.04338694101051158,0.13664163814726932
0.0921724,0.00705443148837928,0.12745479231226414,0.18286231640317635,0.019317646710300132,0.07055567516992346,0.057323123430682306,0.044013308721230916,0.13695744715637864
0.0926379,0.00704283592010791,0.12672745823746492,0.18412318120122226,0.019206673951727912,0.06984612129002471,0.057198563736345936,0.0446432591795975,0.13726461479846028
0.0931034,0.007031952935042729,0.12599238114528125,0.18537927308468244,0.01909545369442287,0.06913762930492777,0.057071181881230997,0.04527674427656082,0.13756306135653956
0.093569,0.00702180451461386,0.12524971680651337,0.18663043803658494,0.01898401737588371,0.06843040915486773,0.05694101172867448,0.045913715106719294,0.13785270822296677
0.0940345,0.0070124125323944115,0.12449962160833512,0.18787652185510093,0.01887239619434406,0.06772466815351218,0.05680808752793739,0.04655412198069808,0.1381334779315721
0.0945,0.007003798750810791,0.12374225252207474,0.18911737017417746,0.018760621102950552,0.0670206109462501,0.056672443906239135,0.047197914437874196,0.13840529418974445
0.0949655,0.006995984817877672,0.12297776707092409,0.19035282848425017,0.01864872280407471,0.06631843946960742,0.056534115860721317,0.047845041259444956,0.13866808191042113
0.095431,0.006988992263957047,0.1222063232975787,0.19158274215304066,0.018536731743759378,0.0656183529117942,0.056393138750343054,0.04849545048183541,0.13892176724397642
0.0958966,0.006982842498540739,0.12142807973181081,0.19280695644644455,0.018424678106300284,0.06492054767438797,0.05624954828771063,0.04914908941044012,0.13916627760999542
0.0963621,0.006977556807055838,0.12064319535797755,0.19402531654951735,0.018312591808963274,0.064225217335157,0.05610338053084459,0.0498059046336944,0.1394015417289187
0.0968276,0.006973156347692494,0.11985182958246694,0.19523766758756742,0.01820050249683776,0.06353255261202732,0.055954671874887646,0.050465842037469864,0.13962748965354257
0.0972931,0.006969662148253574,0.11905414220108415,0.19644385464736724,0.01808843953782682,0.06284274132819663,0.05580345904375702,0.05112884681978903,0.13984405280035891
0.0977586,0.006967095103025705,0.11825029336638056,0.19764372279849807,0.017976432017774255,0.062155968378398034,0.05564977908174519,0.05179486350585322,0.14005116398071793
0.0982241,0.006965475969671284,0.11744044355492816,0.1988371171148446,0.01786450873572894,0.06147241569631679,0.05549366934507359,0.05246383596337777,0.14024875743179788
0.0986897,0.006964825366141072,0.11662475353454259,0.20002388269625843,0.017752698199346724,0.06079226222316246,0.05533516749340412,0.05313570741822792,0.14043676884736386
0.0991552,0.006965163767607013,0.1158033843314579,0.20120386469040935,0.017641028620430117,0.060115683877398976,0.05517431148131335,0.05381042047034873,0.14061513540829884
0.0996207,0.0069665115034149416,0.11497649719745733,0.20237690831484237,0.017529527910605976,0.05944285352563482,0.055011139549734384,0.054487917109981555,0.14078379581288872
0.1000862,0.006968888754056881,0.11414425357696495,0.20354285887925688,0.01741822367714147,0.05877394095467526,0.05484569021737096,0.05516813873415944,0.14094269030684423
0.1005517,0.006972315548162579,0.11330681507410449,0.20470156180802446,0.01730714321889859,0.05810911284473808,0.054678002272088126,0.05585102616347318,0.14109176071304091
0.1010172,0.0069768117595099665,0.11246434341973195,0.20585286266295935,0.017196313522427384,0.05744853274383387,0.054508114762283566,0.05653651965909929,0.14123095046095843
0.1014828,0.006982397104054164,0.1116170004384501,0.20699660716635718,0.01708576125819814,0.056792361043311555,0.05433606698824334,0.05722455894008088,0.14136020461579948
0.1019483,0.006989091136974654,0.11076494801561361,0.20813264122431485,0.016975512776972644,0.056140754954569515,0.054161898493485315,0.05791508320085182,0.14147946990726817
0.1024138,0.0069969132497401864,0.10990834806433392,0.2092608109503451,0.016865594106314455,0.05549386848693199,0.05398564905609343,0.0586080311289941,0.14158869475798688
0.1028793,0.007005882667190926,0.1090473624924936,0.21038096268929826,0.016756030947238203,0.05485185242669013,0.053807358680045124,0.05930334092321786,0.14168782931152973
0.1033448,0.00701601844463735,0.1081821531697804,0.21149294304160188,0.016646848670997593,0.05421485431730664,0.053627067586534294,0.06000095031155317,0.14177682546005135
0.1038103,0.007027339464975379,0.10731288189475079,0.2125965988878282,0.016538072316011867,0.05358301844078246,0.05344481620529141,0.06070079656974197,0.14185563687148775
0.1042759,0.007039864435817208,0.10643971036193317,0.2136917774135989,0.01642972658493023,0.05295648580018336,0.05326064516590206,0.06140281653981844,0.14192421901630636
0.1047414,0.007053611886637332,0.10556280012898052,0.21477832613483522,0.016321835841833613,0.05233539410332399,0.05307459528912522,0.062106946648865555,0.1419825291937804
0.1052069,0.007068600165933262,0.10468231258388182,0.21585609292336147,0.01621442410957306,0.05171987774760652,0.05288670757821199,0.06281312292793537,0.14203052655776247
0.1056724,0.007084847438400495,0.10379840891224068,0.2169249260328691,0.01610751506724395,0.051110067806010524,0.0526970232102257,0.0635212810311202,0.14206817214193188
0.1061379,0.007102371682121317,0.10291125006462945,0.2179846741252481,0.016001132047795047,0.050506092014230314,0.05250558352736389,0.06423135625476196,0.14209542888448978
0.1066034,0.007121190685767117,0.10202099672402623,0.21903518629729174,0.015895298035771444,0.0499080747589559,0.0523124300282824,0.06494328355678652,0.1421122616522762
0.107069,0.007141322045813931,0.10112780927334233,0.2200763121077799,0.015790035665190244,0.04931613706729306,0.0521176043594217,0.06565699757614958,0.14211863726428361
0.1075345,0.007162783163770977,0.1002318477630476,0.22110790160494603,0.015685367217547756,0.04873039659731805,0.05192114830633579,0.06637243265238024,0.14211452451454198
0.108,0.007185591243422039,0.09933327187890104,0.22212980535433108,0.015581314619956915,0.04815096762976212,0.051723103785023844,0.06708952284520772,0.14209989419434943
0.1084655,0.007209763288079576,0.09843224090979463,0.22314187446702707,0.015477899443413516,0.04757796106082096,0.05152351283326565,0.0678082019542563,0.14207471911382535
0.108931,0.007235316097851455,0.0975289137157181,0.22414396062831263,0.015375142901189787,0.047011484396083957,0.05132241760196195,0.0685284035387934,0.14203897412276384
0.1093966,0.007262266266920282,0.09662344869585317,0.2251359161266817,0.015273065847353766,0.04645164174557775,0.051119860346481374,0.06925006093751535,0.14199263613076768
0.1098621,0.007290630180835335,0.09571600375680586,0.22611759388326697,0.015171688775412922,0.04589853381991863,0.05091588341801571,0.06997310728835597,0.14193568412664553
0.1103276,0.007320424013817106,0.09480673628098617,0.2270888474816573,0.015071031817080437,0.04535225792756783,0.050710529254945194,0.07069747554830441,0.14186809919705648
0.1107931,0.007351663726074508,0.09389580309514456,0.22804953119811025,0.0149711147411625,0.04481290797318349,0.05050384037421583,0.07142309851321932,0.14178986454438802
0.1112586,0.007384365061134783,0.09298336043907589,0.22899950003215805,0.014871956952564934,0.04428057445706298,0.05029585936273038,0.07214990883762831,0.14170096550385675
0.1117241,0.007418543543186147,0.09206956393450061,0.2299386097376047,0.014773577491417464,0.04375534447566863,0.05008662886875475,0.0728778390545025,0.14160138955982263
0.1121897,0.007454214474433151,0.09115456855413427,0.2308667168539101,0.014675995032313812,0.04323730172322985,0.049876191593341675,0.07360682159499732,0.1414911263613107
0.1126552,0.007491392932464762,0.09023852859095594,0.2317836787379557,0.014579227883665783,0.04272652649441402,0.04966459028177331,0.07433678880815212,0.14137016773673486
0.1131207,0.00753009376763509,0.08932159762768653,0.23268935359618353,0.014483293987169453,0.04222309568805838,0.04945186771502454,0.07506767298054214,0.14123850770781912
0.1135862,0.007570331600456771,0.08840392850648834,0.23358360051709992,0.014388210917381569,0.041727082811954724,0.04923806670124889,0.07579940635587779,0.14109614250271169
0.1140517,0.007612120819007001,0.08748567329889685,0.23446627950413093,0.014293995881404259,0.04123855798867821,0.04902323006728837,0.07653192115454605,0.14094307056828706
0.1145172,0.007655475576346227,0.08656698327599656,0.2353372515088165,0.014200665718676175,0.04075758796245153,0.04880740065020884,0.07726514959308894,0.14077929258163147
0.1149828,0.00770040978794953,0.08564800887885224,0.2361963784643285,0.014108236900868166,0.040284236107034965,0.04859062128886167,0.07799902390361436,0.14060481146070664
0.1154483,0.007746937129150786,0.08472889968920777,0.2370435233192959,0.014016725531881642,0.03981856243463281,0.048372934815472585,0.07873347635313357,0.14041963237418628
0.1159138,0.007795071032599667,0.08380980440046479,0.2378785500719196,0.013926147347947847,0.039360623605806305,0.04815438404725815,0.07946843926281993,0.14022376275045897
0.1163793,0.007844824685731572,0.0828908707889533,0.238701323804361,0.013836517717826218,0.03891047294038284,0.04793501177807032,0.08020384502718299,0.14001721228578995
0.1168448,0.007896211028250591,0.0819722456855069,0.23951171071738872,0.013747851643099931,0.03846816042935137,0.04771486077006935,0.08093962613315202,0.13979999295163384
0.1173103,0.007949242749625586,0.08105407494735505,0.24030957816527046,0.013660163758566825,0.03803373274773367,0.04749397374542545,0.08167571517906289,0.13957211900109062
0.1177759,0.008003932286599506,0.08013650343034479,0.24109479469089795,0.01357346833272374,0.03760723326842142,0.047272393378049546,0.08241204489354201,0.1393336069744961
0.1182414,0.008060291820712008,0.07921967496150369,0.2418672300611358,0.013487779268342269,0.03718870207696902,0.04705016228535319,0.0831485481542817,0.13908447570413934
0.1187069,0.008118333275835452,0.07830373231195567,0.24262675530238426,0.013403110103133921,0.03677817598733215,0.04682732302003724,0.0838851580067011,0.13882474631810038
0.1191724,0.008178068315724343,0.07738881717020074,0.2433732427363467,0.013319474010502557,0.036375688558542375,0.046603918061908875,0.08462180768248716,0.13855444224320163
0.1196379,0.008239508341578243,0.07647507011576903,0.24410656601599212,0.013236883800382002,0.03598127011230789,0.04637998980972625,0.08535843061800973,0.13827358920706878
0.1201034,0.008302664489618219,0.07556263059325881,0.24482660016170343,0.013155351920156657,0.03559494775153048,0.046155580573069656,0.08609496047260472,0.13798221523929724
0.120569,0.008367547628676888,0.07465163688676803,0.2455332215976037,0.013074890455662907,0.03521674537972886,0.045930732564238276,0.08683133114671933,0.1376803506717224
0.1210345,0.008434168357802094,0.07374222609472778,0.24622630818805447,0.01299551113226903,0.034846683721358254,0.04570548789017129,0.08756747679991318,0.13736802813779259
0.1215,0.008502537003874266,0.072834534105146,0.24690573927432075,0.012917225316031285,0.03448478034301613,0.04547988854439287,0.08830333186870883,0.13704528257104331
0.1219655,0.008572663619237456,0.0719286955712692,0.24757139571139963,0.012840044014923831,0.03413104967552377,0.04525397639898111,0.08903883108428501,0.13671215120267263
0.122431,0.00864455797934404,0.07102484388766955,0.24822315990500676,0.012763977880140033,0.033785503036873096,0.045027793196561805,0.08977390949000559,0.13636867355821697
0.1228966,0.008718229580413059,0.07012311116676434,0.24886091584871553,0.012689037207462707,0.03344814865602809,0.04480138054232858,0.09050850245877635,0.13601489145332715
0.1233621,0.0087936876371021,0.06922362821577435,0.24948454916124055,0.012615231938700814,0.033118991697569836,0.04457477989609154,0.09124254571022147,0.13565084898864546
0.1238276,0.008870941080192676,0.06832652451412743,0.2500939471238559,0.012542571663190099,0.032798034287173865,0.044348032564356425,0.09197597532767131,0.13527659254378402
0.1242931,0.008949998554288954,0.06743192819131269,0.2506889987179366,0.012471065619355135,0.03248527553790831,0.04412117969243676,0.09270872777495363,0.13489217077040655
0.1247586,0.009030868415529695,0.0665399660051904,0.2512695946626106,0.012400722696330168,0.03218071157734103,0.04389426225660158,0.09344073991298144,0.1344976345844154
0.1252241,0.009113558729313175,0.06565076332076235,0.25183562745250754,0.012331551435636127,0.031884335575443665,0.043667321056261615,0.09417194901613167,0.13409303715724727
0.1256897,0.009198077268034859,0.06476444408940674,0.252386991395587,0.012263560032911049,0.03159613777328032,0.04344039670619725,0.09490229278841059,0.1336784339062818
0.1261552,0.009284431508837607,0.0638811308285816,0.2529235826510309,0.012196756339691112,0.03131610551246835,0.04321352962883179,0.09563170937940203,0.13325388248436887
0.1266207,0.009372628631374174,0.06300094460200047,0.253445299267181,0.012131147865239335,0.03104422326539859,0.042986760046553635,0.09636013739999527,0.1328194427684813
0.1270862,0.009462675515581753,0.06212400500028355,0.25395204121950404,0.012066741778418887,0.03078047266620208,0.042760127974091,0.09708751593788953,0.13237517684750283
0.1275517,0.009554578739468281,0.06125043012208797,0.25444371044856245,0.012003544909607878,0.030524832542450284,0.042533673210942494,0.0978137845728724,0.13192114900916033
0.1280172,0.00964834457691026,0.06038033655572046,0.2549202108979731,0.011941563752652328,0.030277278947575717,0.04230743533386672,0.0985388833918697,0.131457425726111
0.1284828,0.009743978995461727,0.05951383936123577,0.25538144855233263,0.011880804466854002,0.030037785193999675,0.04208145368943354,0.099262753003766,0.13098407564119438
0.1289483,0.009841487654174027,0.05865105205302449,0.25582733147509035,0.011821272878989606,0.029806321886954035,0.04185576738663958,0.09998533455399568,0.1305011695518594
0.1294138,0.009940875901425953,0.05779208658289389,0.25625776984634896,0.011762974485357786,0.02958285695898407,0.04163041528958997,0.1007065697389048,0.13000878039377706
0.1298793,0.010042148772763753,0.05693705332364524,0.256672676000575,0.011705914453850262,0.02936735570511948,0.041405436010248396,0.10142640081988463,0.1295069832236488
0.1303448,0.010145310988750477,0.05608606105315153,0.25707196446420155,0.011650097626043392,0.02915978081870106,0.04118086790125693,0.10214477063727752,0.12899585520122064
0.1308103,0.010250366952824096,0.05523921693893957,0.2574555519931081,0.011595528519306324,0.028960092427850602,0.040956749048827366,0.10286162262405495,0.1284754755705115
0.1312759,0.010357320749163802,0.05439662652327998,0.2578233576099614,0.011542211328921963,0.028768248132571957,0.040733117265705415,0.10357690081926785,0.12794592564026547
0.1317414,0.010466176140563879,0.05355839370878915,0.2581753026414038,0.011490149930216966,0.028584203042471144,0.0405100100842094,0.10429054988126887,0.12740728876363494
0.1322069,0.01057693656631464,0.05272462074454712,0.25851131075507255,0.011439347880697046,0.028407909815083524,0.040287464749345,0.10500251510070609,0.1268596503171024
0.1326724,0.010689605140090033,0.05189540821273499,0.2588313079964331,0.011389808422184134,0.028239318694795904,0.04006551821199779,0.10571274241328789,0.12630309767864786
0.1331379,0.010804184647841783,0.05107085501579564,0.25913522282541007,0.011341534482952043,0.028078377552351208,0.039844207122205474,0.10642117841231814,0.12573772020516938
0.1336034,0.010920677545700138,0.05025105836412125,0.2594229861527972,0.01129452867985755,0.027925031924923217,0.039623567822511356,0.10712777036100027,0.12516360920916356
0.134069,0.011039085957881495,0.0494361137642712,0.25969453137642956,0.011248793320463992,0.027779225056748756,0.03940363634140056,0.10783246620450807,0.1245808579346733
0.1345345,0.011159411674603345,0.04862611500772329,0.2599497944170995,0.011204330405154669,0.027640897940304325,0.03918444838682032,0.10853521458182071,0.12398956153250984
0.135,0.011281656150006994,0.047821154160161215,0.26018871375419794,0.011161141629233587,0.0275099893580141,0.038966039339785326,0.10923596483731807,0.12338981703475622
0.1354655,0.011405820500088572,0.047021321551300684,0.26041123046106224,0.011119228385011217,0.027386435924475896,0.03874844424806889,0.10993466703213255,0.12278172332855923
0.135931,0.01153190550063876,0.046226705765256434,0.2606172882400085,0.011078591763873139,0.027270172129191618,0.03853169781998071,0.11063127195525252,0.12216538112921653
0.1363966,0.011659911585191807,0.04543739363145191,0.26080683345702804,0.011039232558329561,0.02716113037978842,0.03831583441823154,0.11132573113437175,0.12154089295256534
0.1368621,0.011789838842984448,0.04465347021607317,0.2609798151761247,0.011001151264043812,0.027059241045716616,0.03810088805388529,0.11201799684647926,0.12090836308667786
0.1373276,0.01192168701692548,0.04387501881406827,0.26113618519327003,0.010964348081837955,0.0269644325024102,0.03788689238039858,0.11270802212818386,0.12026789756286806
0.1377931,0.012055455501576894,0.043102120941693293,0.2612758980699538,0.010928822919673729,0.02687663117589561,0.037673880687747546,0.11339576078576859,0.11961960412601409
0.1382586,0.012191143341147665,0.042334856329605534,0.2613989111663089,0.010894575394606957,0.02679576158783409,0.03746188589664157,0.11408116740497094,0.11896359220420069
0.1387241,0.012328749227501464,0.04157330291650442,0.261505184673792,0.010861604834713627,0.026721746400983074,0.03725094055282316,0.11476419736048755,0.11829997287768564
0.1391897,0.012468271498179665,0.04081753684332029,0.26159468164740424,0.010829910280985712,0.026654506465061487,0.03704107682145306,0.11544480682520201,0.11762885884719676
0.1396552,0.012609708134441204,0.040067632447950655,0.2616673680374373,0.010799490489194787,0.026593960863004362,0.03683232648157929,0.11612295277913598,0.11695036440156711
0.1401207,0.012753056759320867,0.0393236622605434,0.26172321272073384,0.010770343931721478,0.02654002695759181,0.036624720920688705,0.1167985930181239,0.11626460538471858
0.1405862,0.012898314635707708,0.038585696999325916,0.26176218753145286,0.01074246879934873,0.026492620438437656,0.03641829112933941,0.1174716861622122,0.11557169916200631
0.1410517,0.013045478664445317,0.03785380556697883,0.2617842672913349,0.010715863003016935,0.026451655369322993,0.03621306769587245,0.11814219166378408,0.11487176458593874
0.1415172,0.013194545382455734,0.03712805504755282,0.2617894298394627,0.010690524175539055,0.02641704423585998,0.036009080801201195,0.11881006981541138,0.11416492196129105
0.1419828,0.013345510960888742,0.03640851070392656,0.2617776560615132,0.010666449673273916,0.026388697993471086,0.03580636021367732,0.11947528175743585,0.11345129300963333
0.1424483,0.013498371203298326,0.03569523597580351,0.26174892991849763,0.010643636577756133,0.026366526115668816,0.035604935284032496,0.12013778948528199,0.11273100083329757
0.1429138,0.013653121543848,0.03498829247824533,0.2617032384749837,0.010622081697281441,0.026350436642620975,0.035404834940395105,0.12079755585650385,0.11200416987880873
0.1433793,0.013809757045546668,0.034287740000739,0.2616405719267963,0.010601781568446466,0.026340336229986265,0.03520608768338135,0.12145454459756813,0.11127092589980653
0.1438448,0.013968272398516664,0.03359363650679494,0.26156092362819205,0.010582732457642494,0.02633613019800493,0.035008721581260116,0.1221087203103745,0.11053139591948338
0.1443103,0.014128661918295517,0.032906038134072724,0.261464290118504,0.010564930362503146,0.026337722580828976,0.03481276426519076,0.12276004847851447,0.10978570819256367
0.1447759,0.014290919544172963,0.03222499919503108,0.26135067114825095,0.010548371013306291,0.026345016176076447,0.034618242924533006,0.12340849547326874,0.10903399216684888
0.1452414,0.014455038837564695,0.031550572178098375,0.26122006970470757,0.01053304987433081,0.026357912594594263,0.03442518430222795,0.12405402855934215,0.1082763784443519
0.1457069,0.014621012980424168,0.030882807749359514,0.26107249203692845,0.010518962145169116,0.026376312310413885,0.03423361469024964,0.12469661590033564,0.10751299874204329
0.1461724,0.014788834773693896,0.03022175475475497,0.2609079476802217,0.01050610276199652,0.026400114710884295,0.03404355992512663,0.12533622656395296,0.10674398585223205
0.1466379,0.014958496635797614,0.029567460222787407,0.26072644948006607,0.010494466398798719,0.02642921814696659,0.033855045383533504,0.12597283052694067,0.10596947360260225
0.1471034,0.015129990601174747,0.02891996936773103,0.2605280136154686,0.010484047468558808,0.0264635199836745,0.033668095977952645,0.12660639867975895,0.10518959681592754
0.147569,0.015303308318858627,0.02827932559333859,0.2603126596217598,0.010474840124405397,0.026502916650645088,0.033482736152406524,0.127236902830981,0.10440449126948477
0.1480345,0.015478441051099922,0.02764557049704066,0.2600804104128247,0.010466838260723407,0.026547303692823855,0.03329898987826131,0.12786431571141782,0.10361429365418814
0.1485,0.015655379672036725,0.027018743874631712,0.2598312923027683,0.010460035514229214,0.026596575821248664,0.03311688065010273,0.1284886109779658,0.10281914153346507
0.1489655,0.015834114666412723,0.026398883725437135,0.2595653350270118,0.010454425265011755,0.02665062696391684,0.03293643148168603,0.1291097632171733,0.10201917330189433
0.149431,0.016014636128344778,0.025786026257955237,0.2592825717628169,0.010450000637541226,0.026709350316719765,0.032757664901962795,0.12972774794852324,0.10121452814362733
0.1498966,0.016196933760141204,0.025180205895967988,0.2589830391492333,0.010446754501646935,0.026772638394429372,0.0325806029511879,0.13034254162742737,0.10040534599061327
0.1503621,0.01638099687117201,0.02458145528511411,0.2586667773064654,0.01044467947346593,0.026840383081720917,0.03240526717711082,0.13095412164792813,0.09959176748064894
0.1508276,0.01656681437679249,0.023989805299917885,0.25833382985465436,0.010443767916364031,0.026912475684216786,0.032231678631255235,0.13156246634510377,0.09877393391527384
0.1512931,0.01675437479732153,0.02340528505126695,0.25798424393207375,0.010444011941831036,0.02698880697953615,0.032059857865291225,0.13216755499717162,0.09795198721753104
0.1517586,0.016943666257076287,0.02282792189433222,0.25761807021273714,0.010445403410351948,0.027069267268335587,0.03188982492750395,0.13276936782728407,0.09712606988961393
0.1522241,0.017134676483464752,0.02225774143692303,0.25723536292341614,0.010447933932256272,0.02715374642532608,0.031721599359362536,0.13336788600501068,0.0962963249704187
0.1526897,0.01732739280613805,0.02169476754827051,0.2568361798600677,0.010451594868547584,0.0272421339502519,0.03155520019219267,0.13396309164750028,0.09546289599302162
0.1531552,0.017521802156204053,0.021139022368232254,0.25642058240366655,0.010456377331715741,0.027334319018816937,0.031390645943956234,0.1345549678203163,0.09462592694209959
0.1536207,0.017717891065504122,0.020590526316911273,0.2559886355354379,0.010462272186534288,0.02743019053354401,0.03122795461614101,0.13514349853793894,0.09378556221131214
0.1540862,0.017915645665954553,0.020049298104682256,0.25554040785148197,0.010469270050845702,0.02752963717455269,0.031067143690763237,0.13572866876392845,0.09294194656066221
0.1545517,0.018115051688954272,0.019515354742618077,0.2550759715767815,0.010477361296337237,0.027632547450241053,0.03090823012748569,0.1363104644107452,0.09209522507385332
0.1550172,0.018316094464860256,0.018988711553309463,0.25459540257858004,0.010486536049310146,0.027738809747856634,0.03075123036085369,0.13688887233922292,0.09124554311565966
0.1554828,0.018518758922532002,0.018469382182070813,0.25409878037911704,0.01049678419144515,0.02784831238394194,0.030596160297651446,0.13746388035769286,0.09039304628932572
0.1559483,0.018723029588946335,0.01795737860852495,0.25358618816770473,0.010508095360567037,0.027960943654639775,0.03044303531438102,0.13803547722075746,0.08953788039401173
0.1564138,0.01892889058888376,0.017452711158559668,0.25305771281212763,0.01052045895141128,0.02807659188584391,0.03029187025486623,0.13860365262771251,0.08868019138230092
0.1568793,0.019136325644687497,0.01695538851664879,0.2525134448693457,0.010533864116395576,0.02819514548318084,0.030142679427983828,0.1391683972206174,0.08782012531778523
0.1573448,0.019345318076096227,0.016465417738530365,0.2519534785954782,0.01054829976639919,0.028316492981808557,0.029995476605524516,0.13972970258201317,0.08695782833274562
0.1578103,0.019555850800151577,0.0159828042642346,0.2513779119550447,0.010563754571552866,0.028440523096018577,0.029850275020186404,0.14028756123228822,0.08609344658594455
0.1582759,0.019767906331181147,0.015507551931453957,0.25078684662943823,0.01058021696204206,0.028567124768627584,0.029707087363703664,0.14084196662669313,0.0852271262205474
0.1587414,0.019981466780857896,0.015039662989247792,0.2501803880246048,0.010597675128926164,0.028696187220145154,0.029565925785113082,0.14139291315200525,0.08435901332219048
0.1592069,0.020196513858336554,0.014579138112073857,0.24955864527790478,0.010616117024976333,0.028827599997704074,0.02942680188916089,0.14194039612284548,0.08348925387721327
0.1596724,0.020413028870467833,0.014125976414138963,0.24892173126413028,0.010635530365534522,0.028961253023739676,0.029289726734852358,0.1424844117776486,0.0826179937310733
0.1601379,0.020630992722091207,0.013680175464061105,0.24826976260065434,0.010655902629396223,0.02909703664440453,0.0291547108341462,0.1430249572742894,0.0817453785469627
0.1606034,0.020850385916407144,0.013241731299835349,0.24760285965168513,0.01067722105971944,0.029234841677704876,0.029021764150795853,0.14356203068536666,0.08087155376464564
0.161069,0.02107118855542981,0.012810638444095763,0.24692114653159936,0.010699472664962278,0.029374559461344815,0.028890896099339352,0.14409563099314762,0.07999666455953588
0.1615345,0.02129338034052141,0.012386889919665639,0.24622475110732736,0.010722644219851567,0.02951608190026443,0.028762115544239623,0.14462575808417585,0.07912085580203383
0.162,0.021516940573009388,0.011970477265388243,0.24551380499976336,0.010746722266384835,0.02965930151385761,0.02863543079917673,0.14515241274354498,0.07824427201714215
0.1624655,0.021741848154887923,0.011561390552230233,0.24478844358417462,0.01077169311486796,0.029804111482855423,0.028510849626493816,0.1456755966488417,0.07736705734437914
0.162931,0.02196808158960511,0.011159618399649926,0.24404880598958595,0.01079754284499082,0.029950405695860428,0.02838837923679826,0.1461953123637608,0.0764893554980087
0.1633966,0.022195618982937294,0.010765147992222491,0.24329503509711764,0.010824257306943228,0.03009807879551735,0.028268026288719522,0.1467115633313956,0.07561130972760532
0.1638621,0.022424438043952007,0.010377965096514247,0.24252727753725714,0.01085182212257341,0.03024702622430522,0.028149796888825115,0.1472243538672056,0.07473306277897238
0.1643276,0.02265451608606091,0.00999805407819818,0.2417456836860473,0.010880222686591338,0.030397144269935936,0.028033696591696026,0.1477336891516637,0.07385475685543104
0.1647931,0.02288583002816398,0.009625397919402945,0.24095040766017448,0.010909444167819023,0.030548330110343944,0.027919730400162893,0.14823957522258366,0.07297653357949736
0.1652586,0.023118356395886063,0.00925997823628776,0.2401416073109397,0.010939471510489933,0.030700481858251652,0.027807902765704176,0.14874201896712783,0.07209853395496378
0.1657241,0.023352071322906946,0.008901775296835654,0.23931944421709467,0.01097028943559963,0.030853498605294773,0.02769821758900748,0.1492410281134951,0.07122089832940119
0.1661897,0.023586950552386007,0.008550768038857725,0.2384840836765233,0.01100188244230974,0.031007280465691688,0.027590678220695233,0.14973661122228812,0.07034376635709699
0.1666552,0.023822969438482514,0.008206934088201164,0.23763569469674775,0.01103423480940734,0.031161728619440714,0.02748528746221584,0.15022877767755835,0.0694672769624437
0.1671207,0.02406010294797257,0.007870249777153907,0.2367744499842354,0.01106733059682189,0.03131674535502905,0.027382047566901453,0.15071753767752696,0.06859156830379251
0.1675862,0.0242983256619639,0.007540690163038819,0.23590052593248284,0.01110115364720175,0.03147223411163701,0.027280960241193853,0.15120290222497876,0.06771677773778527
0.1680517,0.02453761177770971,0.007218229046990462,0.23501410260884958,0.01113568758755231,0.03162809952082126,0.027182026646039577,0.15168488311732506,0.06684304178417776
0.1685172,0.02477793511052271,0.006902838992907487,0.23411536374011488,0.011170915830937727,0.03178424744766061,0.027085247398455754,0.15216349293633108,0.06597049609116677
0.1689828,0.025019269095790397,0.006594491346573781,0.233204496696727,0.011206821578248108,0.031940585031347835,0.026990622573267994,0.15263874503750244,0.06509927540123261
0.1694483,0.025261586791092618,0.00629315625494164,0.23228169247571603,0.011243387820034045,0.03209702072521093,0.026898151705021623,0.153110653539125,0.06422951351750829
0.1699138,0.025504860878422464,0.0059988026855702335,0.2313471456822411,0.011280597338410211,0.032253464336147064,0.026807833790067414,0.15357923331095388,0.06336134327068589
0.1703793,0.025749063666511505,0.005711398446212799,0.2304010545097443,0.011318432709029717,0.03240982706345234,0.026719667288822913,0.15404449996254804,0.06249489648647025
0.1708448,0.025994167093260554,0.005430910204546066,0.22944362071868699,0.011356876303130826,0.03256602153703046,0.026633650128210406,0.15450646983124913,0.06163030395358914
0.1713103,0.026240142728277228,0.005157303508035479,0.2284750496138459,0.011395910289657595,0.03272196185496318,0.026549779704272237,0.15496515996980506,0.06076769539236919
0.1717759,0.02648696177552179,0.00489054280392983,0.22749555002014865,0.011435516637455869,0.03287756362042545,0.0264680528849642,0.15542058813364015,0.05990719942388554
0.1722414,0.026734595076062847,0.0046305914593789315,0.22650533425702782,0.01147567711754608,0.03303274397792792,0.026388466013127478,0.15587277276777517,0.059048943539693484
0.1727069,0.02698301311094472,0.004377411781668,0.22550461811127465,0.011516373305474222,0.0331874216488694,0.026311014909639312,0.1563217329934027,0.05819305407214909
0.1731724,0.027232186004168168,0.0041309650385623915,0.22449362080837124,0.011557586583742367,0.03334151696638192,0.026235694876742502,0.15676748859412418,0.05733965616532579
0.1736379,0.027482083525786325,0.003891211478756298,0.22347256498228163,0.011599298144320055,0.03349495190945109,0.02616250070155348,0.15721006000185508,0.056488873746533295
0.1741034,0.02773267509511738,0.0036581103524190063,0.22244167664368358,0.01164148899123786,0.033647650136294914,0.026091426659748573,0.15764946828240556,0.055640829498444906
0.174569,0.027983929784075635,0.0034316199318322974,0.22140118514662563,0.011684139943264345,0.03379953701698456,0.026022466519427773,0.15808573512074192,0.05479564483183849
0.1750345,0.02823581632062206,0.0032116975321125588,0.22035132315359815,0.011727231636667636,0.033950539665291164,0.02595561354515524,0.15851888280593524,0.05395343985895632
0.1755,0.028488303092335486,0.002998299532011199,0.21929232659901185,0.01177074452806271,0.03410058696974325,0.0258908605021754,0.1589489342158026,0.05311433336748857
0.1759655,0.028741358150105242,0.002791381394787007,0.21822443465108252,0.011814658897345473,0.03424960962387953,0.02582819966080335,0.159375912801247,0.052278442795184614
0.176431,0.028994949211945887,0.002590897689144147,0.21714788967212414,0.01185895485071463,0.03439754015568248,0.025767622800988012,0.15979984257030022,0.05144588420509618
0.1768966,0.029249043666934437,0.002396802110229545,0.21606293717725583,0.01190361232378225,0.03454431295617889,0.025709121217046407,0.1602207480718742,0.05061677226145589
0.1773621,0.029503608579270233,0.0022090475006834344,0.21496982579153073,0.011948611084773846,0.03468986430719474,0.02565268572256702,0.160638654379224,0.04979122020619455
0.1778276,0.02975861069245754,0.0020275858717368686,0.2138688072054982,0.011993930737818778,0.03483413240825291,0.025598306655480144,0.16105358707312653,0.04896933983610008
0.1782931,0.030014016433610752,0.0018523684243499944,0.21276013612921463,0.012039550726331576,0.034977057402603366,0.025545973883292824,0.16146557222477764,0.048151241480620596
0.1787586,0.030269791917882052,0.0016833455703849014,0.21164407024472054,0.012085450336484742,0.03511858140237682,0.025495676808485947,0.1618746363784116,0.04733703398031415
0.1792241,0.030525902953011413,0.001520466953806878,0.2105208701570045,0.012131608700773521,0.03525864851285336,0.02544740437407059,0.16228080653364615,0.04652682466594711
0.1796897,0.03078231504399868,0.0013636814719079084,0.20939079934347418,0.012178004801673024,0.035397204855838235,0.025401145069300857,0.16268411012755646,0.04572071933824312
0.1801552,0.031038993397897525,0.001212937296546251,0.208254124101954,0.012224617475388007,0.03553419859213692,0.025356886935540095,0.16308457501648074,0.04491882224828416
0.1806207,0.03129590292873091,0.001068181895395947,0.20711111349722805,0.012271425415695505,0.03566957994312153,0.02531461757227716,0.16348222945755977,0.044121236078565065
0.1810862,0.031553008262527625,0.00092936205320012,0.2059620393061465,0.012318407177880509,0.03580330121138063,0.02527432414328929,0.16387710209001075,0.043328061924702406
0.1815517,0.03181027374247918,0.0007964238930219282,0.20480717596131232,0.012365541182764709,0.03593531680044404,0.0252359933829482,0.16426922191613577,0.04253939927779867
0.1820172,0.03206766343421635,0.0006693128974870406,0.20364680049336523,0.012412805720828321,0.03606558323357439,0.025199611602665747,0.16465861828206366,0.041755346007462266
0.1824828,0.03232514113120419,0.0005479739300115185,0.20248119247188054,0.012460178956424886,0.03619405917161674,0.025165164697475796,0.16504532085822288,0.0409759983454837
0.1829483,0.03258267036025448,0.00043235125600898466,0.20131063394489856,0.012507638932088833,0.0363207054298979,0.02513263815274885,0.16542935961954272,0.040201450870168055
0.1834138,0.0328402143871541,0.00032238856407097786,0.20013540937710214,0.012555163572935566,0.03644548499416663,0.02510201705103616,0.16581076482537935,0.03943179649132364
0.1838793,0.03309773622240772,0.0002180289871144163,0.19895580558665857,0.012602730691153734,0.03656836303556645,0.025073286079039903,0.16618956699916382,0.038667126435906266
0.1843448,0.03335519862709298,0.00011921512349013683,0.19777211168074285,0.012650317990589355,0.03668930692463241,0.025046429534706,0.16656579690777162,0.03790753023431871
0.1848103,0.03361256411882604,2.5889058046551627e-05,0.1965846189897599,0.012697903071421435,0.03680828624430387,0.025021431334435938,0.1669394855406139,0.037153095707364324
0.1852759,0.03386979497783531,-6.200761685745252e-05,0.19539362100028265,0.012745463434928682,0.0369252728019455,0.024998275020414015,0.16731066408845352,0.036403908953853634
0.1857414,0.03412685325314097,-0.00014453378039615367,0.19419941328672402,0.012792976488346883,0.03704024064036895,0.02497694376804619,0.16767936392195062,0.03566005433886246
0.1862069,0.034383700768838,-0.00022174876238286917,0.19300229344175915,0.012840419549816472,0.037153166047848005,0.02495742039350673,0.16804561656994382,0.03492161448263976
0.1866724,0.03464029913048032,-0.0002937123224436832,0.19180256100551477,0.012887769853419908,0.03726402756712007,0.024939687361388907,0.168409453697473,0.034188670250162985
0.1871379,0.034896609731563805,-0.000360484629264572,0.19060051739354247,0.012935004554308424,0.037372806003366704,0.024923726792456052,0.16877090708355227,0.03346130074133878
0.1876034,0.035152593760105835,-0.0004221262399173952,0.1893964658235925,0.012982100733917727,0.037479484431166006,0.024909520471489362,0.16913000859870123,0.032739583281846084
0.188069,0.03540821220531928,-0.0004786980792701412,0.18819071124120287,0.013029035405272272,0.0375840482004095,0.024897049855228743,0.16948679018224497,0.03202359341461879
0.1885345,0.03566342586437857,-0.000530261419486728,0.1869835602441185,0.013075785518377668,0.03768648494117622,0.024886296080403204,0.1698412838193927,0.031313404891964595
0.189,0.0359181953492756,-0.0005768778596215787,0.185775321005555,0.013122327965700818,0.03778678456755642,0.024877239971847105,0.17019352151810577,0.030609089668316554
0.1894655,0.03617248109376334,-0.0006186093053141098,0.18456630319631903,0.013168639587737294,0.037884939280418056,0.02486986205069857,0.17054353528576768,0.029910717893613444
0.189931,0.03642624336038519,-0.0006555179485881957,0.18335681790579816,0.013214697178665472,0.03798094356910922,0.024864142542676108,0.17089135710566977,0.029218357907305096
0.1903966,0.03667944224758884,-0.0006876662477616021,0.18214717756183113,0.013260477492086786,0.03807479421209118,0.02486006138642932,0.17123701891332704,0.02853207623297838
0.1908621,0.03693203769692327,-0.0007151169074703164,0.18093769584946978,0.013305957246851427,0.03816649027649801,0.02485759824195947,0.17158055257264018,0.027851937573599498
0.1913276,0.03718398950031858,-0.0007379328588126461,0.1797286876286447,0.01335111313296877,0.038256033116620965,0.024856732499105576,0.17192198985191962,0.02717800480736815
0.1917931,0.037435257307448136,-0.0007561772396179046,0.17852046885074835,0.01339592181760165,0.03834342637131781,0.024857443286091418,0.17226136239978906,0.026510338984178875
0.1922586,0.03768580063317313,-0.0007699133748444585,0.17731335647415258,0.013440359951143595,0.038428675960348845,0.024859709478129138,0.1725987017209857,0.025848999322684783
0.1927241,0.03793557886506976,-0.0007792047571118481,0.17610766837868072,0.013484404173378192,0.038511790079642574,0.024863509706074795,0.17293403915207395,0.025194043207958837
0.1931897,0.03818455127103932,-0.0007841150273716067,0.17490372327905582,0.013528031119719645,0.03859277919549486,0.024868822365131313,0.17326740583708947,0.02454552618974759
0.1936552,0.038432677007001606,-0.000784707955721275,0.17370184063734828,0.013571217427533757,0.03867165603770589,0.024875625623594133,0.17359883270313053,0.023903501981312174
0.1941207,0.0386799151246721,-0.0007810474223659441,0.17250234057444774,0.013613939742538491,0.03874843559166036,0.024883897431634782,0.17392835043591437,0.023268022458851186
0.1945862,0.03892622457942305,-0.0007731973987314694,0.17130554378058518,0.01365617472528338,0.03882313508935744,0.024893615530117482,0.17425598945531495,0.022639137661499945
0.1950517,0.03917156423822873,-0.0007612219287333008,0.17011177142493256,0.013697899057707026,0.03889577399939877,0.024904757459443923,0.1745817798909001,0.022016895791900415
0.1955172,0.039415892887694745,-0.0007451851102047114,0.16892134506430978,0.013739089449772013,0.038966374015943786,0.024917300568421702,0.17490575155748359,0.021401343217335892
0.1959828,0.03965916924217117,-0.0007251510764880762,0.1677345865510282,0.01377972264617652,0.039034959046643246,0.02493122202315218,0.17522793393070882,0.020792524471424444
0.1964483,0.03990135195194925,-0.0007011839781927713,0.1665518179399011,0.01381977543314198,0.03910155519956186,0.024946498815933933,0.17554835612267822,0.02019048225636495
0.1969138,0.04014239961154135,-0.0006733479651232185,0.16537336139445022,0.013859224645276126,0.039166190769101696,0.02496310777417815,0.17586704685764343,0.01959525744572949
0.1973793,0.04038227076804365,-0.0006417071683805646,0.1641995390923375,0.013898047172510789,0.0392288962209377,0.024981025569332817,0.17618403444777153,0.019006889087795575
0.1978448,0.04062092392958107,-0.0006063256826414629,0.1630306731300502,0.013936219967113868,0.03928970417597689,0.02500022872581242,0.17649934676900456,0.01842541440941154
0.1983103,0.04085831757383366,-0.0005672675486173809,0.16186708542686756,0.013973720050774923,0.0393486493933529,0.025020693629930195,0.17681301123703075,0.017850868820388405
0.1987759,0.04109441015664379,-0.0005245967356978184,0.16070909762813823,0.0140105245217638,0.03940576875246826,0.02504239653883003,0.1771250547833884,0.017283285918411256
0.1992414,0.041329160120703104,-0.0004783771247807535,0.15955703100789795,0.014046610562161634,0.039461101234097226,0.025065313589415297,0.17743550383172546,0.016722697494463052
0.1997069,0.04156252590431834,-0.0004286724912935746,0.15841120637085943,0.01408195544516355,0.0395146879005626,0.025089420807271893,0.17774438427423986,0.01616913353875367
0.2001724,0.041794465950254926,-0.0003755464884076872,0.15727194395380917,0.0141165365424523,0.03956657187500059,0.025114694115582748,0.17805172144832887,0.015622622247146813
0.2006379,0.04202493871465719,-0.0003190626304499132,0.15613956332644707,0.014150331331641957,0.0396167983197277,0.02514110934403098,0.1783575401134771,0.015083190028077377
0.2011034,0.04225390267604402,-0.00025928427651373523,0.155014383291707,0.014183317403790727,0.03966541441372414,0.025168642237688908,0.17866186442841525,0.014550861509951666
0.201569,0.042481316344378635,-0.0001962746142733826,0.153896721785598,0.014215472470981988,0.03971246932924781,0.02519726846588988,0.17896471792858037,0.014025659549022771
0.2020345,0.04270713827021113,-0.00013009664400370413,0.1527868957766076,0.014246774373972527,0.03975801420759302,0.025226963631079857,0.17926612350390794,0.013507605237733292
0.2025,0.04293132705389223,-6.0813162808735e-05,0.15168522116471211,0.014277201089907038,0.03980210213400773,0.025257703277645618,0.17956610337698486,0.012996717913517468
0.2029655,0.043153841354856594,1.1513250938183823e-05,0.15059201268004077,0.014306730740097832,0.03984478811178281,0.02528946290071636,0.17986467908159212,0.01249301516805466
0.203431,0.04337463990097382,8.682025293993039e-05,0.14950758378124127,0.014335341597868778,0.039886129035526616,0.025322217954935316,0.18016187144166557,0.011996512856966018
0.2038966,0.04359368149796483,0.00016504574810402947,0.14843224655359663,0.014363012096462466,0.0399261836636378,0.025355943863197877,0.18045770055070137,0.011507225109946109
0.2043621,0.043810925038881315,0.0002461279054512975,0.1473663116069418,0.014389720837009503,0.039965012589989087,0.025390616025352728,0.18075218575163265,0.011025164341321152
0.2048276,0.04402632951364562,0.0003300051728020627,0.14631008797342945,0.014415446596558893,0.04000267821483427,0.025426209826862257,0.181045345617203,0.01055034126102547
0.2052931,0.04423985401864829,0.00041661629123734573,0.1452638830051939,0.014440168336168393,0.040039244714950864,0.025462700647418367,0.18133719793086095,0.010082764885987689
0.2057586,0.044451457766400394,0.0005059003093324066,0.14422800227196167,0.014463865209053734,0.04007477801303056,0.025500063869509707,0.18162775966819775,0.009622442551918181
0.2062241,0.04466110009523771,0.000597796597160083,0.14320274945865732,0.014486516568795403,0.04010934574632991,0.025538274886936125,0.18191704697895045,0.009169379925489182
0.2066897,0.04486874047907383,0.0006922448600613646,0.14218842626305214,0.014508101977601693,0.0401430172345936,0.025577309113265927,0.18220507516958948,0.008723581016898992
0.2071552,0.04507433853719943,0.0007891851521806711,0.14118533229350272,0.014528601214626543,0.040175863447263024,0.025617141990231566,0.1824918586865097,0.00828504819281169
0.2076207,0.04527785404412504,0.0008885578897633264,0.1401937649668257,0.014547994284340589,0.04020795696998302,0.025657748996059177,0.18277741109984225,0.007853782189663734
0.2080862,0.04547924693946505,0.0009903038642127345,0.1392140194063548,0.014566261424953753,0.04023937197041933,0.025699105653727353,0.1830617450879039,0.007429782127328917
0.2085517,0.04567847733786054,0.0010943642549047852,0.13824638834022646,0.014583383116887547,0.04027018416339989,0.025741187539150553,0.18334487242229808,0.007013045523133125
0.2090172,0.04587550553893885,0.0012006806417570336,0.13729116199993888,0.014599340091295154,0.040300470775393,0.025783970289282466,0.1836268039536817,0.0066035683062104856
0.2094828,0.046070292037307156,0.0013091950175502264,0.13634862801922965,0.014614113338627307,0.04033031050833559,0.0258274296101345,0.1839075495982107,0.006201344832192429
0.2099483,0.04626279753257761,0.0014198497999997827,0.135419071333315,0.01462768411724174,0.04035978350282524,0.025871541284704525,0.18418711832467735,0.005806367898221283
0.2104138,0.046452982939421225,0.001532587843574867,0.13450277407853467,0.014640033962054077,0.0403889713006899,0.02591628118081072,0.18446551814235068,0.00541862875827999
0.2108793,0.046640809397647906,0.0016473524510627253,0.13360001549244527,0.01465114469322777,0.040417956806949894,0.025961625258825363,0.18474275608953117,0.005038117138829538
0.2113448,0.04682623828231012,0.0017640873848759919,0.13271107181440447,0.01466099842490075,0.040446824251187334,0.026007549579303443,0.18501883822282977,0.004664821254745662
0.2118103,0.04700923121382804,0.0018827368781007203,0.1318362161866891,0.014669577573946284,0.04047565914833858,0.026054030310501155,0.1852937696071812,0.004298727825546355
0.2122759,0.04718975006813419,0.00200324564528294,0.1309757185561889,0.014676864868765519,0.040504548258925736,0.026101043735779317,0.18556755430660019,0.003939822091901683
0.2127414,0.047367756986836165,0.002125558892951618,0.1301298455767182,0.014682843358109045,0.04053357954874336,0.02614856626088709,0.18584019537568894,0.003588087832417367
0.2132069,0.047543214387395887,0.002249622329875946,0.12929886051198683,0.014687496419924752,0.04056284214801686,0.026196574421121353,0.18611169485190152,0.003243507380683562
0.2136724,0.04771608497332449,0.0023753821770549554,0.12848302313927137,0.014690807770229094,0.04059242631004927,0.0262450448883571,0.18638205374857167,0.0029060616425802322
0.2141379,0.047886331744392135,0.002502785177437481,0.12768258965382753,0.014692761471998873,0.040622423369373696,0.026293954477944356,0.18665127204870785,0.0025757301138304616
0.2146034,0.048053918006852034,0.002631778605370556,0.1268978125740831,0.01469334194408055,0.040652925699428716,0.026343280155467188,0.18691934869955873,0.002252490897793058
0.215069,0.04821880738367791,0.002762310275774376,0.12612894064765115,0.014692533970114037,0.040684026669774755,0.026392999043360472,0.18718628160795142,0.0019363207234857648
0.2155345,0.04838096382481407,0.0028943285530420677,0.1253762187582019,0.014690322707467998,0.040715820602869074,0.026443088427380468,0.18745206763640368,0.0016271949638303996
0.216,0.04854035161743672,0.0030277823596626123,0.12463988783323189,0.014686693696183714,0.04074840273041722,0.026493525762925216,0.1877167026000106,0.001325087654111267
0.2164655,0.04869693539622516,0.0031626211845653777,0.12392018475276902,0.014681632867924566,0.040781869149318646,0.02654428868120089,0.1879801812641055,0.0010299715106382328
0.216931,0.048850680153640934,0.0032987950911848255,0.12321734225905225,0.01467512655492825,0.04081631677722377,0.02659535499523024,0.1882424973426946,0.0007418179496059045
0.2173966,0.04900155125021286,0.003436254725244035,0.12253158886722533,0.014667161498958874,0.04085184330771982,0.02664670270569924,0.18850364349766338,0.00046059710614042494
0.2178621,0.049149514424825354,0.0035749513222557874,0.12186314877708429,0.014657724860256125,0.04088854716516251,0.026698310006638037,0.18876361133875297,0.0001862778535254122
0.2183276,0.04929453580500717,0.0037148367147400176,0.12121224178591838,0.014646804226478741,0.04092652745917066,0.026750155290932248,0.189022391424303,-8.117217740139091e-05
0.2187931,0.04943658191721763,0.0038558633391565164,0.1205790832024843,0.014634387621639489,0.04096588393880049,0.02680221715566058,0.18927997326275647,-0.00034178657868917596
0.2192586,0.04957561969712679,0.003997984242551798,0.11996388376215254,0.014620463515028846,0.04100671694641668,0.026854474407254653,0.18953634531492242,-0.0005956001455612207
0.2197241,0.04971161649988573,0.004141153088919073,0.11936684954326558,0.01460502083012448,0.04104912737127676,0.02690690606647697,0.18979149499699077,-0.0008426488565564699
0.2201897,0.0498445401103831,0.004285324165270273,0.11878818188474644,0.014588048953483538,0.04109321660284571,0.02695949137321336,0.1900454086842936,-0.0010829698535338185
0.2206552,0.0499743587534835,0.004430452387419047,0.11822807730499649,0.014569537743614651,0.04113908648385735,0.027012209791076425,0.19029807171580743,-0.0013166014215472985
0.2211207,0.050101041104243356,0.004576493305473679,0.1176867274221202,0.014549477539826404,0.04118683926313867,0.02706504101181707,0.19054946839938916,-0.0015435829686002906
0.2215862,0.05022455629810003,0.0047234031090388874,0.11716431887551464,0.014527859171048972,0.04123657754821351,0.027117964959541836,0.19079958201773833,-0.0017639550052867916
0.2220517,0.05034487394103025,0.004871138632125576,0.11666103324885951,0.01450467396462551,0.0412884042577011,0.027170961794734237,0.19104839483507652,-0.0019777591243276592
0.2225172,0.05046196411967411,0.005019657357767702,0.11617704699454487,0.014479913755069771,0.0413424225735253,0.02722401191807916,0.19129588810453335,-0.0021850379800096237
0.2229828,0.05057579741142138,0.005168917422345548,0.115712531359571,0.014453570892786458,0.04139873589294988,0.0272770959740899,0.1915420420762284,-0.0023858352675346947
0.2234483,0.05068634489445716,0.005318877619614831,0.11526765231295573,0.014425638252750726,0.04145744778045471,0.027330194854538078,0.19178683600603583,-0.002580195702287433
0.2239138,0.050793578157763836,0.005469497404441155,0.11484257047468276,0.014396109243143227,0.041518661919468076,0.02738328970168728,0.19203024816501943,-0.002768164999027414
0.2243793,0.05089746931107624,0.005620736896239353,0.11443744104622501,0.014364977813937002,0.04158248206396958,0.027436361911331406,0.19227225584952617,-0.0029497898510140765
0.2248448,0.05099799099478658,0.005772556882117328,0.1140524137426761,0.014332238465432526,0.04164901198997833,0.027489393135639053,0.19251283539192665,-0.0031251179090710747
0.2253103,0.051095116389795296,0.005924918819723965,0.11368763272652271,0.014297886256737152,0.04171835544694126,0.027542365285805254,0.19275196217199103,-0.003294197760597156
0.2257759,0.05118881922730395,0.00607778483980073,0.11334323654309014,0.014261916814185172,0.04179061610903665,0.027595260534511848,0.1929896106288893,-0.003457078908530554
0.2262414,0.051279073798545814,0.006231117748436545,0.11301935805769253,0.014224326339694783,0.041865897526408395,0.027648061318197654,0.19322575427380384,-0.0036138117502738007
0.2267069,0.051365854964449904,0.006384881029025572,0.11271612439451835,0.014185111619058239,0.04194430307634691,0.027700750339139574,0.19346036570314046,-0.0037644475565858154
0.2271724,0.0514491381652339,0.006539038843927492,0.11243365687728092,0.014144270030161636,0.04202593591443251,0.027753310567345774,0.1936934166123238,-0.003909038450448028
0.2276379,0.05152889942992133,0.006693556035829927,0.11217207097166258,0.014101799551130847,0.04211089892565741,0.027805725242262134,0.1939248778101611,-0.0040476373859112446
0.2281034,0.051605115385778125,0.00684839812881266,0.11193147622958076,0.014057698768400231,0.042199294675542155,0.02785797787429346,0.19415471923375768,-0.004180298126929873
0.228569,0.051677763267663865,0.0070035313291133315,0.11171197623530296,0.014011966884700857,0.04229122536126199,0.02791005224614121,0.19438290996396676,-0.004307075226190068
0.2290345,0.05174682092729296,0.007158922525594404,0.1115136685534371,0.01396460372696507,0.04238679276279868,0.02796193241395961,0.19460941824135478,-0.004428024003938304
0.2295,0.05181226684240119,0.0073145392899110935,0.11133664467882277,0.013915609754144334,0.042486098194132904,0.028013602708332325,0.19483421148266306,-0.004543200526816791
0.2299655,0.051874080125813085,0.007470349876380055,0.11118098998834856,0.013864986064937265,0.04258924245449213,0.02806504773507187,0.19505725629774603,-0.004652661586712132
0.230431,0.051932240534405254,0.007626323221548633,0.1110467836947192,0.01381273440542478,0.04269632577966859,0.02811625237584436,0.1952785185069666,-0.004756464679623471
0.2308966,0.05198672847796131,0.007782428943464628,0.11093409880219604,0.013758857176609199,0.042807447793421737,0.028167201788622236,0.19549796315902915,-0.004854667984556404
0.2313621,0.05203752502791355,0.007938637340646796,0.11084300206433353,0.013703357441854132,0.0429227074589797,0.028217881407968003,0.1957155545492335,-0.004947330342448757
0.2318276,0.05208461192596703,0.008094919390756669,0.11077355394373359,0.01364623893422183,0.04304220303065416,0.028268276945152153,0.19593125623813237,-0.0050345112351343375
0.2322931,0.05212797159260178,0.008251246748972778,0.11072580857383926,0.013587506063704635,0.04316603200558333,0.028318374388108726,0.19614503107057701,-0.005116270764350686
0.2327586,0.052167587135448494,0.008407591746068876,0.11069981372278893,0.013527163924347134,0.043294291075617865,0.028368160001231997,0.19635684119513452,-0.005192669630796781
0.2332241,0.05220344235753319,0.008563927386198265,0.11069561075935085,0.013465218301255558,0.04342707607936459,0.028417620325017955,0.1965666480838614,-0.005263769113246618
0.2336897,0.05223552176538589,0.008720227344386766,0.11071323462095775,0.013401675677490975,0.043564481954403315,0.028466742175554494,0.19677441255241726,-0.005329631047724499
0.2341552,0.05226381057700776,0.008876465963737137,0.11075271378385998,0.013336543240842673,0.0437066026896918,0.028515512643864496,0.19698009478050216,-0.005390317806747804
0.2346207,0.05228829472969134,0.009032618252348015,0.11081407023541437,0.013269828890478196,0.04385353127817485,0.028563919095106298,0.1971836543326005,-0.005445892278642943
0.2350862,0.05230896088768758,0.009188659879950567,0.11089731944852625,0.013201541243466286,0.04400535966961345,0.028611949167636458,0.1973850501790145,-0.005496417846940114
0.2355517,0.052325796449713836,0.009344567174266181,0.11100247035826011,0.01313168964116914,0.044162178723650185,0.028659590771939948,0.19758424071717062,-0.0055419583698524625
0.2360172,0.05233878955629713,0.00950031711708857,0.111129525340634,0.013060284155500193,0.044324078163127126,0.02870683208943315,0.19778118379318307,-0.005582578159845095
0.2364828,0.05234792909694683,0.009655887340093742,0.11127848019361226,0.012987335595043758,0.04449114652767217,0.028753661571145152,0.19797583672365993,-0.005618341963299414
0.2369483,0.05235320471715163,0.00981125612038133,0.11144932412030986,0.012912855511032916,0.0446634711275699,0.02880006793628275,0.19816815631773774,-0.005649314940278086
0.2374138,0.052354606825195805,0.009966402375750775,0.11164203971442177,0.012836856203181993,0.04484113799793246,0.02884604017068452,0.1983580988993333,-0.005675562644395872
0.2378793,0.052352126598789704,0.010121305659715831,0.11185660294788974,0.012759350725370171,0.045024231853186276,0.028891567525169085,0.1985456203296006,-0.005697151002801386
0.2383448,0.05234575599150952,0.01027594615626089,0.11209298316081792,0.01268035289117274,0.045212836041890386,0.028936639513782798,0.19873067602958228,-0.005714146296274726
0.2388103,0.05233548773904137,0.010430304674342533,0.11235114305364872,0.012599877279236517,0.045407032501902096,0.028981245911951763,0.19891322100304717,-0.005726615139445738
0.2392759,0.0523213153652242,0.010584362642139746,0.1126310386816089,0.012517939238495989,0.0456069017159057,0.029025376754543183,0.19909320985950485,-0.005734624461137575
0.2397414,0.05230323318788602,0.010738102101056317,0.11293261945143551,0.012434554893226741,0.045812522667320124,0.02906902233384111,0.1992705968373893,-0.005738241484840084
0.2402069,0.052281236324467566,0.010891505699478958,0.11325582812039046,0.012349741147932594,0.04602397279660174,0.029112173197441468,0.1994453358274029,-0.005737533709317444
0.2406724,0.05225532069742741,0.011044556686294879,0.11360060079757106,0.012263515692062884,0.04624132795795855,0.029154820146071393,0.1996173803960111,-0.005732568889354322
0.2411379,0.052225483039422,0.01119723890417268,0.11396686694752413,0.012175897004556261,0.04646466237649235,0.029196954231337773,0.19978668380907602,-0.005723415016644682
0.2416034,0.0521917208982542,0.011349536782610699,0.11435454939616967,0.012086904358207353,0.04669404860578538,0.029238566753409658,0.19995319905561726,-0.005710140300827194
0.242069,0.05215403264158353,0.011501435330757275,0.11476356433903968,0.011996557823852665,0.04692955748594786,0.02927964925863911,0.20011687887168572,-0.005692813150671054
0.2425345,0.05211241746139135,0.011652920130007627,0.11519382135183659,0.011904878274372055,0.04717125810214256,0.029320193537124832,0.20027767576433766,-0.005671502155415847
0.243,0.05206687537819407,0.011803977326382458,0.11564522340331514,0.011811887388502133,0.047419217743602436,0.029360191620222853,0.20043554203569464,-0.0056462760662689526
0.2434655,0.05201740724499775,0.011954593622693742,0.11611766687049085,0.011717607654458036,0.047673501863156977,0.02939963577800841,0.20059042980707548,-0.0056172037780639235
0.243931,0.05196401475098745,0.012104756270503492,0.11661104155617757,0.011622062373360106,0.04793417403728273,0.029438518516693064,0.200742291043186,-0.005584354311083104
0.2443966,0.05190670042494528,0.012254453061881623,0.11712523070885605,0.01152527566246206,0.048201295926693054,0.02947683257600092,0.20089107757635247,-0.005547796793047717
0.2448621,0.05184546763839137,0.012403672320969224,0.11766011104487467,0.011427272458177441,0.04847492723748188,0.029514570926507822,0.20103674113078535,-0.00550760044127855
0.2453276,0.05178032060844266,0.012552402895353858,0.11821555277298283,0.011328078518901238,0.04875512568283601,0.029551726766946895,0.20117923334685928,-0.005463834545030279
0.2457931,0.05171126440038533,0.012700634147263527,0.11879141962119678,0.011227720427623782,0.049041946945329984,0.02958829352148391,0.201318505805396,-0.005416568448002397
0.2462586,0.05163830492995703,0.012848355944586122,0.11938756886599676,0.011126225594334118,0.04933544463981724,0.0296242648369655,0.20145451005193707,-0.005365871531029652
0.2467241,0.05156144896533605,0.012995558651721173,0.1200038513638536,0.011023622258210236,0.04963567027693096,0.029659634580143326,0.20158719762099153,-0.005311813194954832
0.2471897,0.0514807041288348,0.01314223312027064,0.12064011158508184,0.010919939489593545,0.04994267322720789,0.029694396834877113,0.20171652006024338,-0.005254462843686697
0.2476552,0.051396078898295616,0.013288370679575539,0.12129618765001553,0.01081520719174513,0.05025650068584802,0.029728545899319628,0.20184242895470145,-0.005193889867445736
0.2481207,0.05130758260818714,0.01343396312710505,0.12197191136750188,0.010709456102381299,0.050577197638122684,0.02976207628308677,0.20196487595077448,-0.005130163626200371
0.2485862,0.051215225450399575,0.01357900271870482,0.12266710827570726,0.010602717794985898,0.050904806825443634,0.029794982704416106,0.20208381278025203,-0.005063353433296106
0.2490517,0.051119018474737155,0.013723482158711041,0.12338159768522887,0.010495024679896936,0.05123936871210484,0.029827260087317207,0.20219919128417302,-0.0049935285392799815
0.2495172,0.051018973589105655,0.013867394589937021,0.12411519272450486,0.010386410005164916,0.05158092145270909,0.02985890355871713,0.20231096343656205,-0.004920758115922543
0.2499828,0.05091510355939314,0.01401073358353877,0.1248677003875146,0.010276907857180407,0.05192950086029085,0.02988990844560405,0.20241908136801645,-0.004845111240439393
0.2504483,0.05080742200904128,0.01415349312876628,0.12563892158376064,0.010166553161068351,0.05228514037514691,0.02992027027217206,0.2025234973891271,-0.004766656879914249
0.2509138,0.050695943418304905,0.014295667622607065,0.12642865119052235,0.010055381680846685,0.052647871034386014,0.029949984756970104,0.20262416401371838,-0.004685463875925313
0.2513793,0.050580683123197356,0.014437251859328572,0.12723667810737124,0.009943430019347029,0.053017721442208815,0.029979047810057686,0.20272103398189487,-0.004601600929376653
0.2518448,0.05046165731411921,0.014578241019926021,0.12806278531293624,0.009830735617895289,0.053394717740928785,0.030007455530170188,0.202814060282881,-0.004515136585536234
0.2523103,0.05033888303416806,0.014718630661482176,0.12890674992390666,0.009717336755750218,0.05377888358274466,0.030035204201896485,0.20290319617764155,-0.004426139219282149
0.2527759,0.050212378177127204,0.014858416706445521,0.12976834325625963,0.009603272549298145,0.054170240102274746,0.03006229029287154,0.20298839522126816,-0.004334677020558535
0.2532414,0.050082161485131026,0.014997595431833264,0.13064733088869787,0.009488582951002274,0.0545688058898631,0.030088710450986794,0.20306961128511658,-0.004240817980042638
0.2537069,0.049948252546004754,0.015136163458365664,0.13154347272828248,0.009373308748105087,0.054974596965667276,0.030114461501620813,0.20314679857867962,-0.004144629875024374
0.2541724,0.04981067179027626,0.015274117739538158,0.13245652307824543,0.009257491561082477,0.05538762675453744,0.03013954044489266,0.20321991167118045,-0.004046180255499702
0.2546379,0.049669440487857736,0.015411455550637764,0.1333862307079649,0.00914117384184836,0.055807906061696784,0.03016394445294021,0.20328890551287154,-0.003945536430479089
0.2551034,0.04952458074439496,0.015548174477710149,0.13433233892508625,0.009024398871708476,0.056235443049233474,0.030187670867225458,0.20335373545602606,-0.0038427654545122626
0.255569,0.04937611549728231,0.01568427240648374,0.13529458564977034,0.008907210759062128,0.056670243213414656,0.030210717195868597,0.2034143572756075,-0.0037379341144304326
0.2560345,0.04922406851134193,0.015819747511257125,0.13627270349105028,0.008789654436850607,0.05711230936283281,0.030233081111012604,0.2034707271896032,-0.0036311089163070594
0.2565,0.049068464374165933,0.01595459824375588,0.13726641982527663,0.008671775659751009,0.05756164159739498,0.03025476044621976,0.20352280187900573,-0.0035223560726381727
0.2569655,0.048909328491121264,0.01608882332196497,0.13827545687663023,0.008553621001114162,0.05801823728816466,0.03027575319390139,0.20357053850742554,-0.0034117414897431417
0.257431,0.04874668708001728,0.01622242171894272,0.13929953179968133,0.008435237849645415,0.05848209105806636,0.030296057502781797,0.2036138947403178,-0.003299330755386706
0.2578966,0.048580567165436836,0.016355392651622343,0.1403383567639722,0.008316674405827037,0.05895319476346193,0.030315671675397334,0.2036528287638058,-0.0031851891266229367
0.2583621,0.04841099657273211,0.016487735569607077,0.14139163904060018,0.008197979678081061,0.059431537476608315,0.030334594165631272,0.20368729930308502,-0.0030693815178616884
0.2588276,0.04823800392168674,0.01661945014396476,0.14245908109077707,0.00807920347867141,0.059917105469005284,0.03035282357628493,0.20371726564039275,-0.0029519724891579955
0.2592931,0.0480616186198458,0.01675053625602783,0.14354038065633917,0.007960396419344167,0.06040988219564217,0.030370358656685567,0.20374268763253028,-0.0028330262347247338
0.2597586,0.04788187085551557,0.016880993986204573,0.1446352308521822,0.00784160990670491,0.06090984828015181,0.030387198300331274,0.2037635257279266,-0.00271260657166876
0.2602241,0.047698791590435254,0.0170108236028075,0.14574332026059336,0.007722896137332002,0.06141698150088027,0.03040334154257314,0.20377974098323579,-0.0025907769289506533
0.2606897,0.04751241255212272,0.017140025550904547,0.14686433302745242,0.007604308092624722,0.06193125677788051,0.030418787558334836,0.20379129507946253,-0.002467600336568083
0.2611552,0.04732276622589732,0.01726860044119876,0.1479979489602718,0.007485899533385148,0.062452646160838794,0.030433535659869893,0.20379815033761114,-0.0023431394149627657
0.2616207,0.04712988584658305,0.017396549038942014,0.14914384362804528,0.007367724994132614,0.06298111881794288,0.03044758529455702,0.20380026973385368,-0.0022174563646509197
0.2620862,0.04693380538989647,0.017523872252888234,0.1503016884628728,0.007249839777149604,0.06351664102570088,0.030460936042734144,0.2037976169142125,-0.0020906129560770855
0.2625517,0.04673455956352451,0.01765057112429142,0.15147115086332866,0.007132299946257932,0.0640591761597201,0.03047358761557191,0.20379015620875154,-0.0019626705196911457
0.2630172,0.046532183797898544,0.017776646815953766,0.15265189429953832,0.007015162320324009,0.06460868468645452,0.03048553985298761,0.20377785264526982,-0.0018336899362483411
0.2634828,0.046326714236671354,0.017902100601329015,0.15384357841992877,0.006898484466492043,0.06516512415592987,0.030496792721600424,0.20376067196249187,-0.0017037316273320348
0.2639483,0.04611818772690413,0.01802693385368625,0.15504585915961533,0.006782324693143999,0.0657284491954542,0.0305073463127287,0.2037385806227499,-0.001572855546098933
0.2644138,0.045906641808970715,0.018151148035339106,0.15625838885038765,0.0066667420425851704,0.06629861150432269,0.03051720084042993,0.20371154582415263,-0.001441121168246399
0.2648793,0.04569211470618616,0.018274744686945336,0.15748081633225616,0.006551796283454213,0.06687555984952524,0.030526356639583824,0.20367953551223536,-0.0013085874832014194
0.2653448,0.04547464531416648,0.018397725416881533,0.15871278706651953,0.0064375479028565144,0.06745924006246633,0.030534814164018615,0.20364251839108566,-0.001175312985530665
0.2658103,0.0452542731899267,0.018520091890697678,0.15995394325031229,0.0063240580982198225,0.06804959503670707,0.030542573984680542,0.20360046393393902,-0.001041355666570974
0.2662759,0.04503103854072413,0.018641845820656,0.16120392393259161,0.006211388768871129,0.06864656472674059,0.03054963678784648,0.20355334239324055,-0.000906773006279447
0.2667414,0.04480498221265432,0.018762988955358644,0.1624623651315204,0.006099602507333922,0.06925008614781188,0.03055600337337935,0.20350112481017155,-0.0007716219653022169
0.2672069,0.04457614567900711,0.018883523069468493,0.16372889995320372,0.005988762590345008,0.06986009337679351,0.03056167465302572,0.2034437830236427,-0.0006359589772608372
0.2676724,0.044344571028390484,0.0190034499535273,0.16500315871173424,0.005878932969590249,0.07047651755412868,0.030566651648755137,0.20338128967875824,-0.0004998399412551245
0.2681379,0.044110300952630126,0.01912277140387542,0.16628476905050185,0.005770178262158687,0.07109928688685235,0.03057093549114052,0.20331361823475863,-0.00036332021458120836
0.2686034,0.0438733787344528,0.019241489212677057,0.16757335606472154,0.005662563740714561,0.07172832665270129,0.03057452741777919,0.20324074297244976,-0.00022645460566347048
0.269069,0.04363384823496189,0.019359605158055026,0.16886854242513302,0.00555615532338684,0.07236355920532349,0.030577428771754116,0.20316263900113035,-8.929736719899755e-05
0.2695345,0.04339175388091346,0.019477120994338848,0.17016994850282524,0.00545101956337596,0.07300490398059734,0.03057964100013515,0.20307928226502925,4.809781048687363e-05
0.27,0.04314714065180132,0.019594038442429875,0.1714771924951374,0.005347223638277475,0.07365227750407026,0.030581165652520045,0.20299064954926566,0.00018567780587537265
0.2704655,0.04290005406675965,0.01971035918028704,0.17278989055258853,0.005244835339122392,0.07430559339952615,0.030582004379615068,0.20289671848534443,0.00032339007248095175
0.270931,0.04265054017129163,0.019826084833536643,0.17410765690678678,0.00514392305913397,0.07496476239869028,0.030582158931855206,0.20279746755619873,0.00046118264487127593
0.2713966,0.0423986455238324,0.019941216966209582,0.1754301039992682,0.005044555782200717,0.07562969235207963,0.03058163115806391,0.20269287610079068,0.0005990041444820554
0.2718621,0.042144417182154746,0.02005575707160917,0.17675684261121466,0.0049468030710653425,0.07630028824100635,0.030580423004152396,0.2025829243182798,0.0007368037852282423
0.2723276,0.041887902689625556,0.02016970656331277,0.17808748199399968,0.004850735055229406,0.07697645219074092,0.030578536511858333,0.2024675932717685,0.0008745313789131322
0.2727931,0.041629150061321424,0.020283066766310285,0.1794216300005094,0.004756422418573422,0.07765808348484149,0.030575973817523656,0.20234686489163317,0.0010121373404369364
0.2732586,0.04136820777001129,0.020395838908282476,0.18075889321718494,0.004663936386692271,0.07834507858065463,0.030572737150911123,0.20222072197844906,0.0011495726928064096
0.2737241,0.04110512473201425,0.02050802411102201,0.18209887709673198,0.004573348713945846,0.0790373311259927,0.03056882883405912,0.20208914820551904,0.0012867890719471396
0.2741897,0.0408399502929406,0.02061962338199991,0.18344118609144033,0.004484731670224952,0.07973473197699199,0.030564251280174193,0.2019521281210164,0.0014237387313201196
0.2746552,0.040572734213324184,0.020730637606079946,0.18478542378705712,0.004398158027432548,0.08043716921715552,0.030559006992560672,0.2018096471497533,0.0015603745463442442
0.2751207,0.04030352665415414,0.02084106753738346,0.18613119303715475,0.004313701045680507,0.0811445281775839,0.030553098563586758,0.2016616915945865,0.0016966500186263841
0.2755862,0.0400323781623143,0.02095091379130693,0.18747809609793417,0.004231434459202205,0.081856691458397,0.03054652867368616,0.2015082486374717,0.0018325192800007113
0.2760517,0.03975933965593834,0.0210601768366947,0.18882573476340375,0.004151432461981394,0.0825735389513489,0.030539300090394354,0.20134930634017983,0.0019679370963789572
0.2765172,0.039484462409689294,0.02116885698816916,0.1901737105008721,0.004073769693098049,0.08329494786363828,0.030531415667418287,0.20118485364468655,0.0021028588714132887
0.2769828,0.03920779803997206,0.021276954398620984,0.19152162458669272,0.003998521221792076,0.0840207927429158,0.0305228783437381,0.20101488037324633,0.0022372406499734975
0.2774483,0.03892939849008792,0.021384469051861785,0.19286907824219685,0.003925762532245956,0.08475094550349008,0.03051369114273936,0.20083937722816253,0.0023710391214402083
0.2779138,0.038649316015340184,0.021491400755441814,0.1942156727697495,0.003855569508087542,0.08548527545373293,0.03050385717137401,0.20065833579126288,0.0025042116228158225
0.2783793,0.0383676031681002,0.021597749133635137,0.19556100968886236,0.00378801841661434,0.08622364932468417,0.030493379619348157,0.2004717485230906,0.0026367161416549286
0.2788448,0.03808431278284285,0.021703513620594764,0.19690469087229523,0.003723185892740735,0.08696593129985633,0.030482261758334676,0.20027960876181994,0.002768511318815925
0.2793103,0.03779949796116066,0.021808693453680188,0.19824631868207787,0.0036611489226698207,0.08771198304623849,0.03047050694120883,0.20008191072190304,0.0028995564510356157
0.2797759,0.037513212056765284,0.02191328766695997,0.19958549610538162,0.0036019848272916947,0.08846166374649825,0.030458118601305064,0.1998786494924546,0.0030298114933285667
0.2802414,0.03722550866048495,0.02201729508489188,0.2009218268901704,0.0035457712453103116,0.08921483013238021,0.030445100251693443,0.19966982103537867,0.00315923706121303
0.2807069,0.03693644158526631,0.02212071431618328,0.2022549156805599,0.0034925861161011536,0.08997133651929895,0.030431455484474203,0.1994554221832415,0.003287794432765284
0.2811724,0.036646064851188716,0.022223543747834366,0.20358436815181183,0.0034425076623021073,0.090731034842124,0.030417187970089195,0.19923545063689274,0.0034154455505042776
0.2816379,0.036354432670498635,0.02232578153936687,0.20490979114489036,0.003395614372139987,0.09149377469215395,0.030402301456649305,0.19900990496283666,0.0035421530231085274
0.2821034,0.03606159943267164,0.022427425617240915,0.20623079280050466,0.003351984981495187,0.09225940335527648,0.03038679976927727,0.19877878459035536,0.003667880126967272
0.282569,0.03576761968950931,0.022528473669462486,0.207546982692561,0.0033116984557069844,0.09302776585131023,0.030370686809465478,0.19854208980838547,0.0037925908075679996
0.2830345,0.035472548140277796,0.022628923140384106,0.20885797196094635,0.0032748339711221367,0.0937987049745239,0.030353966554448622,0.19829982176215039,0.003916249680722544
0.2835,0.03517643961689482,0.022728771225701057,0.21016337344356345,0.003241470896389542,0.09457206133532782,0.030336643056591096,0.19805198244955244,0.004038822033634037
0.2839655,0.03487934906917144,0.022828014867645446,0.2114628018075349,0.0032116887735039513,0.09534767340313202,0.03031872044278892,0.1977985747173309,0.004160273825807044
0.284431,0.03458133155011496,0.0229266507503804,0.21275587367949422,0.0031855672986019616,0.09612537755036424,0.030300202913885913,0.19753960225699357,0.004280571689803293
0.2848966,0.034282442201298786,0.023024675295596504,0.21404220777487862,0.0031631863025137416,0.09690500809764079,0.030281094744103707,0.19727506960053198,0.004399682931845366
0.2853621,0.03398273623830522,0.023122084658312708,0.21532142502613674,0.0031446257310741572,0.09768639736008207,0.030261400280485153,0.19700498211593012,0.00451757553227082
0.2858276,0.03368226893624676,0.023218874722883847,0.21659314870976365,0.0031299656251971013,0.09846937569476417,0.030241123942350685,0.1967293460024769,0.004634218145839199
0.2862931,0.033381095615371364,0.023315041099216848,0.21785700457207496,0.0031192861007169627,0.09925377154929688,0.03022027022076715,0.1964481682858933,0.004749580101894474
0.2867586,0.03307927162675712,0.023410579119197597,0.2191126209536309,0.00311266732800126,0.10003941151151827,0.030198843678028657,0.19616145681328404,0.004863631404385512
0.2872241,0.03277685233810143,0.023505483833330346,0.22035962891222197,0.0031101895113386066,0.10082612036029474,0.03017684894714874,0.19586922024792353,0.00497634273174718
0.2876897,0.03247389311961,0.02359975000759147,0.22159766234433032,0.003111932868106345,0.10161372111741512,0.030154290731363175,0.19557146806388437,0.005087685436644711
0.2881552,0.032170449329990934,0.02369337212049913,0.22282635810498555,0.0031179776077223955,0.10240203510056639,0.03013117380364259,0.19526821054051713,0.005197631545583973
0.2886207,0.031866576302559305,0.023786344360400512,0.22404535612593696,0.003128403910386048,0.10319088197737818,0.030107503006213867,0.1949594587567867,0.005306153758390309
0.2890862,0.031562329331457514,0.02387866062297812,0.22525429953206874,0.003143291905612627,0.10398007982052185,0.03008328325008934,0.19464522458547243,0.005413225447558607
0.2895517,0.03125776365799694,0.02397031450897663,0.22645283475598985,0.003162721650567121,0.10476944516384962,0.030058519514602745,0.19432552068723613,0.005518820657477366
0.2900172,0.030952934457126335,0.024061299322151872,0.2276406116507316,0.0031867731082020254,0.10555879305955765,0.03003321684695073,0.1940003605045626,0.005622914103529534
0.2904828,0.03064789682403234,0.024151608067443375,0.22881728360049003,0.0032155261252047773,0.10634793713635714,0.03000738036173877,0.19366975825557542,0.005725481171072984
0.2909483,0.03034270576087743,0.02424123344937202,0.22998250762935063,0.003249060409760254,0.10713668965863596,0.02998101524053035,0.1933337289277308,0.00582649791430351
0.2914138,0.03003741616368045,0.02433016787066423,0.23113594450793623,0.0032874555091338574,0.10792486158659316,0.02995412673139812,0.19299228827139195,0.005925941055003238
0.2918793,0.029732082809344675,0.024418403431104154,0.2322772588579208,0.0033307907870807245,0.10871226263732807,0.029926720148475888,0.1926454527932868,0.0060237879811773564
0.2923448,0.029426760342838237,0.02450593192661504,0.23340611925435376,0.0033791454010866245,0.10949870134686521,0.02989880087151024,0.19229323974985132,0.006120016745582049
0.2928103,0.02912150326453134,0.024592744848571067,0.23452219832574228,0.00343259827944611,0.11028398513309579,0.029870374345410497,0.19193566714046129,0.006214606064146475
0.2932759,0.028816365917694747,0.024678833383340527,0.23562517285184018,0.0034912280981834994,0.11106792035961637,0.029841446079795508,0.19157275370055538,0.0063075353142916495
0.2937414,0.028511402476163558,0.024764188412061197,0.23671472385909212,0.003555113257822269,0.11185031240044407,0.029812021648535702,0.19120451889465412,0.0063987845331490295
0.2942069,0.028206666932170162,0.02484880051064861,0.2377905367136836,0.003624331860008449,0.11263096570558816,0.029782106689288643,0.1908309829092789,0.006488334415681594
0.2946724,0.027902213084349918,0.02493265995003783,0.2388523012121469,0.003698961683993575,0.11340968386745666,0.029751706903026084,0.19045216664577885,0.00657616631271018
0.2951379,0.027598094525922965,0.02501575669665934,0.23989971166947718,0.0037790801629827503,0.1141862696880767,0.029720828053550655,0.1900680917130735,0.006662262228847788
0.2956034,0.027294364633055283,0.02509808041314965,0.24093246700472,0.0038647643603533528,0.11496052524710575,0.02968947596700011,0.1896787804203224,0.006746604820344541
0.296069,0.026991076553401893,0.025179620459297242,0.24195027082399617,0.0039560909457499235,0.11573225197061145,0.029657656531337378,0.18928425576953212,0.006829177392845911
0.2965345,0.026688283194834905,0.025260365893224678,0.24295283150094057,0.004053136171060753,0.11650125070059632,0.029625375695824872,0.18888454144811406,0.006909963899066793
0.297,0.026386037214359042,0.025340305472807655,0.24393986225453793,0.004155975846281687,0.1172673217652433,0.029592639470481925,0.1884796618214063,0.006988948936383976
0.2974655,0.02608439100721693,0.0254194276573319,0.2449110812243434,0.00426468531527267,0.1180302650498573,0.029559453925524677,0.1880696419251725,0.007066117744349491
0.297931,0.025783396696186445,0.0254977206093887,0.24586621154307872,0.004379339431412516,0.11878988006847738,0.02952582519078782,0.18765450745809212,0.007141456202127312
0.2983966,0.025483106121072067,0.02557517219700972,0.24680498140659504,0.004500012533157418,0.11954596603613363,0.029491759455127907,0.1872342847742537,0.007214950825855771
0.2988621,0.02518357082839216,0.02565176999604169,0.2477271241411947,0.00462677841950868,0.12029832194172183,0.029457262965807973,0.18680900087566446,0.007286588765938073
0.2993276,0.024884842061263814,0.025727501292761305,0.24863237826830323,0.004759710325395203,0.1210467466214682,0.029422342027863164,0.18637868340478758,0.007356357804263206
0.2997931,0.024586970749486712,0.025802353086730522,0.24952048756648418,0.004898880896976216,0.12179103883295578,0.029387003003446915,0.18594336063711767,0.007424246351359517
0.3002586,0.024290007499827373,0.02587631209389231,0.2503912011307876,0.005044362166869776,0.12253099732968309,0.029351252311157205,0.18550306147380466,0.0074902434434831605
0.3007241,0.02399400258650488,0.025949364749906643,0.25124427342942457,0.0051962255293125405,0.12326642093612442,0.029315096425342434,0.18505781543433572,0.007554338739643634
0.3011897,0.02369900594187906,0.026021497213726385,0.25207946435775913,0.005354541715256291,0.12399710862326033,0.029278541875386553,0.1846076526492824,0.007616522518568529
0.3016552,0.02340506714734183,0.026092695371412396,0.2528965392896122,0.0055193807674067,0.12472285958454576,0.029241595244973252,0.18415260385312032,0.007676785675609645
0.3021207,0.023112235424412254,0.026162944840187125,0.2536952691258753,0.005690812015209798,0.12544347331228226,0.0292042631713292,0.18369270037712668,0.007735119719592572
0.3025862,0.022820559626035637,0.02623223097272561,0.2544754303404381,0.0058689040497916034,0.12615874967435942,0.0291665523444465,0.1832279741423594,0.007791516769611816
0.3030517,0.022530088228086827,0.02630053886168269,0.25523680502343954,0.006053724698856332,0.12686848899133032,0.02912846950628458,0.18275845765272128,0.007845969551773534
0.3035172,0.02224086932107762,0.026367853344454902,0.25597918092185884,0.006245341001548628,0.12757249211378435,0.029090021449951695,0.18228418398811166,0.007898471395887901
0.3039828,0.02195295060206807,0.026434159008175466,0.2567023514774679,0.006443819183285227,0.12827056049997962,0.029051215018866136,0.18180518679766883,0.007949016232113096
0.3044483,0.02166637936678127,0.02649944019494033,0.25740611586217127,0.006649224630561502,0.12896249629369644,0.029012057105897313,0.18132150029310695,0.007997598587552841
0.3049138,0.021381202501921083,0.026563681007263328,0.2580902790107626,0.006861621865738292,0.12964810240227212,0.028972554652486573,0.1808331592421522,0.008044213582809424
0.3053793,0.02109746647769236,0.026626865313758047,0.25875465165112754,0.007081074521814469,0.13032718257477646,0.028932714647747673,0.18034019896208314,0.008088856928494046
0.3058448,0.02081521734052307,0.026688976755043985,0.2593990503319234,0.0073076453171906615,0.13099954148028567,0.028892544127546826,0.1798426553133811,0.008131524921696342
0.3063103,0.020534500705987953,0.026749998749874323,0.260023297447768,0.007541396030429587,0.13166498478621202,0.028852050173562165,0.17934056469349585,0.008172214442414817
0.3067759,0.020255361751933276,0.026809914501482523,0.26062722126196936,0.007782387475018405,0.1323233192366453,0.028811239912322314,0.17883396403073218,0.008210922949949963
0.3072414,0.0199778452118023,0.026868707004144735,0.26121065592683224,0.008030679474138557,0.13297435273066058,0.028770120514223778,0.1783228907782604,0.008247648479261736
0.3077069,0.019701995368161078,0.026926359049954784,0.26177344150157766,0.008286330835448542,0.13361789440054636,0.028728699192526713,0.177807382908256,0.008282389637293112
0.3081724,0.019427856046424056,0.026982853235808325,0.26231542396791463,0.00854939932588506,0.1342537546899056,0.028686983202328615,0.17728747890617108,0.008315145599261423
0.3086379,0.01915547060877894,0.02703817197059267,0.2628364552433012,0.008819941646487962,0.13488174543158066,0.028644979839515416,0.17676321776514148,0.008345916104919202
0.3091034,0.018884881948310103,0.02709229748257861,0.26333639319193436,0.009098013407254394,0.13550167992535336,0.028602696439689667,0.1762346389805337,0.008374701454786282
0.309569,0.01861613248331972,0.027145211827010393,0.26381510163350685,0.009383669102027486,0.13611337301536933,0.0285601403770756,0.17570178254463514,0.008401502506354916
0.3100345,0.018349264151845807,0.027196896893889745,0.2642724503497663,0.00967696208342494,0.1367166411672351,0.028517319063401204,0.17516468894149143,0.008426320670269645
0.3105,0.01808431840637609,0.02724733441594978,0.2647083150889129,0.009977944537812911,0.13731130254473534,0.028474239946757757,0.17462339914189393,0.008449157906483625
0.3109655,0.01782133620875676,0.027296505976814364,0.2651225775678696,0.010286667460330622,0.13789717708611676,0.028430910510437515,0.1740779545985202,0.00847001672039313
0.311431,0.017560358025294858,0.027344393019338203,0.26551512547245787,0.010603180629971334,0.13847408657988403,0.028387338271750318,0.17352839724123037,0.008488900158951868
0.3118966,0.017301423822053102,0.027390976854122975,0.26588585245550994,0.010927532584725477,0.13904185474005298,0.028343530780820105,0.17297476947251963,0.008505811806766843
0.3123621,0.01704457306033565,0.027436238668204625,0.26623465813294983,0.011259770596791976,0.13960030728080453,0.028299495619362208,0.1724171141631284,0.008520755782177385
0.3128276,0.016789844692363352,0.027480159533906777,0.2665614480778725,0.011599940647864146,0.14014927199048163,0.028255240399442508,0.17185547464780862,0.008533736733319077
0.3132931,0.016537277157136782,0.027522720417855057,0.2668661338126541,0.0119480874044968,0.14068857880487207,0.02821077276221941,0.1712898947212447,0.008544759834174196
0.3137586,0.016286908376485294,0.027563902190146924,0.2671486327991262,0.01230425419356163,0.14121805987971744,0.02816610037666977,0.17072041863412638,0.008553830780610243
0.3142241,0.0160387757513002,0.027603685633671524,0.2674088684268509,0.012668482977798334,0.14173754966238877,0.028121230938299987,0.17014709108936857,0.008560955786408172
0.3146897,0.01579291615795015,0.027642051453573884,0.26764676999953624,0.013040814331469414,0.1422468849626677,0.02807617216784339,0.16956995723847357,0.008566141579281759
0.3151552,0.015549365944876615,0.0276789802868577,0.26786227271963287,0.013421287416127074,0.1427459050225727,0.028030931809945266,0.16898906267802907,0.008569395396889622
0.3156207,0.015308160929367482,0.027714452712121064,0.26805531767115576,0.013809939956501135,0.14323445158516815,0.027985517631836855,0.16840445344633423,0.008570724982841284
0.3160862,0.015069336394506543,0.027748449259419505,0.26822585180077685,0.014206808216517307,0.1437123689622947,0.02793993742199957,0.1678161760201463,0.00857013858269866
0.3165517,0.014832927086296854,0.02778095042025066,0.2683738278972348,0.014611926975455583,0.14417950410115785,0.02789419898882057,0.16722427731154182,0.008567644939974278
0.3170172,0.014598967210955814,0.027811936657654947,0.2684992045691089,0.01502532950425879,0.14463570664971187,0.027848310159240757,0.16662880466488564,0.008563253292127548
0.3174828,0.014367490432379898,0.0278413884164264,0.2686019462210048,0.015447047542001506,0.1450808290207754,0.027802278777396147,0.16602980585390414,0.008556973366560321
0.3179483,0.014138529869777,0.02786928613342774,0.2686820230281977,0.015877111272529748,0.14551472645481697,0.027756112703253254,0.1654273290788581,0.008548815376613011
0.3184138,0.013912118095464325,0.02789561024800358,0.26873941090977843,0.01631554930128178,0.14593725708135086,0.0277098198112391,0.16482142296381183,0.008538790017562465
0.3188793,0.013688287132829791,0.027920341212485534,0.2687740915003438,0.016762388632300437,0.14634828197888816,0.027663407988866455,0.16421213655399544,0.008526908462622716
0.3193448,0.013467068454454908,0.02794345950278287,0.2687860521202736,0.017217654645447302,0.1467476652333932,0.02761688513535493,0.16359951931325725,0.008513182358949736
0.3198103,0.013248492980397023,0.02796494562905226,0.2687752857446333,0.017681371073828923,0.14713527399520107,0.02757025916024903,0.16298362112160347,0.008497623823651195
0.3202759,0.013032591076628887,0.027984780146440076,0.2687417909707409,0.018153559981445293,0.1475109785343557,0.027523537982034472,0.1623644922728212,0.008480245439802239
0.3207414,0.012819392553633395,0.0280029436658909,0.2686855719844357,0.018634241741070576,0.1478746522943314,0.027476729526754465,0.16174218347218197,0.008461060252468162
0.3212069,0.012608926665151343,0.028019416865015953,0.26860663852508315,0.01912343501237613,0.14822617194410104,0.027429841726627952,0.16111674583422125,0.008440081764734885
