Time,Rectus Femoris right,Rectus Femoris left,Hamstrings right,Hamstrings left,TibilaisÂ Anterior right,TibilaisÂ Anterior left,Gastrocnemius right,Gastrocnemius left
0.0,0.03862165856278283,0.0019173600716601185,0.0017127635200039197,-0.0019309643190954819,-0.0021234690263635435,0.0034018270912367764,-0.0007826644549023434,0.015345520354052079
0.0004655,0.03893966589965164,0.0023074777505628667,0.0017231409309067332,-0.0017581778800795957,-0.0019863949704189456,0.003698471874691553,-0.0006096478811973469,0.015941961210543615
0.000931,0.039257217583403066,0.0026984558921768383,0.0017335322092625414,-0.001585145339768802,-0.001848013596319437,0.003996760079954223,-0.00043620676516948904,0.01653984375514746
0.0013966,0.03957426273518166,0.0030902549942063862,0.00174393650923687,-0.0014118849565821932,-0.0017083312745159705,0.004296670238182802,-0.00026235708687338474,0.017139099379433396
0.0018621,0.03989075047548806,0.0034828354329210676,0.001754353000260233,-0.0012384149960609186,-0.0015673546580122547,0.004598180635864611,-8.811484437623617e-05,0.017739659169718244
0.0023276,0.04020662994009211,0.0038761574736704716,0.0017647808678042701,-0.0010647537252258675,-0.001425090683283088,0.004901269320765732,8.650395152745203e-05,0.018341453927607786
0.0027931,0.04052185029594306,0.004270181281369212,0.0017752193141625462,-0.000890919406959174,-0.0012815465711557502,0.0052059141079342655,0.0002614832825963713,0.018944414190609438
0.0032586,0.04083636075706266,0.004664866930943642,0.0017856675592355993,-0.0007169302944146768,-0.0011367298276548012,0.0055120925857525494,0.0004368071284145417,0.01954847025279726
0.0037241,0.041150110600406624,0.005060174417732227,0.0017961248413198487,-0.0005428046254621374,-0.0009906482448105408,0.005819782122033535,0.000612459471651546,0.020153552185511837
0.0041897,0.04146304918168063,0.005456063667831948,0.0018065904178999925,-0.0003685606171695616,-0.0008433099014312527,0.0061289598701565265,0.0007884243033074139,0.020759589858078666
0.0046552,0.04177512595109662,0.00585249454838351,0.0018170635664445443,-0.00019421646032745387,-0.0006947231638392311,0.006439602775237523,0.000964685627938825,0.02136651295852971
0.0051207,0.04208629046905534,0.006249426877788443,0.0018275435852041575,-1.9790314018354903e-05,-0.000544896686570441,0.006751687580329448,0.001141227468863458,0.021974251014313984
0.0055862,0.04239649242174073,0.006646820435851393,0.001838029794012387,0.00015469969976534707,-0.00039383941303752144,0.007065190832647696,0.001318033873339483,0.02258273341298394
0.0060517,0.04270568163661173,0.007044634973840974,0.0018485215350885317,0.0003292355014525502,-0.00024156057615570383,0.00738008888981669,0.0014950889177173623,0.02319188942284542
0.0065172,0.04301380809777727,0.007442830224462675,0.0018590181738421822,0.0005037990591708507,-8.80696989310904e-05,0.007696357926133604,0.0016723767125612573,0.023801648213559352
0.0069828,0.04332082196124007,0.00784136591173742,0.0018695190996790914,0.0006783723939676366,6.6623404989388e-05,0.008013973938845863,0.001849881407737462,0.024411938876684056
0.0074483,0.04362667356999557,0.008240201760779638,0.0018800237268079675,0.0008529375849723426,0.00022250863080712824,0.0083329127544394,0.0020275871974674,0.025022690446147442
0.0079138,0.04393131346897205,0.00863929750746893,0.0018905314950477833,0.0010274767744974408,0.00037957558210102927,0.00865315003493497,0.0022054783253428675,0.025633831918639147
0.0083793,0.044234692419798334,0.009038612908009697,0.0019010418706351742,0.0012019721730758663,0.0005378135703976888,0.008974661284189906,0.0023835390893013337,0.02624529227391308
0.0088448,0.04453676141538608,0.009438107748373416,0.0019115543470314903,0.0013764060644327108,0.0006972116147837159,0.009297421854202811,0.0025617538465592484,0.026857000494991123
0.0093103,0.044837471694313395,0.009837741853618524,0.001922068445729047,0.001550760810389171,0.0008577584415613313,0.009621406951418741,0.002740107018501383,0.027468885588259034
0.0097759,0.04513677475499785,0.010237475097083138,0.0019325837170561116,0.0017250188556968754,0.0010194424839484858,0.009946591643032498,0.0029185830955242905,0.028080876603445496
0.0102414,0.0454346223696476,0.010637267409446257,0.0019430997409801611,0.001899162732800876,0.001182251881824787,0.010272950863287698,0.003097166641831994,0.028692902653475242
0.0107069,0.04573096659798016,0.011037078787653276,0.0019536161279089417,0.0020731750665297305,0.0013461744815245588,0.010600459419769366,0.003275842300182047,0.029304892934187265
0.0111724,0.04602575980069985,0.011436869303701943,0.0019641325194888694,0.0022470385787112693,0.0015111978356783975,0.010929091999687791,0.0034545947965801405,0.02991677674390912
0.0116379,0.04631895465272524,0.01183659911328502,0.001974648589400304,0.0024207360927128085,0.0016773092031046194,0.011258823176151365,0.003633408944921476,0.030528483502878383
0.0121034,0.04661050415615944,0.012236228464285974,0.001985164044149223,0.0025942505379047396,0.0018444955487520122,0.011589627414426191,0.0038122696515772,0.031139942772502135
0.012569,0.046900361652996686,0.012635717705124007,0.001995678623854825,0.0027675649540465828,0.002012743543695307,0.01192147907818016,0.0039911619199242635,0.03175108427444534
0.0130345,0.047188480837559166,0.013035027292944769,0.0020061921030325816,0.0029406624955947247,0.0021820395651848063,0.012254352435709185,0.004170070854817151,0.03236183790953876
0.0135,0.047474815768658404,0.013434117801653022,0.0020167042913722738,0.0031135264359311602,0.002352369696751609,0.01258822166614323,0.004348981666999964,0.03297213377649699
0.0139655,0.04775932088147626,0.013832949929783745,0.002027215034510543,0.003286140171512618,0.0025237197283698764,0.012923060865629783,0.004527879677457426,0.03358190219043715
0.014431,0.04804195099916059,0.014231484508208252,0.0020377242147975143,0.003458487225939469,0.002696075156677585,0.013258844053492393,0.00470675032170345,0.034191073701188505
0.0148966,0.04832266134413179,0.014629682507672336,0.0020482317520570652,0.0036305512539438435,0.0028694211852572193,0.013595545178361895,0.004885579154006025,0.03479957911138349
0.0153621,0.048601407549097746,0.015027505046163963,0.0020587376043403076,0.0038023160452963414,0.0030437427249778463,0.013933138124277895,0.00506435185154732,0.035407349494320374
0.0158276,0.048878145667775534,0.015424913396108658,0.002069241768671865,0.003973765528630728,0.003219024394400007,0.014271596716758055,0.005243054218518067,0.03601431621158823
0.0162931,0.04915283218532034,0.01582186899139149,0.0020797442817885336,0.00414488377518597,0.0033952505202448566,0.014610894728832617,0.005421672190145347,0.036620410930445296
0.0167586,0.04942542402846323,0.01621833343420538,0.002090245220869896,0.0043156550024649855,0.00357240513792897,0.014951005887041548,0.005600191836652991,0.03722556564094242
0.0172241,0.049695878575360765,0.016614268501725968,0.002100744704260473,0.004486063577809485,0.0037504719921662155,0.01529190387739157,0.005778599367153784,0.03782971267278408
0.0176897,0.049964153665160445,0.017009636152613698,0.002111242892182976,0.0046560940218902894,0.003929434537638091,0.015633562351270322,0.0059568811334727075,0.0384327847119201
0.0181552,0.05023020760728627,0.017404398533344197,0.002121739987442224,0.0048257310121125364,0.004109275939733935,0.015975954931314745,0.006135023633900431,0.039034714816861715
0.0186207,0.05049399919044902,0.01779851798436778,0.0021322362361192878,0.004994959385935201,0.004289979075362431,0.016319055217230708,0.006313013516876318,0.03963543643471605
0.0190862,0.05075548769138552,0.018191957046099202,0.002142731928255419,0.005163764144104352,0.004471526533835832,0.01666283679156078,0.006490837584600302,0.040234883416932994
0.0195517,0.051014632883331044,0.018584678464738557,0.0021532273985253175,0.005332130453799581,0.004653900617828364,0.017007273225396954,0.006668482796573026,0.04083299003475861
0.0200172,0.051271395044229014,0.018976645197924462,0.0021637230268993007,0.00550004365169304,0.004837083344410273,0.01735233808403512,0.006845936273063693,0.04142969099438923
0.0204828,0.05152573496468177,0.019367820420220557,0.00217421923929392,0.005667489246920576,0.00502105644615898,0.01769800493256796,0.00702318529850512,0.04202492145182015
0.0209483,0.051777613955645625,0.019758167528436562,0.002184716508210615,0.005834452923964504,0.005205801372348786,0.018044247341412942,0.007200217324815502,0.042618617027382955
0.0214138,0.05202699385587354,0.02014765014678503,0.002195215353361972,0.006000920545447626,0.005391299290220539,0.018391038891772037,0.007377019974646404,0.0432107138199651
0.0218793,0.052273837039108,0.02053623213187512,0.002205716342285189,0.006166878154838213,0.0055775310863326495,0.01873835318101975,0.007553581044556551,0.043801148420905864
0.0223448,0.05251810642102664,0.02092387757754472,0.0022162200909423444,0.006332311979065721,0.005764477367994806,0.019086163828016037,0.007729888508110904,0.044389857927562865
0.0228103,0.05275976546594287,0.02131055081953259,0.0022267272643070957,0.006497208431047058,0.00595211846478569,0.019434444478340713,0.007905930518904552,0.0449767799565438
0.0232759,0.052998778193263305,0.0216962164399924,0.002237238576937413,0.006661554112123292,0.006140434430155983,0.019783168809446115,0.008081695413510915,0.045561852656598394
0.0237414,0.053235109183703576,0.022080839271851015,0.002247754793533992,0.006825335814406669,0.006329405043117898,0.020132310535724993,0.008257171714353714,0.04614501472116597
0.0242069,0.053468723585263736,0.022464384403013574,0.0022582767294839616,0.006988540523037875,0.006519009810022437,0.020481843413490925,0.008432348132502142,0.04672620540057414
0.0246724,0.05369958711896455,0.022846817180418325,0.002268805251389531,0.007151155418353455,0.00670922796642557,0.02083174124586873,0.00860721357038862,0.047305364513885007
0.0251379,0.053927666084345544,0.023228103213944182,0.002279341277581206,0.0073131678779633415,0.006900038479044475,0.02118197788759252,0.008781757124448532,0.047882432460385725
0.0256034,0.05415292736472576,0.02360820838017403,0.0022898857786152176,0.007474565478738364,0.007091420047805012,0.021532527249709155,0.008955968087681294,0.0484573502307212
0.026069,0.05437533843222816,0.023987098826016785,0.0023004397777548237,0.007635335998707643,0.007283351107981539,0.021883363304184954,0.009129835952132211,0.049030059417667
0.0265345,0.054594867352568306,0.024364740972191126,0.0023110043514351503,0.007795467418865731,0.007475809832430233,0.022234460088413854,0.009303350411294627,0.04960050222654117
0.027,0.054811482789607895,0.024741101516573657,0.002321580629711245,0.007954947924889398,0.00766877413391705,0.022585791709625345,0.009476501362432005,0.0501686214852536
0.0274655,0.055025154009673276,0.02511614743741439,0.002332169796689018,0.008113765908764033,0.007862221667541462,0.02293733234919105,0.00964927890881961,0.05073436065399197
0.027931,0.05523585088563886,0.025489845996422074,0.002342773090938724,0.008271909970319732,0.008056129833257134,0.023289056266828898,0.009821673361905528,0.05129766383454442
0.0283966,0.05544354390077475,0.025862164741721944,0.002353391805890647,0.0084293689186773,0.008250475778490652,0.023640937804704148,0.009993675243390676,0.05185847577925979
0.0288621,0.05564820415235767,0.02623307151068831,0.0023640272902126216,0.008586131773604549,0.008445236400859403,0.023992951391426556,0.010165275287227476,0.052416741899647554
0.0293276,0.05584980335504384,0.026602534432654232,0.002374680948169031,0.00874218776678342,0.008640388350989632,0.024345071545943276,0.010336464441536745,0.052972408274620825
0.0297931,0.05604831384400259,0.026970521931500773,0.0023853542399609093,0.008897526342988626,0.008835908035435687,0.024697272881327097,0.010507233870442362,0.05352542165838622
0.0302586,0.05624370857780964,0.027337002728128213,0.0023960486820467776,0.009052137161178617,0.009031771619701357,0.02504953010845983,0.010677574955823225,0.054075729487985134
0.0307241,0.0564359611410993,0.02770194584281171,0.0024067658474438143,0.009206010095499786,0.009227955031364138,0.02540181803961096,0.010847479298981935,0.05462327989049093
0.0311897,0.05662504574697609,0.028065320597444026,0.0024175073660089785,0.009359135236205036,0.009424433963303237,0.025754111591911946,0.01101693872222964,0.055168021689866426
0.0316552,0.05681093723918637,0.02842709661766761,0.002428274924699667,0.00951150289048789,0.009621183877032001,0.02610638579072692,0.011185945270386367,0.05570990441348628
0.0321207,0.056993611094051815,0.0287872438348984,0.002439070267813487,0.009663103583233454,0.009818180006135454,0.026458615772921055,0.011354491212196135,0.0562488782983285
0.0325862,0.057173043422166676,0.029145732488243415,0.0024498951972067146,0.009813928057687597,0.010015397359813496,0.026810776790028336,0.011522569041656038,0.05678489429683988
0.0330517,0.05734921096986084,0.029502533126314234,0.002460751572490985,0.00996396727604571,0.010212810726530323,0.02716284421132067,0.011690171479258394,0.057317904082479804
0.0335172,0.057522091120430933,0.029857616608938375,0.0024716413112077632,0.010113212419962395,0.010410394677770529,0.027514793526780264,0.011857291473145036,0.05784786005494784
0.0339828,0.05769166189514165,0.030210954108770543,0.002482566388980136,0.01026165489098347,0.010608123571902297,0.02786660034997726,0.012023922200172732,0.05837471534510094
0.0344483,0.057857901953999764,0.03056251711280587,0.0024935288396414727,0.010409286310901591,0.010805971558148037,0.028218240420854364,0.012190057066888664,0.058898423819566864
0.0349138,0.05802079059630413,0.03091227742379729,0.0025045307553405163,0.010556098522036858,0.011003912580662778,0.028569689608420167,0.012355689710414773,0.05941894008506094
0.0353793,0.05818030776097558,0.03126020716157927,0.0025155742866224606,0.010702083587443742,0.011201920382720502,0.02892092391335283,0.012520813999239759,0.059936219492413824
0.0358448,0.05833643402667166,0.031606278764300125,0.0025266616424855764,0.010847233791045754,0.011399968511008605,0.02927191947051559,0.01268542403391737,0.060450218140317764
0.0363103,0.058489150611691854,0.03195046498956505,0.0025377950904129456,0.010991541637699317,0.011598030320030537,0.02962265255138569,0.012849514147669588,0.06096089287879886
0.0367759,0.058638439373679956,0.03229273891549171,0.002548976956378864,0.011134999853188436,0.011796078976616612,0.029973099566398154,0.013013078906893207,0.06146820131242273
0.0372414,0.05878428280912995,0.03263307394168004,0.002560209624829476,0.011277601384151782,0.011994087464542903,0.0303232370672059,0.013176113111568221,0.06197210180324084
0.0377069,0.05892666405270235,0.03297144379009783,0.0025714955386372043,0.011419339397943953,0.012192028589258023,0.030673041748857603,0.01333861179556644,0.06247255347348506
0.0381724,0.059065566876357466,0.03330782250588326,0.0025828371990285386,0.011560207282432641,0.012389874982717495,0.031022490451894584,0.013500570226858626,0.06296951620801752
0.0386379,0.05920097568831196,0.033642184458065744,0.002594237165484735,0.011700198645733522,0.012587599108325324,0.03137156016436783,0.01366198390761851,0.0634629506565435
0.0391034,0.05933287553182515,0.033974504340206414,0.002605698055614961,0.01183930731588469,0.01278517326598235,0.03172022802377604,0.013822848574221986,0.06395281823559434
0.039569,0.05946125208382162,0.03430475717095994,0.0026172225450014157,0.01197752734046256,0.012982569597240796,0.03206847131892542,0.013983160197139872,0.06443908113028737
0.0400345,0.05958609165335731,0.03463291829455973,0.0026288133670159617,0.012114852986141142,0.01317976009056445,0.0324162674917119,0.014142914980722817,0.06492170229586931
0.0405,0.05970738117993637,0.03495896338122895,0.002640473312607803,0.012251278738196751,0.013376716586693736,0.032763594138826124,0.01430210936287704,0.0654006454590494
0.0409655,0.05982510823168689,0.035282868427519924,0.002652205230061759,0.012386799299960144,0.01357341078411501,0.03311042901338183,0.014460740014629787,0.06587587511912789
0.041431,0.05993926100340375,0.035604609756584624,0.002664012024726694,0.012521409592218124,0.01376981424463327,0.033456750026467724,0.014618803839583513,0.06634735654892535
0.0418966,0.06004982831446677,0.0359241640183786,0.002675896658713642,0.012655104752566605,0.0139658983990474,0.03380253524862308,0.014776297973257971,0.0668150557955177
0.0423621,0.06015679960664218,0.036241508189800806,0.00268786215056318,0.012787880134716993,0.014161634552927039,0.034147762911236855,0.014933219782319549,0.06727893968078125
0.0428276,0.06026016494177526,0.03655661957477177,0.002699911574881588,0.012919731307757707,0.01435699389249001,0.034492411407870106,0.015089566863697364,0.06773897580175163
0.0432931,0.06035991499938169,0.036869475804252476,0.0027120480619453277,0.013050654055372491,0.014551947490579182,0.03483645929550128,0.015245337043585959,0.0681951325308003
0.0437586,0.06045604107414466,0.03718005483620659,0.002724274797273384,0.013180644375017135,0.014746466312737532,0.035179885295694005,0.015400528376334656,0.06864737901563159
0.0442241,0.06054853507332491,0.03748833495550874,0.0027365950211670096,0.013309698477056127,0.014940521223379997,0.03552266829568683,0.015555139143223816,0.06909568517910336
0.0446897,0.060637389514090714,0.03779429477380158,0.002749012028216441,0.013437812783860597,0.015134082992060727,0.0358647873494047,0.01570916785112834,0.06954002171887398
0.0451552,0.06072259752077473,0.038097913229304115,0.0027615291667741747,0.013564983928868896,0.015327122299834127,0.03620622167839154,0.015862613231068957,0.06998036010687801
0.0456207,0.060804152822064604,0.03839916958657399,0.0027741498383944394,0.01369120875561103,0.015519609745708018,0.03654695067266332,0.01601547423665174,0.07041667258863303
0.0460862,0.06088204974813424,0.03869804343622592,0.002786877497238525,0.013816484316698088,0.015711515853187117,0.03688695389148079,0.01616775004239655,0.07084893218237964
0.0465517,0.06095628322772253,0.03899451469460899,0.0027997156494456803,0.013940807872777681,0.015902811076904895,0.03722621106404079,0.016319440041954902,0.07127711267805723
0.0470172,0.06102684878516602,0.03928856360344512,0.0028126678524693057,0.014064176891456318,0.016093465809341772,0.03756470209008503,0.016470543846217964,0.07170118863611806
0.0474828,0.06109374253739185,0.039580170729431124,0.0028257377143782393,0.014186589046189576,0.016283450387627477,0.037902407040425135,0.016621061281315106,0.07212113538618298
0.0479483,0.061156961190876775,0.03986931696380675,0.0028389288931229633,0.014308042215140863,0.016472735100425254,0.03823930615738288,0.01677099238650349,0.07253692902554182
0.0484138,0.06121650203857782,0.0401559835218907,0.002852245095766596,0.014428534480009494,0.016661290194895463,0.03857537985514474,0.01692033741194911,0.07294854641750229
0.0488793,0.061272362956840014,0.040440151942586766,0.002865690077680566,0.014548064124828806,0.016849085883736008,0.038910608720030604,0.01706909681639962,0.0733559651895907
0.0493448,0.0613245424022861,0.04072180408786192,0.0028792676417048937,0.014666629634735029,0.01703609235229688,0.039244973510676476,0.017217271264749326,0.07375916373160793
0.0498103,0.06137303940869322,0.041000922142198,0.0028929816372730054,0.014784229694707548,0.017222279765765985,0.039578455158131555,0.017364861625496688,0.07415812119354397
0.0502759,0.061417853583860885,0.04127748861201902,0.002906835959501037,0.014900863188281249,0.017407618276423342,0.039911034765870226,0.017511868968094715,0.07455281748335468
0.0507414,0.061458985106474934,0.04155148632509586,0.0029208345482415812,0.015016529196231556,0.017592078030960575,0.040242693609719486,0.017658294560194725,0.07494323326460381
0.0512069,0.06149643472297159,0.04182289842993039,0.0029349813871018507,0.01513122699523272,0.01777562917786266,0.04057341313770225,0.017804139864784015,0.07532934995397321
0.0516724,0.06153020374440568,0.04209170839512118,0.0029492805024262437,0.015244956056489808,0.017958241874848766,0.040903174969796875,0.01794940653721813,0.07571114971864408
0.0521379,0.061560294043327336,0.04235790000871279,0.002963735962243293,0.01535771604434478,0.018139886296369024,0.041231960897612954,0.018094096422148636,0.07608861547355118
0.0526034,0.06158670805067118,0.042621457377530564,0.002978351875177009,0.01546950681485685,0.018320532641153915,0.041559752883983246,0.018238211550347504,0.07646173087851206
0.053069,0.06160944875266194,0.04288236492650269,0.0029931323893225897,0.015580328414357284,0.01850015113981291,0.041886533062471594,0.01838175413542918,0.07683048033523293
0.0535345,0.06162851968774005,0.04314060739797135,0.003008081691086474,0.015690181077978645,0.01867871206247892,0.042212283736796585,0.0185247265704716,0.07719484898419261
0.054,0.061643924943510446,0.043396169850994426,0.0030232040039907294,0.015799065228158386,0.018856185726495046,0.04253698738017074,0.01866713142453747,0.07755482270140518
0.0544655,0.061655669153716994,0.04364903766063926,0.003038503587441728,0.015906981473116637,0.01903254250414002,0.042860626634555136,0.018808971439097016,0.07791038809506176
0.054931,0.06166375749524493,0.04389919651726965,0.0030539847354630963,0.01601393060530793,0.01920775283038876,0.04318318430982971,0.018950249524353577,0.07826153250205144
0.0553966,0.061668195685152825,0.04414663242582685,0.003069651775392921,0.01611991359984658,0.019381787210704285,0.04350464338288019,0.01909096875547346,0.07860824398436067
0.0558621,0.06166898997773572,0.04439133170510538,0.0030855090665452478,0.016224931612905464,0.0195546162288573,0.04382498699660304,0.01923113236872151,0.07895051132535025
0.0563276,0.06166614716162062,0.044633280987024036,0.0031015609988359416,0.0163289859800879,0.019726210554769683,0.044144198458830546,0.019370743757504007,0.07928832402590857
0.0567931,0.06165967455689537,0.044872467215892435,0.0031178119913730347,0.016432078214772387,0.019896540952377927,0.04446226124117811,0.01950980646832102,0.07962167230048044
0.0572586,0.06164958001227181,0.04510887764767375,0.003134266491011756,0.016534210006429875,0.02006557828751271,0.04477915897781614,0.019648324196630637,0.07995054707297072
0.0577241,0.06163587190228367,0.04534249984924415,0.003150928970874518,0.01663538321891336,0.0202332935357905,0.04509487546416901,0.019786300782628295,0.080274939972523
0.0581897,0.06161855912451965,0.045573321697649646,0.003167803928836174,0.016735599888719487,0.020399657790513222,0.04540939465554325,0.019923740206944783,0.08059484332917359
0.0586552,0.06159765109689179,0.045801331379360766,0.0031848958859749203,0.016834862223221864,0.02056464227057182,0.04572270066568737,0.02006064658626706,0.08091025016938194
0.0591207,0.06157315775493937,0.04602651738952544,0.0032022093849892555,0.01693317259887575,0.020728218328349632,0.04603477776528545,0.02019702416888617,0.08122115421143786
0.0595862,0.061545089549168444,0.046248868531220295,0.0032197489885814534,0.01703053355939367,0.020890357457621408,0.0463456103803866,0.02033287733017667,0.08152754986074662
0.0600517,0.061513457442427436,0.046468373914700205,0.0032375192778080274,0.0171269478138914,0.021051031301443816,0.0466551830907726,0.02046821056801203,0.08182943220499328
0.0605172,0.06147827290731897,0.046685022956646206,0.0032555248503977154,0.01722241823500389,0.021210211660033323,0.04696348062826574,0.020603028498120412,0.08212679700918789
0.0609828,0.06143954792364783,0.04689880537941167,0.003273770319037555,0.017316947856970657,0.02136787049862731,0.04727048787497889,0.02073733584938517,0.08241964071059392
0.0614483,0.0613972949759047,0.04710971121026673,0.0032922603096276985,0.01741053987369032,0.02152397995532429,0.047576189861509965,0.020871137459094437,0.08270796041354309
0.0619138,0.061351527050784935,0.04731773078064142,0.003310999459505665,0.017503197636744235,0.021678512348899195,0.04788057176508321,0.021004438268144222,0.08299175388413925
0.0623793,0.06130225763474101,0.04752285472536747,0.0033299924156407813,0.01759492465338934,0.02183144018658952,0.04818361890763954,0.021137243316199424,0.0832710195448545
0.0628448,0.06124950071156726,0.047725073981919164,0.0033492438327996166,0.017685724584520623,0.021982736171848292,0.04848531675387858,0.02126955773681736,0.08354575646902015
0.0633103,0.06119327076001471,0.047924379789653304,0.003368758371683242,0.0177756012426036,0.022132373212059693,0.048785650909254866,0.021401386752538408,0.08381596437521524
0.0637759,0.06113358275143354,0.04812076368904802,0.0033885406970371687,0.017864558589577247,0.022280324426213523,0.04908460711793063,0.02153273566994862,0.08408164362155524
0.0642414,0.06107045214744057,0.04831421752094008,0.0034085954757348234,0.017952600734727674,0.02242656315253476,0.04938217126068758,0.021663609874719107,0.08434279519988386
0.0647069,0.061003894897608386,0.04850473342576002,0.0034289273748354335,0.018039731932532797,0.02257106295606498,0.04967832935279961,0.02179401482662715,0.08459942072987058
0.0651724,0.06093392743717278,0.04869230384276418,0.0034495410596171723,0.018125956580478192,0.022713797636192978,0.04997306754186854,0.021923956054563976,0.08485152245301639
0.0656379,0.060860566684754834,0.048876921509262594,0.003470441191586429,0.01821127921684407,0.02285474123413231,0.05026637210562437,0.022053439151534,0.08509910322657026
0.0661034,0.060783830040093814,0.04905857945984163,0.003491632426464019,0.018295704518463417,0.022993868040344086,0.050558229449691475,0.02218246976965037,0.08534216651735883
0.066569,0.060703735381786826,0.049237271025580294,0.003513119412149176,0.01837923729845111,0.02313115260190362,0.0508486261053219,0.022311053615131558,0.08558071639553201
0.0670345,0.0606203010650308,0.049412989833259695,0.0035349067866621347,0.01846188250390399,0.023266569729809908,0.051137548727096374,0.022439196443303666,0.08581475752822738
0.0675,0.06053354591936243,0.04958572980456613,0.0035569991760661247,0.01854364521357176,0.023400094506237364,0.051424984090593734,0.02256690405361289,0.08604429517315641
0.0679655,0.060443489246391195,0.0497554851552892,0.003579401192369612,0.018624530635498585,0.023531702291729347,0.05171091909002886,0.022694182284652566,0.08626933517211469
0.068431,0.06035015081752098,0.049922250394517455,0.003602117431409636,0.018704544104635564,0.02366136873233326,0.05199534073585914,0.022821037009209073,0.08648988394441867
0.0688966,0.06025355087165528,0.05008602032383462,0.00362515247071713,0.01878369108042411,0.023789069766677117,0.05227823615235915,0.022947474129330833,0.08670594848027034
0.0693621,0.06015371011288142,0.05024679003652,0.0036485108673651287,0.018861977144350384,0.023914781632987603,0.052559592575163294,0.023073499571424478,0.08691753633405053
0.0698276,0.06005064970812849,0.05040455491675681,0.0036721971558008088,0.018939407997470927,0.024038480876049602,0.05283939734877559,0.02319911928138233,0.08712465561754107
0.0702931,0.05994439128479404,0.05055931063885152,0.0036962158456623367,0.019015989457909704,0.024160144354107235,0.0531176379240459,0.02332433921974506,0.08732731499307572
0.0707586,0.05983495692833415,0.050711053166467755,0.003720571419581529,0.01909172745832669,0.0242797492457062,0.05339430185561171,0.023449165356903303,0.08752552366661871
0.0712241,0.05972236917981141,0.05085977875187728,0.0037452683309733463,0.019166628043358228,0.02439727305647734,0.0536693767993044,0.023573603668342012,0.08771929138076984
0.0716897,0.05960665103339524,0.05100548393523102,0.0037703110018132667,0.01924069736702925,0.024512693625860924,0.05394285050951928,0.023697660129930916,0.08790862840769476
0.0721552,0.059487825933808545,0.05114816554385247,0.0037957038204036084,0.019313941690137282,0.024625989133771214,0.05421471083654912,0.023821340713264506,0.08809354554197903
0.0726207,0.05936591777371525,0.0512878206915556,0.003821451139129891,0.01938636737760821,0.024737138107200508,0.054484945723881045,0.023944651381054706,0.08827405409340502
0.0730862,0.059240950891042976,0.05142444677798901,0.0038475572722083645,0.01945798089582354,0.02484611942676184,0.05475354320545766,0.024067598082579175,0.08845016587965193
0.0735517,0.05911295006623597,0.05155804148800765,0.0038740264934258857,0.019528788809918946,0.024952912333169507,0.05502049140290321,0.024190186749188186,0.08862189321891993
0.0740172,0.058981940519433625,0.05168860279107311,0.003900863033873376,0.0195987977810538,0.025057496433656304,0.055285778522716295,0.02431242328987276,0.08878924892248075
0.0744828,0.05884794790757049,0.051816128940683236,0.003928071079674122,0.019668014563651304,0.025159851708326658,0.055549392853430954,0.024434313586896628,0.0889522462871574
0.0749483,0.05871099832139364,0.051940618473831225,0.003955654769708204,0.019736446002608786,0.025259958516444712,0.05581132276274827,0.02455586349149443,0.08911089908773694
0.0754138,0.05857111828239349,0.0520620702104945,0.003983618193334313,0.01980409903047755,0.025357797602656527,0.056071556694641006,0.024677078819638498,0.08926522156932089
0.0758793,0.05842833473964391,0.05218048325315311,0.004011965388110241,0.0198709806646116,0.025453350103145655,0.05633008316643377,0.02479796534787648,0.08941522843961867
0.0763448,0.05828267506654765,0.0522958569863371,0.004040700337513248,0.019937098004284448,0.025546597551721343,0.056586890765861625,0.024918528809242113,0.08956093486118977
0.0768103,0.0581341670574834,0.052408191076202086,0.004069826968661553,0.020002458227773117,0.025637521885838774,0.05684196814811014,0.025038774889241444,0.08970235644363989
0.0772759,0.05798283892435126,0.05251748547013203,0.004099349150038117,0.020067068589408366,0.02572610545255066,0.05709530403284034,0.025158709221916906,0.08983950923577624
0.0777414,0.05782871929301315,0.052623740396368364,0.004129270689217869,0.02013093641659027,0.025812331014389643,0.0573468872012019,0.02527833738599152,0.08997240971772673
0.0782069,0.05767183719962535,0.05272695636366489,0.0041595953305995454,0.020194069106768138,0.025896181755180932,0.057596706492838226,0.02539766490109561,0.09010107479302733
0.0786724,0.057512222086859716,0.05282713416096781,0.004190326753143216,0.02025647412438387,0.025977641285784586,0.05784475080288661,0.025516697224078278,0.0902255217806824
0.0791379,0.05734990380001049,0.05292427485712073,0.004221468568114613,0.02031815899777794,0.02605669364976691,0.05809100907897695,0.025635439745406045,0.0903457684072024
0.0796034,0.05718491258298357,0.053018379800594095,0.004253024316837303,0.020379131316057255,0.02613332332900047,0.05833547031823197,0.025753897785651,0.09046183279862355
0.080069,0.057017279074165955,0.0531094506192386,0.004284997468453748,0.020439398725924533,0.02620751524919218,0.058578123564272465,0.025872076592070706,0.09057373347251353
0.0805345,0.05684703430217363,0.05319748922006132,0.004317391417696252,0.020498968928468753,0.026279254785339014,0.058818957904230695,0.02598998133528215,0.09068148932996789
0.081,0.05667420968147738,0.05328249778902322,0.0043502094826688206,0.020557849675916496,0.02634852776711088,0.059057962465775674,0.026107617106031725,0.09078511964760098
0.0814655,0.05649883700790705,0.05336447879085631,0.004383454902640881,0.02061604876834399,0.02641532048416015,0.05929512641415401,0.02622498891206303,0.09088464406953592
0.081931,0.05632094845403594,0.05344343496889844,0.004417130835853829,0.02067357405034958,0.026479619691357474,0.059530438949249545,0.02634210167508425,0.09098008259939735
0.0823966,0.056140576564447604,0.05351936934494371,0.004451240357341327,0.02073043340768653,0.0265414126139534,0.059763889302665144,0.026458960227836475,0.09107145559231106
0.0828621,0.05595775425088789,0.05359228521910666,0.004485786456764249,0.02078663476385614,0.026600686952665226,0.059995466734829396,0.026575569311264258,0.09115878374691411
0.0833276,0.055772514787305154,0.05366218616969869,0.004520772036261184,0.020842186076661315,0.026657430888688806,0.06022516053213104,0.02669193357178943,0.09124208809737862
0.0837931,0.055584891804781066,0.05372907605311559,0.004556199908315367,0.02089709533472111,0.02671163308863461,0.060452960004083824,0.026808057558689074,0.09132139000545263
0.0842586,0.055394919286354594,0.05379295900373508,0.004592072793638914,0.020951370553946764,0.02676328270938754,0.0606788544805244,0.0269239457215783,0.09139671115252139
0.0847241,0.055202631561740906,0.053853839433823714,0.004628393319075257,0.02100501977397982,0.02681236940288987,0.06090283330884637,0.027039602407998412,0.09146807353169192
0.0851897,0.05500806330194702,0.05391172203345187,0.004665164015520609,0.021058051054592936,0.026858883320846582,0.06112488585127379,0.027155031861110977,0.09153549943990391
0.0856552,0.05481124951378546,0.05396661177041578,0.004702387315865301,0.021110472472054283,0.026902815119352348,0.06134500148217762,0.027270238217498403,0.09159901147006998
0.0861207,0.05461222553428697,0.05401851389016525,0.00474006555295578,0.021162292115456727,0.02694415596343914,0.06156316958543886,0.027385225505071744,0.09165863250324882
0.0865862,0.05441102702501295,0.0540674339157359,0.004778200957578055,0.021213518083013624,0.026982897531543516,0.0617793795518624,0.02749999764108654,0.09171438570085445
0.0870517,0.054207689966268076,0.054113377647684285,0.004816795656463296,0.0212641584783238,0.027019032019892267,0.06199362077664566,0.027614558430267555,0.09176629449690456
0.0875172,0.05400225065121297,0.0541563511640249,0.004855851670316302,0.021314221406608755,0.02705255214680503,0.062205882656906325,0.027728911563043288,0.09181438259031051
0.0879828,0.05379474567987659,0.05419636082016783,0.004895370911867524,0.021363714970925415,0.02708345115691231,0.06241615458927386,0.0278430606138912,0.09185867393721159
0.0884483,0.05358521195306769,0.05423341324885598,0.004935355183949276,0.02141264726835782,0.027111722825286948,0.06262442596754944,0.027957009039794624,0.09189919274335488
0.0889138,0.05337368666618386,0.05426751536010151,0.004975806177596778,0.021461026386191108,0.027137361461487063,0.06283068618043915,0.028070760178812094,0.09193596345652263
0.0893793,0.05316020730291674,0.05429867434112059,0.005016725470174636,0.021508860398071095,0.02716036191350822,0.06303492460936495,0.028184317248759954,0.09196901075900865
0.0898448,0.0529448116288511,0.05432689765626631,0.005058114523529363,0.02155615736015276,0.02718071957164244,0.06323713062635739,0.028297683346008785,0.0919983595601452
0.0903103,0.05272753768495547,0.05435219304695962,0.005099974682168508,0.021602925307240953,0.027198430372241428,0.06343729359203361,0.02841086144439399,0.09202403498888206
0.0907759,0.052508423780961384,0.05437456853161817,0.00514230717146693,0.021649172248926457,0.027213490801381465,0.06363540285366412,0.02852385439424057,0.09204606238641942
0.0912414,0.05228750848862777,0.0543940324055834,0.005185113095900783,0.021694906165720697,0.027225897898427137,0.06383144774333055,0.02863666492150197,0.09206446729889604
0.0917069,0.05206483063488682,0.054410593241045795,0.005228393437309736,0.02174013500519209,0.027235649259491134,0.06402541757617686,0.02874929562701259,0.09207927547013417
0.0921724,0.05184042929486744,0.05442425988696866,0.005272149053187998,0.021784866678106862,0.027242743040787137,0.0642173016487555,0.028861748985853256,0.0920905128344412
0.0926379,0.05161434378479185,0.05443504146901077,0.005316380675004714,0.021829109054577092,0.027247177961872777,0.06440708923746974,0.028974027346828888,0.09209820550946808
0.0931034,0.05138661365474122,0.054442947389448215,0.00536108890655434,0.02187286996021853,0.02724895330877969,0.06459476959711284,0.029086132932057182,0.09210237978912397
0.093569,0.05115727868128631,0.054447987327096485,0.005406274222337621,0.02191615717232052,0.027248068937027584,0.0647803319595044,0.029198067836667146,0.09210306213654564
0.0940345,0.0509263788599799,0.05445017123723394,0.005451936965973842,0.021958978416030322,0.027244525274519198,0.06496376553222395,0.029309834028606,0.09210027917712009
0.0945,0.05069395439770846,0.05444950935152818,0.005498077348645011,0.022001341360553848,0.027238323324312953,0.06514505949744141,0.029421433348552906,0.09209405769155853
0.0949655,0.05046004570490217,0.054446012177966734,0.005544695447572693,0.022043253615374785,0.02722946466727023,0.065324203010844,0.029532867509937975,0.09208442460901896
0.095431,0.050224693387603436,0.054439690500793544,0.005591791204528175,0.02208472272649379,0.027217951464574022,0.06550118520065903,0.029644138099064736,0.09207140700027591
0.0958966,0.049987938239395686,0.054430555380452925,0.005639364424376714,0.02212575617268942,0.02720378646011583,0.06567599516677243,0.02975524657533422,0.09205503207093561
0.0963621,0.04974982123319521,0.05441861815354255,0.005687414773656587,0.02216636136180226,0.02718697298274769,0.06584862197994266,0.02986619427156875,0.09203532715469612
0.0968276,0.049510383512909414,0.054403890432776936,0.005735941779193704,0.022206545627043578,0.027167514948396084,0.06601905468111043,0.029976982394433367,0.09201231970665157
0.0972931,0.04926966638496532,0.054386384106962844,0.00578494482675257,0.02224631622332977,0.027145416862034727,0.06618728228080428,0.030087612024952935,0.09198603729664093
0.0977586,0.04902771130971203,0.054366111340987504,0.0058344231597243675,0.02228568032364351,0.02712068381951304,0.06635329375864288,0.03019808411912292,0.09195650760264093
0.0982241,0.048784559892701085,0.05434308457582049,0.005884375877852939,0.022324645015422667,0.027093321509237343,0.0665170780629345,0.030308399508612065,0.09192375840420218
0.0986897,0.04854025387584896,0.05431731652852955,0.005934801935999416,0.022363217296977732,0.027063336213701706,0.06667862411037528,0.030418558901555114,0.0918878175759276
0.0991552,0.04829483512848624,0.05428882019231034,0.005985700142946235,0.022401404073938425,0.027030734810865452,0.06683792078584787,0.030528562883433752,0.09184871308099127
0.0996207,0.048048345638298795,0.054257608836529844,0.006037069160241268,0.02243921215572998,0.026995524775374282,0.06699495694232326,0.030638411918043767,0.09180647296469517
0.1000862,0.04780082750216701,0.05422369600678307,0.006088907501082806,0.022476648252079498,0.02695771417962198,0.06714972140086953,0.03074810634854626,0.09176112534806094
0.1005517,0.04755232291690902,0.054187095524962633,0.006141213529246149,0.022513718969552732,0.02691731169464968,0.06730220295077123,0.030857646398600613,0.09171269842145335
0.1010172,0.04730287416993467,0.054147821489340976,0.006193985458052627,0.0225504308081217,0.026874326590879655,0.06745239034976333,0.030967032173576717,0.0916612204382318
0.1014828,0.04705252362981682,0.054105888274664754,0.006247221349381871,0.022586790157763468,0.026828768738680526,0.06760027232438329,0.031076263661843708,0.09160671970842589
0.1019483,0.04680131373678637,0.05406131053226125,0.006300919112728219,0.022622803295090633,0.026780648608760862,0.06774583757044442,0.031185340736132584,0.09154922459243087
0.1024138,0.046549286993157295,0.05401410319015662,0.006355076504302164,0.022658476380013937,0.026729977272388093,0.06788907475363315,0.031294263154969755,0.09148876349471834
0.1028793,0.04629648595368759,0.053964281453205754,0.006409691126177792,0.022693815452437486,0.02667676640142961,0.06802997251023253,0.03140303056417865,0.09142536485755823
0.1033448,0.04604295321588161,0.05391186080323394,0.006464760425487155,0.022728826428987093,0.02662102826821294,0.06816851944797422,0.031511642498446436,0.09135905715474756
0.1038103,0.045788731410239016,0.05385685699919021,0.006520281693662557,0.02276351509977231,0.02656277574520189,0.06830470414702064,0.031620098382952995,0.09128986888534263
0.1042759,0.045533863190455375,0.053799286077312714,0.006576252065727772,0.02279788712518253,0.026502022304485576,0.06843851516107913,0.03172839753505896,0.0912178285673923
0.1047414,0.045278391223578754,0.05373916435130578,0.006632668519639242,0.022831948032717698,0.026438782017077177,0.06856994101864944,0.03183653916604974,0.09114296473167159
0.1052069,0.04502235818012693,0.053676508412528606,0.006689527875678326,0.022865703213854092,0.026373069552019443,0.0686989702244057,0.03194452238293218,0.09106530591541541
0.1056724,0.04476580672416944,0.053611335130194865,0.00674682679589567,0.02289915792094576,0.026304900175293765,0.06882559126071357,0.032052346190280336,0.09098488065605287
0.1061379,0.044508779503378594,0.053543661651582815,0.006804561783608862,0.02293231726416214,0.026234289748529798,0.0689497925892827,0.032160009492126905,0.09090171748494347
0.1066034,0.044251319139054175,0.05347350540225476,0.006862729182954494,0.022965186208462773,0.026161254727512417,0.06907156265295458,0.032267511093896736,0.09081584492111701
0.107069,0.04399346821612674,0.05340088408628499,0.006921325178495831,0.022997769570610067,0.026085812160482863,0.069190889877625,0.03237484970437863,0.09072729146502037
0.1075345,0.04373526927314512,0.05332581568649489,0.006980345794887269,0.023030072016221523,0.026007979686230746,0.06930776267429989,0.03248202393773168,0.0906360855922748
0.108,0.04347676479225391,0.05324831846469351,0.0070397868965968195,0.023062098056862965,0.025927775531973663,0.06942216944128261,0.03258903231552237,0.09054225574744876
0.1084655,0.04321799718916692,0.053168410961921646,0.007099644187687815,0.023093852047184525,0.02584521851102124,0.06953409856649063,0.03269587326878874,0.09044583033785074
0.108931,0.04295900880314241,0.05308611199869737,0.0071599132116610485,0.023125338182101197,0.025760328020220657,0.06964353842989864,0.032802545140128474,0.09034683772734742
0.1093966,0.042699841886965684,0.053001440675260414,0.007220589351358514,0.023156560494019967,0.025673124037181402,0.0697504774061053,0.03290904618580769,0.09024530623021278
0.1098621,0.042440538596944334,0.05291441637181292,0.00728166782892989,0.023187522850115532,0.025583627117277626,0.06985490386702058,0.033015374577887786,0.09014126410501376
0.1103276,0.04218114098292091,0.05282505874875395,0.007343143705862851,0.023218228949657152,0.02549185839042763,0.06995680618467044,0.03312152840636761,0.09003473954853775
0.1107931,0.04192169097830773,0.052733387746905086,0.007405011883078239,0.02324868232138945,0.02539783955765081,0.07005617273411657,0.03322750568133833,0.08992576068976744
0.1112586,0.04166223039014801,0.052639423587724714,0.007467267101091108,0.02327888632097026,0.025301592887403253,0.07015299189648923,0.03333330433514845,0.08981435558390759
0.1117241,0.041402800889207364,0.0525431867735086,0.007529903940238513,0.02330884412846894,0.025203141211693952,0.07024725206213218,0.03343892222457637,0.0897005522064677
0.1121897,0.041143444000099345,0.0524446980875743,0.007592916820974971,0.02333855874592854,0.025102507921984218,0.07033894163385891,0.033544357133008004,0.089584378447405
0.1126552,0.04088420109144875,0.052343978594426896,0.007656300004236375,0.023368032994995215,0.02499971696487345,0.07042804903031907,0.03364960677261701,0.08946586210533028
0.1131207,0.04062511336609607,0.05224104963990319,0.00772004759187313,0.023397269514618263,0.024894792837574755,0.07051456268947448,0.033754668786545095,0.08934503088178043
0.1135862,0.04036622185134667,0.052135932851291276,0.007784153527153247,0.023426270758824353,0.024787760583184264,0.07059847107218294,0.03385954075108015,0.08922191237555988
0.1140517,0.040107567389268274,0.05202865013742227,0.007848611595336038,0.023455038994569553,0.02467864578574818,0.07067976266588859,0.03396422017782972,0.08909653407715404
0.1145172,0.039849190627040204,0.051919223688730906,0.007913415424317114,0.023483576299673094,0.024567474565131715,0.07075842598841747,0.03406870451588769,0.0889689233632182
0.1149828,0.039591132007357775,0.051807675977281704,0.007978558485345273,0.023511884560836877,0.024454273571694052,0.07083444959187715,0.034172991153992076,0.08883910749114511
0.1154483,0.03933343175889518,0.051694029756757194,0.008044034093811873,0.023539965471754947,0.024339069980773433,0.07090782206665876,0.034277077422671894,0.08870711359371566
0.1159138,0.03907612988682996,0.05157830806240474,0.00810983541011329,0.02356782053131694,0.024221891486986436,0.07097853204554001,0.03438096059638124,0.08857296867383711
0.1163793,0.03881926616343186,0.051460534210938366,0.00817595544058696,0.023595451041909514,0.024102766298345235,0.07104656820788734,0.03448463789561864,0.08843669959937313
0.1168448,0.038562880118719195,0.05134073180039187,0.008242387038521579,0.023622858107819524,0.023981723130196638,0.07111191928395463,0.034588106489030025,0.08829833309807021
0.1173103,0.03830701103118551,0.05121892470991989,0.00830912290524187,0.0236500426337426,0.023858791198986366,0.07117457405927607,0.03469136349549353,0.08815789575258481
0.1177759,0.03805169791859984,0.051095137099543324,0.008376155591268402,0.023677005323400502,0.02373400021585203,0.07123452137914962,0.034794405986184516,0.0880154139956153
0.1182414,0.03779697952888362,0.05096939340983553,0.008443477497552837,0.023703746678270538,0.023607380380047907,0.07129175015320804,0.03489723098661912,0.08787091410514297
0.1187069,0.037542894331067535,0.050841718361546134,0.0085110808767889,0.023730266996430154,0.023478962372204835,0.0713462493600738,0.0349998354786747,0.0877244221997861
0.1191724,0.037289480506331484,0.05071213695515866,0.008578957834799388,0.023756566371519558,0.023348777347428174,0.07139800805209352,0.03510221640258565,0.08757596423427114
0.1196379,0.037036775939130843,0.050580674470378076,0.008647100331999483,0.02378264469182527,0.023216856928237047,0.07144701536014784,0.03520437065891344,0.08742556599502531
0.1201034,0.03678481820841205,0.05044735646554465,0.008715500184936602,0.023808501639487133,0.023083233197347997,0.07149326049853252,0.0353062951104898,0.08727325309589512
0.120569,0.03653364457892061,0.050312208776970235,0.008784149067906984,0.02383413668983137,0.02294793869030628,0.07153673276990673,0.035407986584332626,0.08711905097399548
0.1210345,0.036283291992604674,0.05017525751819284,0.008853038514649173,0.023859549110832042,0.0228110063879682,0.07157742157030504,0.03550944187353431,0.08696298488569464
0.1215,0.036033797060117105,0.05003652907914517,0.008922159920114553,0.023884737962703014,0.022672469708838,0.07161531639421018,0.03561065773912228,0.08680507990273975
0.1219655,0.03578519605241927,0.049896050125232905,0.00899150454231503,0.023909702097622554,0.022532362501262844,0.07165040683968361,0.03571163091189186,0.08664536090852903
0.122431,0.03553752489248924,0.04975384759631763,0.009061063504247971,0.023934440159592264,0.02239071903548972,0.07168268261355175,0.0358123580942116,0.08648385259453564
0.1228966,0.03529081914713733,0.0496099487055997,0.009130827795898423,0.02395895058443211,0.022247573995587987,0.07171213353664556,0.035912835961801504,0.08632057945688941
0.1233621,0.035045114018931456,0.04946438093839594,0.009200788276318725,0.023983231599912898,0.02210296247124148,0.07173874954909194,0.03601306116548488,0.08615556579312175
0.1238276,0.0348004443382348,0.049317172050807295,0.009270935675785468,0.024007281226027556,0.02195691994941397,0.07176252071565548,0.036113030332914534,0.08598883569907943
0.1242931,0.03455684455535787,0.049168350068271395,0.00934126059803388,0.024031097275402362,0.02180948230589193,0.07178343723112897,0.03621274007027413,0.08582041306601193
0.1247586,0.03431434873282708,0.049017943283995585,0.009411753522569523,0.024054677353849207,0.021660685796708552,0.0718014894257716,0.036312186963955335,0.0856503215778373
0.1252241,0.03407299053777169,0.04886598025726615,0.00948240480705726,0.024078018861059914,0.02151056704945303,0.07181666777079272,0.03641136758221112,0.08547858470859115
0.1256897,0.03383280323443084,0.048712489811629726,0.0095532046897873,0.024101118991443404,0.02135916305446915,0.07182896288387965,0.03651027847678539,0.08530522572006262
0.1261552,0.03359381967678273,0.04855750103294313,0.00962414329221809,0.024123974735106562,0.021206511155947242,0.07183836553476695,0.036608916184519266,0.08513026765962033
0.1266207,0.03335607230129804,0.04840104326728826,0.00969521062159574,0.024146582878979386,0.02105264904291369,0.07184486665084477,0.03670727722893384,0.0849537333582317
0.1270862,0.03311959311981971,0.04824314611874898,0.009766396573649604,0.024168940008084984,0.020897614740122115,0.07184845732280305,0.03680535812178943,0.08477564542867737
0.1275517,0.032884413712571836,0.04808383944704725,0.009837690935363583,0.02419104250695463,0.020741446598850476,0.07184912881030842,0.03690315536462112,0.08459602626396255
0.1280172,0.03265056522130026,0.04792315336503589,0.009909083387822613,0.024212886561188137,0.020584183287608256,0.07184687254771019,0.03700066545025058,0.08441489803592715
0.1284828,0.032418078342547424,0.047761118236045536,0.009980563509133736,0.02423446815915943,0.020425863782758007,0.07184168014977194,0.03709788486427409,0.0842322826940565
0.1289483,0.0321869833210642,0.04759776467108323,0.010052120777421061,0.024255783093867164,0.020266527359055594,0.07183354341742484,0.03719481008652651,0.0840482019644949
0.1294138,0.031957309943361246,0.04743312352588082,0.010123744573893843,0.024276826964930016,0.020106213580113417,0.07182245434353887,0.0372914375925211,0.0838626773492645
0.1298793,0.0317290875314024,0.04726722589779113,0.010195424185986833,0.024297595180726234,0.01994496228879104,0.07180840511870729,0.03738776385486429,0.08367573012569242
0.1303448,0.031502344936442835,0.04710010312253092,0.010267148810571962,0.024318082960676734,0.019782813597517518,0.07179138813703986,0.03748378534464489,0.08348738134604874
0.1308103,0.03127711053301503,0.04693178677076937,0.010338907557240339,0.024338285337671083,0.019619807878549868,0.07177139600195988,0.03757949853279645,0.08329765183739776
0.1312759,0.031053412213065845,0.046762308644561525,0.010410689451653502,0.024358197160635545,0.01945598575417199,0.07174842153200002,0.03767489989143164,0.08310656220166429
0.1317414,0.030831277380248347,0.04659170077362608,0.010482483438962787,0.024377813097242223,0.019291388086838408,0.07172245776659283,0.03776998589514713,0.08291413281591653
0.1322069,0.030610732944372256,0.04641999541146657,0.010554278387295609,0.024397127636758328,0.019126055969267114,0.07169349797185144,0.03786475302229757,0.08272038383286623
0.1326724,0.030391805316016752,0.04624722503133544,0.010626063091307415,0.024416135093034416,0.018960030714485734,0.07166153564633682,0.03795919775623742,0.08252533518158642
0.1331379,0.030174520401309433,0.04607342232204015,0.010697826275797958,0.02443482960763036,0.01879335384583514,0.07162656452680828,0.03805331658652951,0.08232900656844648
0.1336034,0.029958903596874954,0.04589862018359058,0.01076955659939052,0.024453205153077712,0.018626067086934553,0.07158857859395396,0.03814710601011984,0.08213141747826354
0.134069,0.029744979784956726,0.045722851722687655,0.010841242658272607,0.024471255536276874,0.01845821235161209,0.07154757207809799,0.03824056253247853,0.08193258717566912
0.1345345,0.0295327733287148,0.04554615024805267,0.01091287298999659,0.024488974402027474,0.018289831733804565,0.07150353946488146,0.038333682668706986,0.0817325347066891
0.135,0.029322308067702953,0.045368549265597705,0.010984436077338634,0.02450635523669011,0.0181209674974304,0.07145647550091327,0.03842646294461178,0.08153127890053467
0.1354655,0.029113607313527537,0.045190082473437185,0.011055920352214211,0.02452339137197757,0.017951662066239226,0.07140637519938788,0.03851889989774586,0.08132883837160174
0.135931,0.028906693845690626,0.04501078375674064,0.011127314199648386,0.02454007598887341,0.017781958013641793,0.07135323384566601,0.03861099007841814,0.08112523152167563
0.1363966,0.028701589907619608,0.04483068718242711,0.011198605961798965,0.024556402121675546,0.017611898052523556,0.07129704700281592,0.03870273005067292,0.08092047654233746
0.1368621,0.02849831720288521,0.04464982699370094,0.011269783942030561,0.024572362662162384,0.017441525025045264,0.07123781051711262,0.03879411639324126,0.08071459141756832
0.1373276,0.028296896891609725,0.044468237604429216,0.011340836409037446,0.024587950363878876,0.01727088189243369,0.07117552052349387,0.038885145700466875,0.08050759392654698
0.1377931,0.028097349587067,0.044285953593360766,0.01141175160101307,0.024603157846539544,0.017100011724765513,0.07111017345097201,0.038975814583209645,0.08029950164663677
0.1382586,0.027899695352475523,0.044103009698187194,0.011482517729863946,0.0246179776005455,0.01692895769074716,0.07104176602800118,0.03906611966972987,0.08009033195655683
0.1387241,0.0277039536979858,0.04391944080944616,0.011553122985465559,0.02463240199161226,0.016757763047493424,0.07097029528779908,0.03915605760655629,0.0798801020397336
0.1391897,0.027510143577863,0.04373528196426767,0.011623555539957873,0.024646423265504994,0.016586471130307416,0.07089575857362254,0.039245625059340816,0.07966882888782746
0.1396552,0.02731828338786569,0.04355056833996412,0.01169380355207793,0.024660033552877877,0.01641512534246428,0.0708181535439954,0.039334818713702625,0.07945652930443003
0.1401207,0.0271283909628214,0.04336533524746481,0.011763855171526958,0.024673224874213927,0.016243769145001117,0.07073747817788723,0.039423635276064045,0.07924321990892663
0.1405862,0.02694048357439962,0.04317961812459564,0.011833698543369367,0.024685989144861663,0.016072446046515372,0.07065373077984079,0.03951207147448019,0.07902891714051799
0.1410517,0.026754577929082455,0.042993452529204536,0.011903321812460997,0.02469831818016489,0.015901199592973918,0.0705669099850459,0.0396001240594641,0.07881363726239478
0.1415172,0.026570690166333358,0.04280687413213314,0.011972713127903961,0.024710203700681794,0.01573007335753507,0.07047701476435696,0.03968778980480905,0.0785973963660576
0.1419828,0.0263888358569639,0.04261991871003524,0.012041860647525427,0.024721637337489603,0.015559110930385674,0.0703840444292511,0.03977506550840922,0.07838021037577499
0.1424483,0.026209030001698497,0.04243262213804293,0.012110752542377643,0.02473261063757101,0.015388355908595422,0.07028799863672394,0.03986194799308033,0.07816209505317118
0.1429138,0.026031287029936772,0.042245020382282075,0.012179377001256502,0.024743115069278433,0.015217851885990605,0.0701888773941192,0.039948434107381484,0.07794306600193525
0.1433793,0.025855620798713064,0.04205714949223949,0.012247722235235918,0.024753142027872342,0.015047642443049476,0.07008668106388895,0.04003452072644019,0.07772313867264248
0.1438448,0.025682044591852284,0.041869045592984724,0.01231577648221533,0.02476268284112965,0.014877771136821538,0.06998141036828089,0.04012020475278189,0.07750232836767877
0.1443103,0.025510571119321337,0.041680744877250105,0.012383528011477643,0.024771728775018115,0.014708281490873004,0.06987306639394979,0.040205483117165854,0.07728065024625921
0.1447759,0.02534121251677509,0.041492283597372455,0.012450965128254941,0.02478027103943279,0.014539216985260872,0.06976165059649014,0.04029035277942898,0.07705811932953223
0.1452414,0.025173980345295832,0.041303698057100255,0.012518076178299257,0.024788300793990338,0.014370621046538025,0.06964716480488832,0.04037481072933897,0.07683475050576251
0.1457069,0.025008885591324956,0.04111502460326983,0.012584849552455639,0.02479580915387703,0.014202537037791884,0.06952961122589278,0.04045885398745823,0.0766105585355865
0.1461724,0.02484593866678553,0.04092629961735445,0.01265127369123473,0.024802787195746294,0.014035008248719151,0.06940899244830154,0.04054247960601989,0.07638555805733552
0.1466379,0.024685149409394123,0.04073755950689059,0.012717337089381948,0.024809225963661502,0.013868077885739263,0.0692853114471661,0.04062568466981705,0.07615976359242216
0.1471034,0.024526527083160148,0.040548840696785896,0.012783028300440254,0.024815116475079845,0.013701789062149097,0.06915857158791118,0.04070846629710639,0.07593318955078585
0.147569,0.024370080379070774,0.04036017962051394,0.012848335941303466,0.024820449726873067,0.01353618478832159,0.06902877663036962,0.04079082164052687,0.07570585023639376
0.1480345,0.024215817415959132,0.04017161271120142,0.012913248696756854,0.02482521670138102,0.013371307961950844,0.06889593073273183,0.04087274788803424,0.07547775985279342
0.1485,0.024063745741553445,0.039983176392613645,0.012977755324001784,0.02482940837249416,0.01320720135834621,0.06876003845540905,0.040954242263851554,0.07524893250871342
0.1489655,0.02391387233370442,0.039794907070044475,0.013041844657161029,0.02483301571176088,0.013043907620777858,0.06862110476480936,0.041035302029436206,0.07501938222370873
0.149431,0.02376620360178822,0.03960684112111682,0.013105505611761312,0.024836029694515642,0.012881469250876187,0.06847913503702506,0.041115924484463204,0.07478912293384696
0.1498966,0.023620745388281864,0.03941901488649995,0.013168727189189695,0.024838441306023754,0.012719928599087384,0.06833413506143005,0.04119610696782469,0.07455816849743188
0.1503621,0.023477502970507973,0.03923146466054971,0.013231498481120544,0.02484024154763846,0.012559327855187312,0.06818611104418552,0.0412758468586454,0.07432653270075996
0.1508276,0.023336481062545412,0.039044226681877715,0.013293808673910012,0.02484142144296591,0.01239970903885583,0.068035069611652,0.04135514157731367,0.0740942292639059
0.1512931,0.023197683817302337,0.03885733712385566,0.013355647052955262,0.024841972044033347,0.012241113990313588,0.06788101781370537,0.04143398858652728,0.07386127184653238
0.1517586,0.023061114828748064,0.038670832085061,0.013417003007015892,0.02484188443745576,0.012083584361023214,0.06772396312695435,0.04151238539235367,0.07362767405371888
0.1522241,0.0229267771343,0.038484747579670374,0.013477866032495227,0.024841149750595974,0.011927161604456765,0.06756391345785613,0.04159032954530327,0.07339344944180366
0.1526897,0.022794673217362005,0.038299119527807075,0.01353822573767918,0.024839759157713304,0.011771886966931247,0.06740087714572716,0.04166781864141563,0.07315861152423307
0.1531552,0.022664805010010627,0.03811398374584915,0.01359807184693052,0.02483770388609562,0.011617801478513882,0.06723486296564578,0.0417448503233576,0.07292317377741138
0.1536207,0.022537173895825695,0.03792937593670456,0.013657394204836313,0.024834975222169712,0.011464945943998722,0.06706588013124365,0.04182142228153374,0.07268714964654437
0.1540862,0.022411780712861915,0.03774533168006022,0.013716182780306412,0.024831564517584736,0.01131336093395619,0.06689393829738303,0.04189753225520921,0.07245055255146968
0.1545517,0.022288625756758305,0.03756188642261202,0.013774427670621014,0.024827463195263518,0.011163086775856961,0.06671904756271652,0.04197317803364553,0.07221339589246682
0.1550172,0.022167708783982127,0.03737907546828324,0.013832119105425549,0.024822662755416235,0.011014163545271596,0.06654121847212673,0.04204835745724987,0.07197569305604011
0.1554828,0.02204902901520418,0.03719693396843922,0.013889247450671473,0.024817154781511093,0.010866631057147224,0.06636046201904273,0.04212306841873828,0.07173745742066748
0.1559483,0.02193258513880219,0.03701549691210607,0.013945803212501839,0.02481093094619641,0.010720528857162528,0.06617678964763093,0.042197308864313054,0.07149870236250785
0.1564138,0.021818375314489002,0.03683479911620193,0.01400177704108088,0.02480398301716874,0.010575896213162236,0.06599021325485732,0.04227107679485426,0.07125944126105935
0.1568793,0.021706397177062256,0.03665487521578883,0.014057159734367091,0.024796302862981567,0.010432772106672197,0.06580074519241877,0.0423443702671251,0.07101968750476036
0.1573448,0.021596647840272182,0.03647575965435344,0.014111942241829508,0.024787882458789327,0.010291195224496104,0.0656083982685403,0.04241718739499067,0.07077945449652506
0.1578103,0.021489123900804125,0.036297486674124774,0.014166115668107026,0.02477871389202149,0.010151203950394875,0.0654131857496356,0.04248952635064985,0.07053875565920464
0.1582759,0.02138382144237249,0.036120090306436564,0.014219671276610585,0.02476878936798159,0.010012836356849675,0.065215121361828,0.04256138536587951,0.07029760444096513
0.1587414,0.021280736039922758,0.035943604362142216,0.014272600493068046,0.024758101215366115,0.009876130196909465,0.0650142192923299,0.0426327627332905,0.07005601432057276
0.1592069,0.02117986276393796,0.03576806242208955,0.014324894909011511,0.02474664189169823,0.009741122896123914,0.06481049419067966,0.04270365680759481,0.06981399881257747
0.1596724,0.021081196184846215,0.03559349782766261,0.014376546285206784,0.02473440398867135,0.009607851544562486,0.0646039611698354,0.042774066006883174,0.06957157147238546
0.1601379,0.020984730377525584,0.0354199436713975,0.014427546555024685,0.024721380237397683,0.00947635288892036,0.06439463580712616,0.04284398881391298,0.06932874590121278
0.1606034,0.02089045892590233,0.03524743278767901,0.01447788782775396,0.024707563513556796,0.009346663324711853,0.06418253414506167,0.04291342377740625,0.06908553575091225
0.161069,0.020798374927638683,0.03507599774352465,0.014527562391855521,0.02469294684243983,0.009218818888551932,0.06396767269200213,0.04298236951335818,0.06884195472866728
0.1615345,0.02070847099890597,0.03490567082946292,0.014576562718157928,0.024677523403885092,0.009092855250526402,0.06375006842269008,0.04305082470635677,0.06859801660154632
0.162,0.020620739279239096,0.03473648405051213,0.014624881462993974,0.02466128653710112,0.008968807706651318,0.06352973877864607,0.043118788110914213,0.06835373520091229
0.1624655,0.02053517143646812,0.03456846911726615,0.014672511471278377,0.024644229745373617,0.008846711171422212,0.06330670166842971,0.04318625855281095,0.0681091244266812
0.162931,0.02045175867172299,0.03440165743709347,0.014719445779526585,0.024626346700652873,0.008726600170453735,0.06308097546776767,0.04325323493045339,0.06786419825142508
0.1633966,0.020370491724507254,0.03423608010545518,0.01476567761881473,0.024607631248018777,0.008608508833210298,0.0628525790195494,0.04331971621624605,0.06761897072431364
0.1638621,0.02029136087783672,0.03407176789734771,0.014811200417680746,0.024588077410020708,0.00849247088582831,0.06262153163369114,0.043385701457978876,0.06737345597489032
0.1643276,0.020214355963439033,0.0339087512588756,0.014856007804966714,0.024567679390889958,0.008378519644030517,0.06238785308686884,0.04345118978023061,0.06712766821667832
0.1647931,0.020139466367010236,0.03374706029895951,0.014900093612602425,0.024546431580622384,0.008266688006132951,0.062151563622120064,0.043516180385789034,0.06688162175061257
0.1652586,0.020066681033524405,0.033586724781184456,0.014943451878330134,0.02452432855892899,0.008157008446144878,0.061912683948315395,0.04358067255708877,0.0666353309682944
0.1657241,0.019995988472592513,0.0334277741157929,0.014986076848370418,0.02450136509905219,0.00804951300696213,0.06167123523949969,0.04364466565766767,0.06638881035506539
0.1661897,0.0199273767638667,0.03327023735182714,0.015027962980029032,0.024477536171445657,0.007944233293654105,0.06142723913410363,0.0437081591336426,0.06614207449289813
0.1666552,0.019860833562486035,0.03311414316942506,0.015069104944244722,0.02445283694731625,0.00784120046684476,0.06118071773402605,0.04377115251520523,0.06589513806310156
0.1671207,0.01979634610456014,0.0329595198722734,0.015109497628077966,0.024427262802027217,0.007740445236187896,0.060931693603587675,0.043833645418138646,0.06564801584884004
0.1675862,0.019733901212687085,0.03280639538022193,0.015149136137140718,0.024400809318363047,0.007641997853937072,0.06068018976835692,0.04389563754535556,0.06540072273746649
0.1680517,0.01967348530150235,0.03265479722206232,0.015188015797967283,0.024373472289657007,0.0075458881086105985,0.060426229713848784,0.04395712868845906,0.06515327372267035
0.1685172,0.019615084383256053,0.032504752528474574,0.015226132160326455,0.024345247722783202,0.007452145318752011,0.060169837384097556,0.04401811872932721,0.06490568390644208
0.1689828,0.01955868407341623,0.03235628802514422,0.015263480999475106,0.02431613184101528,0.007360798326786521,0.05991103718010415,0.044078607641722986,0.0646579685008556
0.1694483,0.019504269596296406,0.03220943002605274,0.015300058318353333,0.024286121086754025,0.007271875492973863,0.05964985395815831,0.04413859549293117,0.06441014282967063
0.1699138,0.019451825790706312,0.032064204426943854,0.015335860349721231,0.024255212124126437,0.0071854046894580005,0.05938631302803576,0.04419808244542372,0.06416222232975702
0.1703793,0.01940133711562484,0.03192063669896761,0.01537088355823729,0.02422340184145894,0.007101413294414034,0.05912044015106989,0.04425706875855468,0.06391422255234339
0.1708448,0.019352787655894637,0.031778751882504425,0.0154051246424783,0.024190687353627536,0.007019928186292678,0.05885226153809767,0.04431555479028588,0.06366615916409245
0.1713103,0.01930616112793805,0.031638574581170614,0.015438580536900594,0.02415706600428782,0.006940975738162583,0.05858180384727889,0.044373540998943896,0.06341804794800565
0.1717759,0.019261440885494474,0.031500128956006734,0.015471248413742325,0.02412253536798782,0.006864581812150775,0.05830909418178845,0.04443102794500891,0.06316990480415953
0.1722414,0.019218609925379552,0.03136343871984993,0.015503125684866498,0.024087093252166403,0.006790771753981475,0.058034160087380826,0.044488016292935605,0.06292174575027602
0.1727069,0.01917765089326706,0.031228527131891212,0.015534210003544347,0.024050737699040096,0.006719570387613551,0.05775702954982566,0.04454450681300615,0.06267358692212933
0.1731724,0.01913854608949447,0.031095416992418124,0.01556449926617869,0.024013466987380792,0.006651002009976909,0.057477730992213434,0.04460050038321495,0.06242544457379142
0.1736379,0.01910127747489341,0.030964130637743167,0.01559399161396681,0.023975279634186827,0.006585090385808151,0.0571962932721295,0.04465599799118451,0.062177335077718235
0.1741034,0.019065826676646115,0.030834689935318065,0.015622685434502388,0.02393617439624987,0.006521858742585874,0.05691274567869453,0.04471100073611165,0.06192927492467868
0.174569,0.019032174994169076,0.030707116279033664,0.01565057936331594,0.02389615027161993,0.006461329765566012,0.05662711792946954,0.04476550983074274,0.06168128072352822
0.1750345,0.019000303405024874,0.030581430584705124,0.01567767228535312,0.023855206500970758,0.006403525592917645,0.056339440167223365,0.04481952660337654,0.06143336920082904
0.1755,0.0189701925708632,0.03045765328574173,0.015703963336390164,0.023813342568867857,0.006348467810959648,0.056049742956560594,0.044873052499892506,0.061185557200318416
0.1759655,0.018941822843391836,0.03033580432900066,0.015729451904385742,0.023770558204940954,0.006296177449498556,0.055758057280408044,0.04492608908580243,0.06093786168222699
0.176431,0.018915174270378317,0.030215903170823823,0.01575413763076837,0.023726853384962898,0.006246674977267951,0.0554644145363579,0.04497863804832289,0.060690299722448764
0.1768966,0.018890226601682818,0.030097968773256652,0.015778020411658586,0.023682228331836648,0.006199980297469661,0.05516884653286572,0.045030701198465695,0.0604428885115642
0.1773621,0.018866959295322797,0.029982019600447555,0.015801100399025044,0.02363668351649188,0.006156112743416974,0.05487138548530171,0.04508228047314396,0.060195645353718234
0.1778276,0.01884535152356979,0.029868073615226618,0.01582337800177368,0.023590219658692662,0.006115091074280109,0.054572064011853605,0.04513337793729133,0.059948587665354984
0.1782931,0.018825382179078688,0.029756148275861736,0.01584485388676912,0.023542837727757494,0.006076933470934064,0.05427091512927951,0.045183995785992456,0.05970173297381153
0.1787586,0.018807029881049698,0.02964626053299044,0.015865528979787397,0.023494538943192818,0.006041657531909004,0.05396797224850891,0.04523413634662257,0.059455098915773566
0.1792241,0.018790272981423252,0.029538426826725677,0.015885404466399165,0.023445324775240903,0.006009280269443319,0.053663269170090115,0.04528380208099451,0.059208703235595794
0.1796897,0.01877508957110788,0.029432663083933955,0.01590448179278254,0.023395196945342936,0.005979818105639493,0.05335684007948265,0.04533299558751113,0.05896256378349017
0.1801552,0.018761457486241195,0.0293289847156846,0.015922762666464765,0.0233441574265178,0.005953286868722958,0.05304871954219306,0.04538171960332112,0.058716698513585054
0.1806207,0.01874935431448398,0.029227406614869257,0.015940249056991852,0.02329220844365705,0.00592970178940413,0.052738942498752744,0.045429977006475795,0.05847112548185857
0.1810862,0.018738757401347443,0.029127943153990747,0.015956943196525367,0.023239352473736426,0.005909077497343883,0.05242754425953696,0.04547777081808426,0.05822586284394985
0.1815517,0.018729643856553548,0.029030608183120612,0.015972847580365553,0.023185592245944017,0.00589142801772277,0.05211456049942348,0.045525104204463894,0.05798092885285211
0.1820172,0.018721990560428357,0.028935415028024474,0.015987964967399956,0.023130930741725134,0.005876766767914278,0.051800027252290076,0.04557198047928281,0.05773634185649164
0.1824828,0.018715774170328263,0.02884237648845438,0.016002298380476686,0.0230753711947439,0.005865106554262417,0.05148398090534979,0.04561840310569084,0.0574921202951967
0.1829483,0.018710971127098706,0.028751504836607163,0.01601585110670142,0.02301891709076152,0.005856459568963919,0.05116645819332343,0.045664375698435004,0.05724828269906049
0.1834138,0.018707557661565025,0.028662811815748042,0.016028626697657183,0.022961572167431422,0.005850837387055277,0.05084749619244897,0.04570990202595574,0.05700484768520163
0.1838793,0.018705509801054832,0.028576308638998845,0.0160406289695459,0.022903340414011313,0.005848250963504914,0.05052713231432788,0.045754986012459954,0.05676183395492559
0.1843448,0.018704803375951144,0.02849200598829055,0.016051862003250553,0.02284422607099249,0.005848710630410699,0.050205404299609145,0.04579963173996704,0.05651926029078985
0.1848103,0.01870541402627543,0.0284099140134802,0.016062330144316767,0.022784233629646856,0.005852226094303094,0.0498823502115125,0.04584384345032428,0.05627714555357588
0.1852759,0.018707317208299594,0.028330042331632433,0.0160720380028525,0.02272336783149197,0.005858806433554105,0.049558008429192814,0.04588762554718803,0.056035508679170336
0.1857414,0.018710488201185736,0.028252400026466222,0.01608099045334439,0.02266163366767458,0.00586846009589225,0.04923241764094841,0.045930982597967275,0.05579436867535831
0.1862069,0.01871490211365249,0.028176995647967495,0.01608919263438923,0.022599036378273193,0.005881194896023682,0.0489056168372771,0.04597391933572639,0.05555374461853102
0.1866724,0.018720533890666677,0.02810383721216839,0.016096649948338947,0.02253558145152009,0.0058970180133595795,0.04857764530378419,0.04601644066104403,0.055313655650310344
0.1871379,0.018727358320158906,0.02803293220109387,0.01610336806085733,0.02247127462294321,0.0059159359898498486,0.04824854261394748,0.046058551643824976,0.05507412097409204
0.1876034,0.018735350039761765,0.027964287562876274,0.01610935290038674,0.02240612187442844,0.005937954727923162,0.04791834862174501,0.046100257525061875,0.054835159851509274
0.188069,0.01874448354356933,0.027897909712038184,0.016114610657522847,0.022340129433202686,0.005963079488533296,0.04758710345415131,0.046141563718543756,0.054596791598817765
0.1885345,0.018754733188916694,0.02783380452994391,0.01611914778429551,0.022273303770738283,0.00599131488931169,0.047254847503508064,0.04618247581250805,0.054359035583203735
0.189,0.018766073203178225,0.02777197736541955,0.016122970993353938,0.022205651601579276,0.006022664902826097,0.04692162141977496,0.04622299957123327,0.054121911219015405
0.1894655,0.018778477690583453,0.027712433035541502,0.01612608725705423,0.022137179882090085,0.00605713285494517,0.04658746610266654,0.04626314093656983,0.05388543796391917
0.189931,0.018791920639049317,0.02765517582659318,0.016128503806447512,0.022067895809127155,0.006094721423308767,0.046252422693680635,0.04630290602940696,0.053649635314981355
0.1903966,0.018806375927027736,0.0276002094951894,0.016130228130166853,0.021997806818634117,0.006135432635903743,0.045916532568023825,0.046342301151074045,0.05341452280467697
0.1908621,0.018821817330367262,0.027547537269567886,0.016131267973211346,0.021926920584161062,0.00617926786974494,0.045579837326439394,0.04638133278467459,0.05318011999682669
0.1913276,0.018838218529187656,0.027497161851047,0.01613163133562577,0.02185524501530867,0.006226227849661132,0.04524237878694323,0.04642000759635145,0.05294644648246354
0.1917931,0.01885555311476612,0.027449085415648753,0.016131326471074407,0.021782788256098022,0.006276312647185676,0.04490419897647285,0.04645833243648164,0.05271352187563083
0.1922586,0.018873794596433936,0.027403309615886138,0.016130361885307875,0.021709558683266957,0.006329521679551609,0.04456534012245459,0.046496314340798865,0.05248136580911288
0.1927241,0.018892916408482095,0.02735983558271338,0.016128746334522086,0.021635564904493882,0.006385853708790999,0.044225844644294104,0.04653396053144213,0.05224999793010044
0.1931897,0.0189128919170745,0.027318663927637838,0.016126488823608606,0.02156081575654999,0.006445306840938338,0.04388575514479477,0.04657127841792892,0.05201943789579208
0.1936552,0.01893369442716732,0.02727979474499203,0.016123598604295995,0.021485320303380694,0.006507878525337816,0.04354511440150859,0.04660827559805134,0.05178970536893318
0.1941207,0.018955297189432844,0.027243227614364065,0.016120085173181933,0.021409087834117133,0.006573565554054429,0.043203965358023975,0.04664495985869388,0.051560820013293686
0.1945862,0.018977673407186292,0.027208961603184728,0.016115958269656394,0.02133212786101827,0.006642364061388912,0.042862351115194555,0.04668133917657101,0.05133280148908589
0.1950517,0.019000796243313724,0.02717699526946934,0.01611122787371662,0.0212544501173441,0.006714269523496693,0.04252031492231304,0.04671742171888331,0.05110566944832324
0.1955172,0.019024638827199188,0.02714732666471247,0.016105904203675248,0.02117606455516032,0.006789276758111189,0.04217790016823407,0.046753215843891055,0.050879443530121464
0.1959828,0.019049174261649062,0.02711995333693355,0.016099997713763567,0.021096981343074594,0.006867379924371809,0.041835150372450024,0.046788730101404725,0.05065414335594328
0.1964483,0.01907437562981147,0.02709487233387149,0.016093519091632178,0.02101721086390457,0.0069485725227572456,0.04149210917612369,0.04682397323319234,0.050429788524788556
0.1969138,0.019100216002088503,0.027072080206326343,0.01608647925575165,0.020936763712277453,0.007032847395124655,0.041148820333081565,0.04685895417330384,0.05020639860833251
0.1973793,0.01912666844303902,0.027051573011646037,0.01607888935271574,0.020855650692160974,0.007120196724855428,0.0408053277007713,0.04689368204831267,0.049983993146014725
0.1978448,0.019153706018269826,0.0270333463173561,0.016070760754449787,0.02077388281432539,0.007210612037108311,0.04046167523118677,0.046928166177474855,0.049762591640082655
0.1983103,0.019181301801312996,0.02701739520493035,0.016062105055326736,0.02069147129373605,0.007304084199180768,0.04011790696176364,0.04696241607280497,0.049542213550593295
0.1987759,0.019209428880487302,0.027003714273700234,0.016052934069193173,0.020608427546876057,0.0074006034209794565,0.03977406700624834,0.04699644143906882,0.04932287829037714
0.1992414,0.01923806036574169,0.026992297644900617,0.016043259826307575,0.020524763188998516,0.0075001592556007595,0.03943019954554283,0.04703025217369172,0.049104605219968525
0.1997069,0.019267169395478956,0.02698313896584966,0.016033094570192963,0.020440490031307924,0.007602740600022307,0.03908634881852765,0.04706385836658138,0.04888741364250658
0.2001724,0.01929672914335765,0.02697623141426018,0.016022450754405945,0.020355620078070416,0.007708335695906372,0.0387425591128652,0.04709727029986384,0.04867132279861063
0.2006379,0.019326712825070463,0.02697156770267996,0.016011341039224046,0.020270165523652833,0.00781693213051601,0.03839887475578569,0.04713049844753108,0.04845635186123378
0.2011034,0.0193570937050972,0.02696914008305822,0.01599977828825318,0.02018413874949084,0.007928516837744828,0.038055340104857775,0.047163553474999086,0.04824251993049812
0.201569,0.019387845103430605,0.02696894035143528,0.015987775564956976,0.020097552320986728,0.008043076099261219,0.03771199953874624,0.04719644623857511,0.04802984602851434
0.2020345,0.019418940402273262,0.026970959852752344,0.01597534612910959,0.020010418984337735,0.008160595545767937,0.03736889744795895,0.0472291877848335,0.04781834909418817
0.2025,0.019450353052703973,0.026975189485778112,0.015962503433173625,0.019922751663296046,0.008281060158377897,0.03702607822558556,0.04726178934989957,0.04760804797801602
0.2029655,0.019482056581311986,0.026981619708148972,0.015949261118604768,0.019834563455861605,0.008404454270107043,0.036683586258030164,0.047294262358641016,0.04739896143687156
0.203431,0.019514024596797606,0.026990240541519214,0.015935633012084595,0.019745867630909065,0.008530761567485178,0.03634146591574039,0.04732661842376657,0.04719110812878499
0.2038966,0.019546230796537892,0.027001041576817708,0.015921633121683102,0.01965667762475011,0.008659965092285598,0.035999761543935534,0.047358869344831564,0.046984506607716574
0.2043621,0.019578648973116182,0.027014011979607268,0.015907275632952394,0.01956700703763244,0.00879204724337436,0.03565851745333619,0.04739102710715005,0.046779175318326
0.2048276,0.01961125302081427,0.02702914049554276,0.015892574904953036,0.01947686963017667,0.00892698977868007,0.035317777910898004,0.04742310388061377,0.046575132590739324
0.2052931,0.019644016942066075,0.027046415455924063,0.01587754546621448,0.01938627931975245,0.009064773817285088,0.03497758713055173,0.047455112018417935,0.046372396635315234
0.2057586,0.019676914853871633,0.02706582478333972,0.015862202010631,0.019295250176795228,0.009205379841639065,0.03463798926395182,0.047487064055694146,0.04617098553741273
0.2062241,0.01970992099417012,0.02708735599739751,0.015846559393294445,0.01920379642106516,0.0093487876998958,0.0342990283912355,0.04751897270805086,0.04597091725216234
0.2066897,0.019743009728170648,0.02711099622053823,0.01583063262626514,0.019111932417849885,0.0094949766083744,0.033960748511793995,0.04755085087002186,0.04577220959924319
0.2071552,0.019776155554639612,0.02713673218392939,0.01581443687428202,0.01901967267411263,0.00964392515414573,0.03362319353505762,0.04758271161342418,0.045574880257668024
0.2076207,0.019809333112143366,0.02716455023343551,0.015797987450413196,0.018927031834587254,0.009795611297745213,0.03328640727129634,0.047614568185627246,0.04537894676057869
0.2080862,0.01984251718524523,0.027194436335662025,0.015781299811647987,0.018834024677821512,0.00995001237601297,0.03295043342243738,0.04764643400773594,0.04518442649005446
0.2085517,0.01987568271065596,0.02722637608406961,0.01576438955443154,0.01874066611216986,0.010107105105062367,0.0326153155729016,0.04767832267269025,0.04499133667193531
0.2090172,0.01990880478333694,0.027260354705155712,0.01574727241014315,0.0186469711717369,0.010266865583377948,0.03228109718046003,0.04771024794328466,0.04479969437066247
0.2094828,0.019941858662555458,0.027296357064700034,0.015729964240519475,0.018552955012272405,0.010429269295043819,0.03194782156711217,0.04774222375011013,0.0446095164841385
0.2099483,0.01997481977789166,0.027334367674070402,0.01571248103302391,0.01845863290701881,0.01059429111310342,0.031615531909987386,0.047774264189422086,0.04442081973860907
0.2104138,0.020007663735196652,0.027374370696585514,0.01569483889616335,0.01836402024251192,0.010761905303051723,0.0312842712322709,0.04780638352093786,0.04423362068356847
0.2108793,0.020040366322501384,0.027416349953930674,0.015677054054753718,0.0182691325143355,0.010932085526460763,0.030954082394155737,0.047838596165567605,0.04404793568669144
0.2113448,0.020072903515875727,0.027460288932622735,0.01565914284513548,0.018173985322830447,0.011104804844739387,0.030625008083822115,0.04787091670308264,0.04386378092879341
0.2118103,0.02010525148523718,0.027506170790520167,0.015641121710340437,0.018078594368759086,0.011280035723028149,0.03029709080844551,0.0479033598697257,0.04368117239882122
0.2122759,0.020137386600108404,0.02755397836337449,0.015623007195210963,0.017982975448925447,0.011457750034230154,0.029970372885234683,0.04793594055576691,0.043500125888876404
0.2127414,0.020169285435322707,0.02760369417141937,0.015604815941472838,0.017887144451752202,0.011637919063178645,0.02964489643250062,0.0479686738030092,0.0433206569892725
0.2132069,0.020200924776676375,0.02765530042599411,0.015586564682762738,0.01779111735281519,0.011820513510942068,0.02932070336075727,0.04800157480224664,0.04314278108362876
0.2136724,0.020232281626526776,0.02770877903619861,0.015568270239611418,0.017694910210336628,0.012005503499267323,0.028997835363854717,0.048034658890678844,0.04296651334400209
0.2141379,0.020263333209334974,0.027764111615577246,0.01554994951438359,0.01759853916063826,0.012192858575161834,0.028676333910145325,0.048067941549284565,0.042791868726060014
0.2146034,0.020294056977151524,0.027821279488829644,0.01553161948617542,0.017502020413555853,0.012382547715615007,0.02835624023368341,0.04810143840015769,0.042618861964297206
0.215069,0.020324430615044096,0.02788026369854674,0.015513297205670499,0.017405370247816642,0.012574539332459672,0.028037595325458763,0.048135165203808776,0.04244750756729855
0.2155345,0.020354432046465476,0.02794104501197097,0.015494999789955112,0.017308605006381428,0.012768801277373974,0.02772043992466476,0.048169137856435125,0.04227781981305149
0.216,0.02038403943856033,0.028003603927779414,0.015476744417293506,0.01721174109175306,0.01296530084702421,0.02740481451000186,0.048203372387162075,0.04210981274431042
0.2164655,0.020413231207409056,0.028067920682888912,0.01545854832186386,0.017114794961253222,0.013164004788349008,0.027090759291017456,0.048237884955257965,0.04194350016401575
0.216931,0.020441986023206925,0.02813397525928213,0.015440428788455765,0.01701778312226946,0.013364879303985238,0.02677831419948333,0.048272691847325,0.04177889563076984
0.2173966,0.020470282815376644,0.028201747390853345,0.015422403147130092,0.016920722127474395,0.013567890057836044,0.02646751888081205,0.04830780947446788,0.04161601245437226
0.2178621,0.020498100777612244,0.028271216570272897,0.01540448876784222,0.016823628570019202,0.01377300218078127,0.026158412685514228,0.04834325436944181,0.04145486369141583
0.2183276,0.02052541937285214,0.028342362055868858,0.015386703055029772,0.016726519078703418,0.013980180276530587,0.02585103466069872,0.048379043183781285,0.041295462140945274
0.2187931,0.020552218338178992,0.02841516287852453,0.01536906344216617,0.016629410313123084,0.014189388427619559,0.02554542354161812,0.04841519268491091,0.04113782034017981
0.2192586,0.020578477689643847,0.028489597848590106,0.015351587386281413,0.016532318958799284,0.014400590201548784,0.025241617743261974,0.048451719753239364,0.04098195056030107
0.2197241,0.02060417772701194,0.028565645562806843,0.015334292362451757,0.016435261722288964,0.014613748657066288,0.024939655352000222,0.048488641379237286,0.04082786480230799
0.2201897,0.020629299038427498,0.02864328441124189,0.015317195858260087,0.016338255326279964,0.01482882635059328,0.02463957411727945,0.04852597466049998,0.04067557479294049
0.2206552,0.020653822504994732,0.028722492584231665,0.015300315368228878,0.016241316504672164,0.0150457853427933,0.0243414114433746,0.04856373679879553,0.04052509198067384
0.2211207,0.020677729305272407,0.02880324807933174,0.015283668388227629,0.01614446199764675,0.015264587205284801,0.024045204381198865,0.04860194509709843,0.04037642753178576
0.2215862,0.020701000919679063,0.028885528708270852,0.015267272409856616,0.016047708546725676,0.015485193027497153,0.0237509896201747,0.04864061695660867,0.04022959232649843
0.2220517,0.0207236191348062,0.0289693121039068,0.015251144914808817,0.01595107288982364,0.015707563423670093,0.023458803480168756,0.048679769873756086,0.04008459695519777
0.2225172,0.0207455660476365,0.029054575727181554,0.015235303369211669,0.015854571756294917,0.01593165853999668,0.023168681903493762,0.048719421437188895,0.039941451714732526
0.2229828,0.02076682406966433,0.02914129687407297,0.01521976521795036,0.01575822186197765,0.016157438061909845,0.022880660446980457,0.04875958932474555,0.03980016660479561
0.2234483,0.020787375930915713,0.029229452682540243,0.015204547878974252,0.015662039904238145,0.016384861221512566,0.022594774274122854,0.04880029130040834,0.03966075132439029
0.2239138,0.02080720468386495,0.02931902013946013,0.015189668737588062,0.01556604255701803,0.016613886805151697,0.02231105814730043,0.048841545211236924,0.03952321526838381
0.2243793,0.020826293707245192,0.029409976087550912,0.015175145140729415,0.01547024646588692,0.0168444731611353,0.022029546420081075,0.04888336898427981,0.03938756752415076
0.2248448,0.020844626709750128,0.02950229723228104,0.015160994391234403,0.015374668243103415,0.017076578207593292,0.0217502730296087,0.04892578062346147,0.03925381686830887
0.2253103,0.020862187733623857,0.029595960148759502,0.015147233742092907,0.015279324462687118,0.017310159440481063,0.021473271489079522,0.048968798206442496,0.03912197176354906
0.2257759,0.02087896115813597,0.029690941288605097,0.015133880390695496,0.015184231655504284,0.017545173941725795,0.021198574880310767,0.049012439881449966,0.038992040355561954
0.2262414,0.020894931702938824,0.029787216986791855,0.01512095147307376,0.015089406304369583,0.017781578387515047,0.020926215846405576,0.04905672386407488,0.03886403047006261
0.2267069,0.020910084431303915,0.029884763468468096,0.015108464058136135,0.014994864839166375,0.01801932905672737,0.020656226584517663,0.04910166843403297,0.038737949609915064
0.2271724,0.02092440475323443,0.0299835568557467,0.015096435141901234,0.014900623631987785,0.018258381839504616,0.020388638838719147,0.04914729193188536,0.03861380495235819
0.2276379,0.020937878428451014,0.03008357317446416,0.015084881641730928,0.01480669899230071,0.018498692245965655,0.020123483892974695,0.049193612755714856,0.03849160334633401
0.2281034,0.020950491569248098,0.030184788360906042,0.015073820390565405,0.014713107162134854,0.018740215415061205,0.019860792564225047,0.04924064935775345,0.03837135130991975
0.228569,0.020962230643218185,0.030287178268496386,0.015063268131162532,0.014619864311298745,0.018982906123569482,0.019600595195582847,0.04928842024095637,0.03825305502786419
0.2290345,0.020973082475841648,0.03039071867444849,0.015053241510343962,0.014526986532624738,0.0192267187952323,0.019342921649643522,0.049336943955517756,0.03813672034922924
0.2295,0.020983034252939927,0.030495385286374244,0.015043757073250424,0.014434489837244838,0.01947160751003136,0.019087801301914006,0.0493862390953225,0.0380223527851371
0.2299655,0.020992073522990123,0.030601153748849117,0.015034831257608709,0.014342390149899258,0.01971752601360455,0.018835263034362042,0.049436324294329065,0.037909957506623786
0.230431,0.02100018819929948,0.030707999649929776,0.015026480388012792,0.014250703304279619,0.019964427726802174,0.018585335229088864,0.04948721822287751,0.03779953934259992
0.2308966,0.021007366562038478,0.030815898527621337,0.0150187206702216,0.014159445038408682,0.020212265755382992,0.01833804576212792,0.0495389395839168,0.03769110277791969
0.2313621,0.02101359726013177,0.030924825876291438,0.015011568185475794,0.01406863099005861,0.020460992899850046,0.018093421997372378,0.04959150710914548,0.03758465195155937
0.2318276,0.021018869313006536,0.031034757153028412,0.015005038884835887,0.013978276692209756,0.020710561665426022,0.017851490780633906,0.04964493955505934,0.03748019065490653
0.2322931,0.021023172112198386,0.031145667783941042,0.014999148583544014,0.013888397568551888,0.020960924272167843,0.017612278433835223,0.049699255698900435,0.0373777223301616
0.2327586,0.021026495422815115,0.03125753317039734,0.014993912955411552,0.013799008929029792,0.021212032665220055,0.017375810749338666,0.049754474334501905,0.037277250068853435
0.2332241,0.021028829384859022,0.03137032869519996,0.014989347527234784,0.013710125965435051,0.02146383852520646,0.01714211298441296,0.04981061426802402,0.037178776610470705
0.2336897,0.02103016451440843,0.03148402972869582,0.014985467673240693,0.013621763747045745,0.02171629327875921,0.01691120985584019,0.04986769431357748,0.03708230434121091
0.2341552,0.021030491704659166,0.0315986116348176,0.014982288609564912,0.013533937216315774,0.02196934810918451,0.016683125534664944,0.04992573328873038,0.03698783529284866
0.2346207,0.021029802226826648,0.031714049777054956,0.014979825388763818,0.013446661184615433,0.02222295396726376,0.01645788364108744,0.04998475000989562,0.03689537114172513
0.2350862,0.021028087730909348,0.0318303195243534,0.01497809289436283,0.013359950328024724,0.02247706158218901,0.016235507239502404,0.0500447632875958,0.03680491320786037
0.2355517,0.021025340246314358,0.03194739625693905,0.01497710583544288,0.013273819183181018,0.022731621472631153,0.016016018833685267,0.05010579192160271,0.03671646245419035
0.2360172,0.02102155218234599,0.03206525537206797,0.014976878741267066,0.013188282143182536,0.022986583957939302,0.0157994403621273,0.05016785469594862,0.0366300194859305
0.2364828,0.021016716328558404,0.032183872289698885,0.01497742595594945,0.013103353453549202,0.02324189916946946,0.015585793193521024,0.050230970373806375,0.036545584550067685
0.2369483,0.02101082585497334,0.03230322245808875,0.014978761633167918,0.013019047208242353,0.023497517062040535,0.01537509812239725,0.050295157692235255,0.036463157534982395
0.2374138,0.021003874312164307,0.03242328135931047,0.014980899730922816,0.012935377345744783,0.023753387425515415,0.015167375364914885,0.05036043535678983,0.03638273797020256
0.2378793,0.020995855631208534,0.0325440245146924,0.014983854006343117,0.012852357645202666,0.024009459896504687,0.01496264455480466,0.050426822035988916,0.036304325026290545
0.2383448,0.020986764123508223,0.0326654274901789,0.014987638010541635,0.012770001722630807,0.024265683970190462,0.014760924739467742,0.05049433635564252,0.0362279175148643
0.2388103,0.020976594480482728,0.0327874659016115,0.014992265083520867,0.012688323027182773,0.02452200901226756,0.01456223437623014,0.05056299689303558,0.03615351388875368
0.2392759,0.02096534177313336,0.032910115419929914,0.014997748349130938,0.012607334837487362,0.024778384270998967,0.014366591328753713,0.05063282217096814,0.03608111224229241
0.2397414,0.02095300145148273,0.0330333517762923,0.015004100710081188,0.012527050258052914,0.02503475888938257,0.014174012863604547,0.05070383065165279,0.03601071031174608
0.2402069,0.020939569343890626,0.03315715076711378,0.015011334843006981,0.012447482215740789,0.025291081917425774,0.013984515646979287,0.05077604073047053,0.03594230547587614
0.2406724,0.020925041656248672,0.03328148825902229,0.015019463193593253,0.01236864345630934,0.025547302324524606,0.01379811574159,0.05084947072958714,0.035875894756639645
0.2411379,0.02090941497105607,0.03340634019373055,0.015028497971756321,0.012290546541029531,0.02580336901194356,0.013614828603707892,0.050924138891432706,0.03581147482002419
0.2416034,0.02089268624637903,0.03353168259282319,0.015038451146885453,0.012213203843373327,0.026059230825392483,0.013434669080366234,0.05100006337204753,0.03574904197701721
0.242069,0.020874852814696396,0.03365749156245761,0.015049334443145544,0.012136627545775859,0.026314836567696485,0.013257651406722634,0.05107726223429901,0.03568859218470861
0.2425345,0.020855912381634346,0.03378374329797735,0.015061159334842273,0.01206082963647235,0.026570135011554794,0.013083789203580807,0.05115575344097471,0.035630121047525394
0.243,0.020835863024592907,0.033910414088436605,0.015073937041851023,0.01198582190641068,0.026825074912384273,0.01291309547507192,0.05123555484775753,0.035573623818596904
0.2434655,0.020814703191267287,0.0340374803210345,0.015087678525110863,0.011911615946240416,0.02707960502124328,0.012745582606495592,0.05131668419608889,0.035519095401248764
0.243931,0.02079243169806691,0.03416491848545781,0.01510239448218496,0.011838223143379123,0.027333674097831304,0.01258126236232058,0.05139915910592608,0.03546653035062377
0.2443966,0.02076904772843516,0.03429270517813126,0.015118095342888932,0.011765654679156566,0.027587230923559736,0.01242014588434523,0.05148299706839984,0.03541592287542762
0.2448621,0.020744550831072864,0.03442081710637449,0.015134791264988803,0.011693921526037508,0.027840224314688997,0.012262243690017657,0.05156821543837759,0.03536726683979734
0.2453276,0.02071894091806843,0.034549231092464924,0.015152492129970474,0.011623034444923587,0.028092603135527004,0.012107565670915666,0.05165483142693763,0.035320555765290126
0.2457931,0.02069221826293757,0.03467792407760586,0.015171207538882773,0.011553003982534782,0.028344316311683892,0.011956121091386216,0.05174286209375893,0.035275782832990335
0.2462586,0.020664383498575356,0.0348068731257991,0.015190946808256328,0.011483840468870814,0.028595312843377685,0.011807918587344278,0.051832324339431184,0.03523294088573203
0.2467241,0.02063543761512332,0.034936055427621515,0.015211718966100596,0.01141555401475281,0.028845541818785594,0.011662966165230782,0.05192323489768914,0.035192022430434323
0.2471897,0.020605381957754132,0.03506544830390502,0.015233532747981447,0.011348154509445412,0.029094952427435733,0.011521271201129316,0.05201561032757512,0.03515301964054685
0.2476552,0.02057421822437623,0.03519502920931955,0.015256396593181773,0.011281651618359537,0.029343493973634054,0.011382840440041125,0.05210946700553305,0.035115924358602224
0.2481207,0.020541948463260642,0.03532477573585843,0.015280318640947513,0.011216054780835798,0.02959111588992165,0.01124767999531805,0.05220482111743701,0.035080728098872596
0.2485862,0.020508575070592096,0.03545466561622579,0.015305306726821483,0.011151373208008663,0.029837767750557707,0.011115795348252832,0.05230168865055689,0.035047422050127314
0.2490517,0.02047410078794643,0.035584676727125786,0.015331368379067368,0.011087615880751338,0.030083399285023543,0.01098719134782628,0.05240008538546348,0.035015997078488716
0.2495172,0.020438528699696163,0.03571478709245371,0.015358510815186155,0.011024791547701336,0.030327960391543528,0.010861872210610685,0.05250002688787471,0.03498644373038355
0.2499828,0.02040186223034596,0.03584497488638939,0.0153867409385273,0.010962908723366712,0.030571401150618707,0.010739841520828798,0.05260152850044489,0.034958752235587295
0.2504483,0.02036410514179955,0.03597521843639368,0.015416065334996823,0.010901975686312924,0.03081367183856892,0.01062110223056773,0.05270460533449841,0.034932912510359064
0.2509138,0.020325261530559677,0.036105496226109014,0.015446490269864466,0.010842000477430218,0.031054722941079194,0.010505656660147054,0.05280927226170987,0.034908914160664925
0.2513793,0.020285335824862437,0.03623578689816506,0.015478021684671914,0.010782990898281431,0.03129450516674595,0.010393506498640492,0.05291554390573227,0.03488674648548773
0.2518448,0.020244332781747372,0.03636606925689072,0.015510665194243994,0.010724954509530102,0.03153296946061842,0.010284652804550596,0.05302343463377496,0.03486639848022184
0.2523103,0.02020225748406453,0.036496322270933405,0.015544426083804614,0.010667898629448641,0.0317700670177304,0.010179096006635887,0.05313295854813335,0.034847858840151326
0.2527759,0.020159115337419764,0.03662652507578676,0.015579309306199171,0.01061183033250631,0.032005749296617335,0.01007683590488995,0.05324412947767178,0.03483111596401011
0.2532414,0.020114912067059423,0.03675665697622776,0.01561531947922494,0.010556756448036716,0.03223996803281354,0.009977871671671957,0.05335696096926117,0.03481615795762261
0.2537069,0.02006965371469559,0.03688669744866442,0.01565246088307099,0.010502683558984557,0.03247267525232434,0.009882201852987995,0.053471466279173235,0.03480297263762328
0.2541724,0.020023346635273023,0.03701662614339515,0.015690737457868975,0.010449618000731398,0.03270382328506797,0.009789824369922562,0.053587658364432585,0.0347915475352536
0.2546379,0.019975997493678985,0.03714642288678048,0.015730152801356086,0.010397565860000284,0.03293336477828185,0.00970073652021951,0.05370554987412799,0.03478186990023465
0.2551034,0.019927613261397054,0.03727606768332802,0.015770710166651342,0.010346532973839086,0.03316125270988821,0.009614934980011624,0.05382515314068381,0.03477392670471389
0.255569,0.019878201213106163,0.0374055407176907,0.01581241246014629,0.010296524928682537,0.03338744040181373,0.009532415805697986,0.0539464801710925,0.034767704647284244
0.2560345,0.019827768923226248,0.03753482235657878,0.015855262239511107,0.010247547059492913,0.033611881533257816,0.009453174435968133,0.0540695426381092,0.03476319015707391
0.2565,0.019776324262411903,0.03766389315058566,0.015899261711817055,0.010199604448979417,0.03383453015390413,0.009377205693971966,0.054194351871409766,0.034760369397904646
0.2569655,0.019723875393995748,0.03779273383592766,0.01594441273177617,0.010152701926896199,0.034055340697069766,0.009304503789634287,0.05432091884871431,0.03475922827251641
0.257431,0.019670430770383225,0.03792132533609856,0.015990716800099117,0.010106844069419009,0.03427426799278646,0.009235062322112764,0.054449254186879265,0.034759752426856
0.2578966,0.019615999129400676,0.038049648763439324,0.01603817506197212,0.010062035198600423,0.03449126728080794,0.009168874282398086,0.054579368132961395,0.034761927254427144
0.2583621,0.01956058949059854,0.03817768542062428,0.016086788305653812,0.010018279381903483,0.03470629422353767,0.009105932056054955,0.05471127055525764,0.0347657379006994
0.2588276,0.019504211151511543,0.0383054168020646,0.016136556961192823,0.009975580431813524,0.03491930491887099,0.009046227426102582,0.05484497093432461,0.03477116926757313
0.2592931,0.01944687368387774,0.03843282459523045,0.016187481099266755,0.009933941905527915,0.035130255912945704,0.008989751576033277,0.05498047835398144,0.03477820601789752
0.2597586,0.019388586929818083,0.03855989068189337,0.01623956043014311,0.009893367104723294,0.03533910421279525,0.008936495092967662,0.05511780149229938,0.03478683258003883
0.2602241,0.01932936099797819,0.0386865971392906,0.016292794302762658,0.00985385907539986,0.03554580729889848,0.008886447970945012,0.0552569486125815,0.03479703315249549
0.2606897,0.01926920625963377,0.03881292624121409,0.016347181703945685,0.009815420607802125,0.035750323137620096,0.00883959961434715,0.0553979275543357,0.03480879170855689
0.2611552,0.01920813334476113,0.03893886045902648,0.01640272125772138,0.009778054236415496,0.035952610193535475,0.008795938841454298,0.05554074572424527,0.034822092001002315
0.2616207,0.019146153138074027,0.03906438246260725,0.016459411224780666,0.00974176224003794,0.03615262744163375,0.00875545388813128,0.0556854100871413,0.0348369175668364
0.2620862,0.01908327677502801,0.03918947512123157,0.016517249502052606,0.009706546641925946,0.03635033437939264,0.008718132411642435,0.05583192715698238,0.03485325173205725
0.2625517,0.019019515637793496,0.03931412150438483,0.016576233622404495,0.009672409210013914,0.03654569103871859,0.008683961494593634,0.055980302987847494,0.0348710776164532
0.2630172,0.018954881351198462,0.03943830488251569,0.016636360754465673,0.009639351457205984,0.03673865799774567,0.00865292764899979,0.05613054316494839,0.03489037813842408
0.2634828,0.01888938577864179,0.03956200872773035,0.016697627702575185,0.00960737464173934,0.03692919639248657,0.008625016820476257,0.05628265279566851,0.03491113601982259
0.2639483,0.018823041017978114,0.03968521671443132,0.01676003090685345,0.009576479767617874,0.03711726792832898,0.008600214392552565,0.05643663650063587,0.03493333379081135
0.2644138,0.01875585939737497,0.03980791271990351,0.016823566443398084,0.009546667585115133,0.03730283489137054,0.008578505191106927,0.05659249840483832,0.03495695379473085
0.2648793,0.018687853471143018,0.039930080824850674,0.016888230024604458,0.009517938591345386,0.037485860159585264,0.00855987348892004,0.056750242128789874,0.034981978192973426
0.2653448,0.01861903601553998,0.04005170531388512,0.016954016999611618,0.009490293030901592,0.03766630721381446,0.00854430301034658,0.05690987077975702,0.0350083889698582
0.2658103,0.01854942002454895,0.04017277067597339,0.017020922354874644,0.00946373089655909,0.03784414014857502,0.008531776936102799,0.05707138694305435,0.035036167937501785
0.2662759,0.018479018705631605,0.04029326160484038,0.017088940714864748,0.009438251930043712,0.03801932368267801,0.008522277908168606,0.0572347926734189,0.03506529674067925
0.2667414,0.01840784547545691,0.04041316299933411,0.01715806634289856,0.009413855622863105,0.03819182316965118,0.008515788034802475,0.057400089486473155,0.03509575686167001
0.2672069,0.018335913955605805,0.04053245996375316,0.01722829314209817,0.00939054121719994,0.038361604607959225,0.008512288895667467,0.05756727835028797,0.03512752962508279
0.2676724,0.018263237968252466,0.040651137808138456,0.017299614656483317,0.009368307706865775,0.038528634651016525,0.008511761547066744,0.057736359677056696,0.03516059620265425
0.2681379,0.01818983153182264,0.04076918204853095,0.017372024072197186,0.009347153838314241,0.03869288061698783,0.008514186527286917,0.05790733331489265,0.03519493761801582
0.2686034,0.018115708856629643,0.040886578407196825,0.017445514218866996,0.009327078111712322,0.038854310498372804,0.008519543862047662,0.05808019853976178,0.03523053475142341
0.269069,0.01804088434048845,0.041003312812821845,0.017520077571100627,0.009308078782068423,0.039012892971371185,0.008527813070056,0.05825495404756268,0.03526736834444521
0.2695345,0.017965372564308402,0.04111937140067661,0.01759570625012023,0.00929015386041596,0.03916859740502549,0.00853897316866365,0.05843159794636542,0.03530541900460302
0.27,0.01788918828766486,0.04123474051275457,0.01767239202553378,0.009273301115051215,0.03932139387013901,0.008553002679625813,0.05861012774882059,0.035344667209963355
0.2704655,0.017812346444350088,0.04134940669788456,0.01775012631724539,0.009257518072824229,0.03947125314796687,0.008569879634959674,0.05879054036474946,0.03538509331367534
0.270931,0.01773486213790349,0.041463356711819804,0.01782890019750512,0.009242802020481502,0.039618146738678896,0.008589581582900912,0.05897283209392567,0.035426677548452856
0.2713966,0.017656750637121212,0.04157657751730462,0.017908704393098916,0.009229150006059289,0.0397620468695931,0.008612085593956436,0.059156998619058425,0.03546940003099894
0.2718621,0.01757802737154495,0.04168905628412044,0.017989529287679322,0.009216558840326355,0.039902926503179274,0.008637368267051686,0.05934303499898711,0.03551324076637082
0.2723276,0.017498707926929678,0.0418007803891119,0.01807136492423751,0.009205025098275038,0.04004075934483223,0.008665405735770865,0.05953093566209635,0.035558179652284076
0.2727931,0.017418808040689866,0.04191173741619386,0.018154201007717075,0.009194545120659555,0.04017551985041427,0.00869617367468869,0.059720694399960764,0.035604196483354854
0.2732586,0.017338343597323704,0.04202191515633983,0.01823802690777006,0.009185115015580425,0.04030718323356647,0.008729647305792305,0.059912304361227936,0.03565127095527987
0.2737241,0.01725733062381457,0.04213130160755233,0.018322831661655475,0.009176730660113841,0.040435725472788155,0.008765801404992142,0.06010575804574801,0.035699382668954074
0.2741897,0.017175785285009182,0.04223988497481559,0.018408603977280533,0.009169387701984813,0.04056112331828379,0.008804610308720512,0.060301047298957924,0.035748511134526845
0.2746552,0.017093723878971578,0.04234765367003083,0.018495332236384786,0.009163081561282801,0.04068335429857612,0.008846047920616665,0.06049816330652787,0.03579863577539777
0.2751207,0.017011162832312285,0.04245459631193437,0.01858300449786714,0.00915780743221857,0.040802396726884335,0.008890087718297163,0.060697096589277306,0.03584973593215383
0.2755862,0.016928118695491913,0.042560701725998504,0.018671608501255765,0.009153560284920887,0.04091822970726561,0.008936702760210257,0.06089783699836745,0.03590179086644989
0.2760517,0.016844608138098693,0.04266595894431486,0.018761131670320792,0.009150334867271707,0.04103083314051807,0.008985865692573045,0.06110037371077692,0.035954779764834854
0.2765172,0.01676064794409948,0.04277035720545982,0.01885156111682966,0.009148125706778476,0.04114018772984298,0.00903754875639002,0.06130469522506674,0.03600868174252593
0.2769828,0.016676255007063857,0.04287388595434135,0.018942883644444936,0.0091469271124822,0.04124627498626354,0.009091723794551629,0.06151078935744026,0.036063475847133396
0.2774483,0.016591446325361147,0.0429765348420266,0.019035085752764257,0.009146733176899999,0.04134907723379768,0.009148362259011394,0.061718643238103776,0.03611914106233847
0.2779138,0.01650623899733015,0.04307829372554939,0.019128153641502065,0.009147537778000928,0.041448577614381456,0.009207435218040102,0.06192824330793268,0.03617565631152654
0.2783793,0.01642065021642138,0.043179152667696986,0.019222073214812507,0.00914933458121385,0.041544760092539705,0.009268913363555512,0.062139575315447906,0.036233000461377986
0.2788448,0.016334697266311635,0.04327910193677534,0.01931683008575291,0.009152117041466123,0.04163760945980011,0.009332767018525978,0.0623526243141067,0.036291152325418574
0.2793103,0.01624839751599055,0.043378132006352224,0.01941240958088705,0.009155878405251849,0.041727111338846525,0.009398966144446333,0.06256737465991177,0.0363500906675312
0.2797759,0.016161768414818818,0.04347623355497765,0.019508796745027396,0.00916061171272838,0.0418132521874072,0.009467480348884347,0.062783810009342,0.036409794205430675
0.2802414,0.016074827487557536,0.043573397465881514,0.019605976346115325,0.009166309799839761,0.041896019301873214,0.009538278893096034,0.06300191331760774,0.03647024161410332
0.2807069,0.015987592329368173,0.04366961482664898,0.019703932880238247,0.009172965300465788,0.041975400820642036,0.009611330699708102,0.06322166683723338,0.036531411529213235
0.2811724,0.015900080600782573,0.04376487692887479,0.019802650576782477,0.009180570648595456,0.042051385727181166,0.009686604360465853,0.06344305211696905,0.03659328255047748
0.2816379,0.01581231002264249,0.04385917526779835,0.019902113403720525,0.009189118080523622,0.04212396385280629,0.009764068144044851,0.06366605000103329,0.03665583324501233
0.2821034,0.015724298371008357,0.043952501541922005,0.020002305073031523,0.009198599637069945,0.042193125879168306,0.00984369000392478,0.06389064062868789,0.03671904215065303
0.282569,0.015636063472037165,0.04404484765261478,0.02010320904625342,0.009209007165819382,0.042258863340443306,0.009925437586323908,0.06411680343414572,0.036782887779249436
0.2830345,0.015547623196829834,0.04413620570370397,0.0202048085401654,0.00922033232338376,0.04232116862521946,0.010009278238192698,0.06434451714681191,0.03684734861993967
0.2835,0.01545899545624885,0.04422656800105692,0.020307086532599005,0.00923256657768416,0.04238003497807448,0.010095179015265094,0.06457375979185849,0.03691240314240381
0.2839655,0.015370198195707455,0.044315927052155216,0.020410025768376278,0.009245701210253953,0.042435456500837396,0.010183106690166194,0.06480450869113175,0.036978029800099066
0.284431,0.015281249389932068,0.044404275565663495,0.020513608765372986,0.009259727318562382,0.04248742815352838,0.010273027760575008,0.06503674046439178,0.03704420703347801
0.2848966,0.015192167037699945,0.04449160645099543,0.020617817820704987,0.009274635818358575,0.04253594575497085,0.01036490845744112,0.06527043103088338,0.03711091327319085
0.2853621,0.01510296915655439,0.04457791281787914,0.02072263501703555,0.009290417446035822,0.042581005983070574,0.010458714753254102,0.06550555561123723,0.03717812694327282
0.2858276,0.015013673777499782,0.04466318797592467,0.020828042229001396,0.009307062761015953,0.0426226063747575,0.010554412370364507,0.06574208872970064,0.0372458264643175
0.2862931,0.014924298939678905,0.044747425434196034,0.020934021129755023,0.009324562148153732,0.04266074532558719,0.010651966789355307,0.06598000421669668,0.03731399025663666
0.2867586,0.014834862685034988,0.044830618900790105,0.02104055319762075,0.009342905820161267,0.042695422088999506,0.01075134325746262,0.06621927521171149,0.03738259674340738
0.2872241,0.014745383052960954,0.04491276228242463,0.021147619722861874,0.00936208382005263,0.04272663677523343,0.010852506797044598,0.06645987416650936,0.037451624353806764
0.2876897,0.014655878074938584,0.04499384968403747,0.021255201814556077,0.00938208602360899,0.04275439034989743,0.010955422214097319,0.06670177284867672,0.03752105152613464
0.2881552,0.014566365769170414,0.045073875408399015,0.021363280407576093,0.00940290214186461,0.042778684632195446,0.011060054106816512,0.06694494234549547,0.037590856710924415
0.2886207,0.014476864135207426,0.045152833955739866,0.021471836269672615,0.009424521723614096,0.04279952229280934,0.011166366874203899,0.06718935306814684,0.037661018374042225
0.2890862,0.01438739114857571,0.04523072002339552,0.0215808500086561,0.009446934157941204,0.042816906851439074,0.011274324724716888,0.06743497475624648,0.03773151499977473
0.2895517,0.014297964755405318,0.045307528505470034,0.021690302079674012,0.009470128676769534,0.04283084267400279,0.011383891684960335,0.06768177648271159,0.037802325093906
0.2900172,0.014208602867064567,0.045383254492520717,0.021800172792580026,0.009494094357435378,0.04284133496949972,0.011495031608419025,0.06792972665896106,0.03787342718678425
0.2904828,0.014119323354802963,0.04545789327126545,0.02191044231939124,0.009518820125283014,0.04284838978653955,0.011607708184229425,0.06817879304044985,0.03794479983637936
0.2909483,0.014030144044405925,0.04553144032431467,0.022021090701829723,0.009544294756282745,0.04285201400954276,0.011721884945989228,0.0684289427325392,0.038016421631332065
0.2914138,0.013941082710864411,0.04560389132992966,0.022132097858944204,0.009570506879671958,0.04285221535461695,0.011837525280603108,0.06868014219670401,0.03808827119399592
0.2918793,0.013852157073062529,0.045675242161808405,0.02224344359480782,0.009597444980619511,0.0428490023651146,0.011954592437163068,0.06893235725707896,0.03816032718347329
0.2923448,0.013763384788486226,0.045745488888900246,0.02235510760628759,0.009625097402913741,0.04284238440687819,0.012073049535861772,0.06918555310734384,0.03823256829864646
0.2928103,0.013674783447956163,0.04581462777525039,0.02246706949088125,0.009653452351674374,0.04283237166317859,0.01219285957693727,0.0694396943179487,0.03830497328120535
0.2932759,0.013586370570387824,0.04588265527987497,0.022579308754617035,0.009682497896088603,0.042818975129352344,0.012313985449647475,0.06969474484367831,0.03837752091867281
0.2937414,0.01349816359758199,0.045949568056667264,0.022691804820011933,0.009712221972171597,0.042802206607143393,0.01243638994127282,0.0699506680315551,0.03845019004742877
0.2942069,0.013410179889048659,0.04601536295433547,0.022804537034084072,0.009742612385551663,0.042782078698754326,0.012560035746145472,0.07020742662907929,0.038522959555734086
0.2946724,0.013322436716867487,0.04608003701637238,0.022917484676414832,0.009773656814280295,0.04275860480061179,0.012684885474703344,0.07046498279280432,0.03859580838675494
0.2951379,0.013234951260587775,0.04614358748105718,0.02303062696725644,0.009805342811667334,0.0427317990968506,0.012810901662567136,0.07072329809724483,0.03866871554158845
0.2956034,0.013147740602170978,0.046206011781489906,0.02314394307568082,0.009837657809141481,0.0427016765525205,0.012938046779638536,0.07098233354411483,0.03874166008228988
0.296069,0.013060821720978612,0.04626730754565902,0.02325741212776549,0.009870589119136259,0.0426682529065196,0.013066283239217649,0.07124204957189255,0.03881462113490177
0.2965345,0.012974211488808425,0.04632747259654228,0.023371013214812393,0.00990412393800154,0.04263154466425788,0.01319557340713763,0.07150240606570832,0.03888757789248498
0.297,0.012887926664981467,0.04638650495224123,0.023484725401595484,0.009938249348940635,0.04259156909005436,0.013325879610914526,0.07176336236755186,0.0389605096181519
0.2974655,0.01280198389148276,0.04644440282614897,0.02359852773463297,0.009972952324972946,0.04254834419927103,0.013457164148910235,0.07202487728679495,0.03903339564810182
0.297931,0.012716399688158088,0.0465011646271507,0.023712399250480052,0.010008219731922193,0.04250188875018678,0.013589389299506472,0.07228690911102499,0.039106215394658805
0.2983966,0.012631190447969306,0.04655678895985615,0.02382631898403798,0.010044038331430177,0.042452222235614415,0.013722517330287643,0.07254941561718521,0.039178948349312445
0.2988621,0.012546372432310543,0.04661127462486247,0.023940265976875267,0.010080394783996029,0.0423993648742638,0.013856510507230503,0.07281235408301653,0.03925157408576157
0.2993276,0.012461961766387504,0.04666462061904586,0.02405421928555725,0.010117275652040894,0.04234333760185431,0.013991331103898394,0.07307568129879571,0.03932407226296105
0.2997931,0.012377974434662051,0.046716826135879845,0.024168157989980246,0.010154667402997867,0.0422841620619795,0.014126941410637864,0.0733393535793642,0.03939642262817156
0.3002586,0.012294426276364071,0.04676789056577778,0.024282061201706954,0.010192556412427013,0.04222186059672727,0.014263303743775428,0.07360332677644105,0.03946860502001189
0.3007241,0.01221133298107263,0.046817813496457,0.024395908072299795,0.010230928967155151,0.04215645623705873,0.014400380454812175,0.07386755629121303,0.03954059937151339
0.3011897,0.012128710084368277,0.046866594713321906,0.02450967780164922,0.010269771268440054,0.042087972692949116,0.01453813393961397,0.07413199708719433,0.03961238571317551
0.3016552,0.012046572963558278,0.04691423419986294,0.024623349646293737,0.010309069435158622,0.04201643434329462,0.014676526647595035,0.07439660370334787,0.03968394417602148
0.3021207,0.011964936833476492,0.04696073213806854,0.02473690292772856,0.010348809507018532,0.041941866225589125,0.014815521090892687,0.07466133026745982,0.039755254994652676
0.3025862,0.011883816742359483,0.04700608890884686,0.02485031704069949,0.01038897744779276,0.041864294025375386,0.014955079853531105,0.07492613050975895,0.03982629851030013
0.3030517,0.011803227567800388,0.04705030509245364,0.02496357146147852,0.010429559148576352,0.04178374406547566,0.01509516560057201,0.0751909577767725,0.03989705517387167
0.3035172,0.011723184012781942,0.04709338146892272,0.02507664575611746,0.010470540431064733,0.04170024329500723,0.015235741087250149,0.07545576504540995,0.03996750554899273
0.3039828,0.01164370060179001,0.047135319018494916,0.02518951958867572,0.010511907050852812,0.04161381927818868,0.015376769168091477,0.0757205049372667,0.040037630315038916
0.3044483,0.011564791677008872,0.047176118922041065,0.025302172729418343,0.010553644700754058,0.04152450018294308,0.01551821280601179,0.07598512973313885,0.04010741027015809
0.3049138,0.011486471394599431,0.04721578256147435,0.0254145850629802,0.010595739014138699,0.041432314769304895,0.015660035081393537,0.07624959138774097,0.040176826334279714
0.3053793,0.011408753721061465,0.047254311520147224,0.025526736596492412,0.010638175568290166,0.04133729237763723,0.015802199201138414,0.07651384154461807,0.04024585955210883
0.3058448,0.011331652429680993,0.04729170758322777,0.025638607467666913,0.01068093988777885,0.04123946291666701,0.01594466850769327,0.0767778315512427,0.04031449109610209
0.3063103,0.011255181097063754,0.04732797273805023,0.025750177952835317,0.010724017447852223,0.041138856851345294,0.01608740648804673,0.07704151247428753,0.040382702269422976
0.3067759,0.011179353099755719,0.04736310917443434,0.025861428474938022,0.010767393677840369,0.04103550519054037,0.016230376782693845,0.07730483511506372,0.04045047450887331
0.3072414,0.011104181610951527,0.04739711928496828,0.025972339611459633,0.010811053964575929,0.04092943947457121,0.016373543194566038,0.07756775002511435,0.040517789387798174
0.3077069,0.011029679597291618,0.04743000566524994,0.026082892102306486,0.010854983655827436,0.04082069176258898,0.016516869697923445,0.07783020752195244,0.04058462861896134
0.3081724,0.010955859815748804,0.047461771114081494,0.026193066857622082,0.010899168063745093,0.04070929461981462,0.01666032044720671,0.07809215770493332,0.04065097405738852
0.3086379,0.010882734810604918,0.04749241863361198,0.0263028449655359,0.01094359246831795,0.040595281104640606,0.01680385978584515,0.07835355047125074,0.040716807703176074
0.3091034,0.010810316910518142,0.0475219514294229,0.026412207699840977,0.0109882421208415,0.04047868475560528,0.016947452255018088,0.07861433553204722,0.04078211170426338
0.309569,0.010738618225681534,0.047550372910551565,0.026521136527595343,0.011033102247394684,0.04035953957824854,0.017091062602365963,0.07887446242862832,0.04084686835916793
0.3100345,0.010667650645073199,0.04757768668944685,0.02662961311664232,0.011078158052325326,0.04023788003185758,0.017234655790647844,0.07913388054877085,0.04091106011968232
0.3105,0.010597425833798522,0.047603896581852476,0.026737619343044475,0.011123394721743009,0.04011374101611157,0.01737819700634183,0.07939253914311416,0.04097466959353276
0.3109655,0.01052795523052485,0.04762900660661231,0.026845137298426077,0.01116879742701842,0.03998715785763395,0.017521651668184847,0.07965038734162382,0.04103767954699915
0.311431,0.010459250045008885,0.04765302098539227,0.026952149297218998,0.011214351328288175,0.0398581662964611,0.017664985435648303,0.07990737417011622,0.041100072907496524
0.3118966,0.01039132125571716,0.04767594414231299,0.02705863788380721,0.011260041577964128,0.03972680247243577,0.017808164217346215,0.08016344856683247,0.04116183276611844
0.3123621,0.010324179607539733,0.047697780703487194,0.027164585839565575,0.01130585332424613,0.039593102911533465,0.017951154179372292,0.08041855939904992,0.041222942380142506
0.3128276,0.010257835609597402,0.04771853549645517,0.027269976189788808,0.01135177171463713,0.039457104512129644,0.01809392175356255,0.08067265547971962,0.04128338517549838
0.3132931,0.010192299533142558,0.047738213549511854,0.027374792210507155,0.01139778189945959,0.03931884453121547,0.018236433645680068,0.08092568558411804,0.04134314474919841
0.3137586,0.010127581409553825,0.0477568200909188,0.027479017435185316,0.011443869035371998,0.039178360570569594,0.018378656843518453,0.08117759846650152,0.0414022048717309
0.3142241,0.010063691028424625,0.04777436054799428,0.027582635661301372,0.011490018288884376,0.039035690562893,0.018520558624920698,0.08142834287675228,0.0414605494894158
0.3146897,0.010000637935745734,0.047790840546075325,0.027685630956802453,0.011536214839871488,0.03889087275791411,0.01866210656570999,0.08167786757700488,0.04151816272672248
0.3151552,0.009938431432181894,0.04780626590734552,0.027787987666433818,0.011582443885082543,0.03874394570847084,0.01880326854752905,0.08192612135824157,0.04157502888854909
0.3156207,0.009877080571442492,0.0478206426495227,0.027889690417937884,0.011628690641646209,0.038594948256576236,0.018944012765584585,0.08217305305684543,0.04163113246246297
0.3160862,0.009816594158746257,0.04783397698440127,0.027990724128119586,0.011674940350569733,0.03844391951947444,0.019084307736293306,0.08241861157110028,0.04168645812090145
0.3165517,0.009756980749379881,0.04784627531624456,0.0280910740087743,0.011721178280231077,0.03829089887569319,0.019224122304826074,0.08266274587762751,0.04174099072333247
0.3170172,0.009698248647350385,0.04785754424002342,0.028190725572474595,0.011767389729863024,0.03813592595109917,0.01936342565254661,0.08290540504775108,0.04179471531837483
0.3174828,0.009640405904130917,0.04786779053949791,0.028289664638212236,0.011813560033028303,0.037979040604962246,0.01950218730434117,0.08314653826378329,0.041847617145878056
0.3179483,0.009583460317499678,0.04787702118513977,0.028387877336892187,0.011859674561084796,0.0378202829160344,0.019640377135835444,0.08338609483522468,0.04189968163896207
0.3184138,0.0095274194304715,0.04788524333189343,0.02848535011667567,0.011905718726639921,0.03765969316864943,0.019777965380494894,0.08362402421487197,0.04195089442601702
0.3188793,0.009472290530321595,0.04789246431677368,0.02858206974816965,0.011951677986993273,0.037497311838849356,0.019914922636604552,0.08386027601482811,0.04200124133266378
0.3193448,0.009418080647700909,0.047898691656298155,0.02867802332946023,0.011997537847566537,0.03733317958054357,0.020051219874124324,0.08409480002240788,0.04205070838367555
0.3198103,0.009364796555842419,0.04790393304375416,0.028773198290987394,0.012043283865319792,0.03716733721170678,0.020186828441415675,0.08432754621593316,0.04209928180486122
0.3202759,0.009312444769857743,0.04790819634630019,0.028867582400258416,0.012088901652153322,0.03699982570062167,0.02032172007183554,0.08455846478041044,0.042146948024911035
