Time,Rectus Femoris right,Rectus Femoris left,Hamstrings right,Hamstrings left,TibilaisÂ Anterior right,TibilaisÂ Anterior left,Gastrocnemius right,Gastrocnemius left
0.0,5.795889676211603,12.958553624225749,9.332837841059991,3.7360480306054535,6.627885466500922,44.44158500189948,2.9867992824147476,13.7266138626916
0.0004655,5.807148593405622,12.844359175991094,9.308023147431921,3.700579108733515,6.748437753592032,44.28395686212072,2.9660184487779957,13.599699946878888
0.000931,5.809737743516613,12.747596251378715,9.26457736958971,3.667884502903281,6.925077980034507,44.07304212449248,2.939345695893048,13.470146157027735
0.0013966,5.815419510139542,12.679469924927862,9.197563267995422,3.638267024351961,7.126182696525124,43.803192829044576,2.9117230180170948,13.342492708186823
0.0018621,5.83455184903199,12.60846462270671,9.117724707833844,3.6128671572810673,7.278224015674345,43.47401329631857,2.8851400303091723,13.219230669269733
0.0023276,5.868205709455973,12.507969695421089,9.035373599529132,3.5945991272815614,7.322955833084752,43.10628647591635,2.860679365035574,13.101586028326587
0.0027931,5.901560413035801,12.395931169501042,8.95434835598535,3.585965133766704,7.272200367359748,42.73028139022956,2.8369953234716307,12.987633831077794
0.0032586,5.9118262344289265,12.289644625405597,8.878125849059158,3.58499000713714,7.230626788202253,42.365153471347256,2.812458719406534,12.874626385342323
0.0037241,5.8878306825793905,12.189744957251321,8.815666407861938,3.5858975130893174,7.3668403186481966,42.025445722087234,2.7881314498274805,12.763195012349318
0.0041897,5.840381401828214,12.09454829992733,8.773476056660858,3.583936614744143,7.7867024321991805,41.716238929050405,2.764943946610518,12.65466745648739
0.0046552,5.797407655133107,12.000463459223754,8.739750425021787,3.5772681989850583,8.393727395085524,41.41765582087179,2.747443957003164,12.548770312601004
0.0051207,5.792738542478169,11.903075435163338,8.692820930930518,3.566117972958191,8.956141927496502,41.10787994343146,2.743254957450408,12.445752882178045
0.0055862,5.851678396307756,11.807605847196626,8.627601413602934,3.5522204585146593,9.311520191524465,40.787349306334455,2.754496937377314,12.345415308930205
0.0060517,5.97687906266077,11.717256829717497,8.55929452012132,3.5382815190858152,9.451977477720634,40.466349842774406,2.7770068535306396,12.247255235038205
0.0065172,6.146811581035863,11.62612347455876,8.497362318407363,3.5269377471667847,9.457300720493349,40.15040430115213,2.806774314108735,12.15174816291411
0.0069828,6.330237018662737,11.5369738929341,8.43414755138564,3.51937550014972,9.404179250154876,39.84060471499411,2.843140134463177,12.061925593566668
0.0074483,6.5017892239250115,11.44972293189766,8.371534075634887,3.514390566704583,9.33377840584317,39.53809150719125,2.8860254626405375,11.982787886738153
0.0079138,6.646269295995285,11.368011299995645,8.328639356048177,3.5096553175840652,9.269606736827118,39.247050966989306,2.9307381277816607,11.910705591711608
0.0083793,6.755609761490813,11.320390456929529,8.306368546114234,3.5043077254844417,9.243245721836244,38.97106066851463,2.967475370733232,11.837017632942144
0.0088448,6.827747877330859,11.329432474924841,8.282105726631976,3.4993788383121442,9.27674090690655,38.708252451978424,2.9889612526851166,11.761908239612225
0.0093103,6.868029107095944,11.391696360184476,8.243108878121445,3.495367067150877,9.32982418149587,38.45534457730361,2.9963647920742,11.693451582139804
0.0097759,6.887251013696806,11.492416648628478,8.193281523263156,3.4901577211282246,9.337292901945482,38.21301658429605,2.9954313990184893,11.644404167759435
0.0102414,6.895741963200622,11.607070716994427,8.138257521894408,3.4812687408325056,9.294490890644756,37.98383228177795,2.9900584742773404,11.62234248446581
0.0107069,6.898468933484924,11.700532871617849,8.082551105204013,3.469516237111297,9.23387926697463,37.76735151691074,2.9803763761261957,11.615346631999627
0.0111724,6.894587026395599,11.74642908128338,8.038337683231603,3.4579523849445875,9.172090891762886,37.56245309123264,2.9655484953564044,11.601093388649259
0.0116379,6.881717265904458,11.739767528710429,8.025246140136199,3.4482592260272726,9.113505453458288,37.375761835870605,2.947130451279776,11.567070451088565
0.0121034,6.859936925193185,11.690153552761958,8.050392193859125,3.4384872007970366,9.063733382931403,37.22299956283291,2.92780125076053,11.513920519014311
0.012569,6.830875966322608,11.61722830068921,8.0996875776663,3.4257422310052084,9.023373530429161,37.117506271025476,2.9087311743796773,11.447636036753376
0.0130345,6.795341437450767,11.543956954377133,8.154819088486416,3.4101461887216598,8.97759996348056,37.05543305904655,2.890054706906511,11.375198726547413
0.0135,6.754284161807638,11.477302590156732,8.203915394856152,3.393571769236799,8.920714049918393,37.019006163483986,2.8717789449337907,11.303298877756589
0.0139655,6.712138635822313,11.408880615683783,8.235231257535391,3.3770590612739766,8.879117078417945,36.99165235569456,2.853773967748031,11.234835482791963
0.014431,6.677123113056811,11.338246554120962,8.236866070910327,3.3602393367146632,8.87486327969828,36.962382983441614,2.8366010899442,11.16738172677021
0.0148966,6.657245282423068,11.272869871688961,8.210527167194973,3.3425572334475206,8.909420670618442,36.9218850876105,2.822279441233486,11.099182236192522
0.0153621,6.656659157075843,11.213478870792402,8.171692182092976,3.3243108859871584,8.990066592056772,36.86156649399111,2.813808114524047,11.034101765945238
0.0158276,6.675044395974727,11.155866923998628,8.134450268678508,3.306138149606058,9.126139214805363,36.7753059651903,2.814619220237594,10.979466545423822
0.0162931,6.7095520974163065,11.097822763322501,8.109040975910032,3.2883558331052076,9.292421656451406,36.66033159617871,2.828424999023032,10.944417608373683
0.0167586,6.7579702571428,11.038688188564004,8.094323366095797,3.2707752304826663,9.428720197200775,36.5177235363076,2.8579338250419686,10.940459361366644
0.0172241,6.819887632605523,10.977396674040378,8.075901971941201,3.252997268500136,9.494409879580674,36.352598754014316,2.901655585826739,10.97547467063787
0.0176897,6.89339527137532,10.914846910892633,8.048323813300808,3.2348935193023545,9.495378199598557,36.172269853894115,2.952189433826395,11.040028949677447
0.0181552,6.971363957172643,10.85756631420821,8.018018359237656,3.2167098121401594,9.45781802279073,35.98324837363994,3.0002841639499245,11.104812967048819
0.0186207,7.04584958424239,10.812338551145587,7.990831297390258,3.1988544949247006,9.405443789268093,35.789913323887426,3.0407134708433503,11.14221771446258
0.0190862,7.11913605785184,10.77584920613042,7.965143865227753,3.1816726002752387,9.364925494622037,35.59530318933229,3.0722034781685377,11.147568042810912
0.0195517,7.208598178205371,10.737917676091543,7.934199235886866,3.1653209691994886,9.374042834794276,35.401886200853326,3.0929262743703996,11.134642688699357
0.0200172,7.340142396932787,10.694041860093142,7.895569760858311,3.149785356608064,9.465477412696725,35.21112010974136,3.0997050674944133,11.119900179172602
0.0204828,7.530595025254887,10.647089800312024,7.853460523991358,3.135066523212604,9.641105353690941,35.02337793272335,3.0931094492063833,11.113720177912374
0.0209483,7.770697323438528,10.60111541950074,7.817845136691877,3.1214520830535974,9.866259141413165,34.838667181491154,3.0791751623419126,11.11471454312662
0.0214138,8.034034536992616,10.557785215807762,7.800175709744778,3.1096166686972317,10.086002669449885,34.65681096366423,3.0634550486827776,11.11057114240104
0.0218793,8.300133393951098,10.515365997594605,7.7989519495659145,3.1001906028457245,10.25564378848655,34.47771943707272,3.0478296220946874,11.091858587916319
0.0223448,8.55620552929036,10.471110666812965,7.8004510680435954,3.092944397427146,10.35926979343891,34.301865701858944,3.0328214705842487,11.061281241571765
0.0228103,8.781782313315501,10.424167726853415,7.8009629204444595,3.086908336671235,10.395920859862114,34.12985775690085,3.018814182691852,11.027553045025236
0.0232759,8.947730417711014,10.375228271138353,7.813343136273687,3.0815921142437857,10.370018977034903,33.96188588049511,3.006570754349125,10.99776231909316
0.0237414,9.077238306590315,10.376070196438365,7.893258744916206,3.0914526774753504,10.368771618193731,33.963012734601364,3.011815112627443,11.014867317205306
0.0242069,9.140023928180023,10.363314473928371,7.995804982372136,3.1020668660174047,10.418157174437797,33.9571218958482,3.022624986182542,11.028286443813421
0.0246724,9.159183005136397,10.30752129040252,8.081277272304135,3.112064047707417,10.54885863517621,33.93747758270351,3.02956782703536,11.033923704189032
0.0251379,9.158242612757931,10.163226100911364,8.114570916659938,3.1202170587997013,10.71175703362339,33.89334819958495,3.0003321972753922,11.032898605564794
0.0256034,9.155252908366512,9.911679990342229,8.099173327525518,3.1270605406662115,10.836428865599192,33.80567811520626,2.920472954591417,11.030952464610706
0.026069,9.162912609290833,9.601403539161083,8.055204242239416,3.1337545635281217,10.880051326718984,33.64255999185815,2.851169201959295,11.031528677322035
0.0265345,9.189712977927703,9.32971490378848,7.983115836367618,3.140184538021339,10.841544234497045,33.363778617181744,2.876160820676831,11.033689633240545
0.027,9.242911274447376,9.174864287604729,7.859943542464706,3.14404868999735,10.769798276991379,32.93890606544694,2.9784604748496575,11.037928321844232
0.0274655,9.333812115443159,9.134248041538635,7.664525306916921,3.140604891280159,10.730501611561746,32.36065911198566,3.075500508213175,11.04608396342878
0.027931,9.482077627540024,9.134396681223464,7.412283709458069,3.1260345866823394,10.736493494597914,31.63429691919562,3.14480109408706,11.05058989196532
0.0283966,9.71097411872209,9.108858116532273,7.151080745005643,3.1029261631734966,10.744621010505828,30.76176834042593,3.221252629707986,11.039619149666814
0.0288621,10.031219440495981,9.06156365590933,6.919965730619926,3.079633085762593,10.727032046315509,29.751225966400906,3.3189619174434055,11.019449010678633
0.0293276,10.427921007510243,9.039937436127959,6.737164858345064,3.0640612701439998,10.700420393588121,28.641018633155923,3.414523135633165,11.007874127342602
0.0297931,10.86475480301012,9.042964956193877,6.59990582838488,3.059620313575396,10.685087129413585,27.496375501881705,3.487103361560479,11.008557776301364
0.0302586,11.2993145297349,9.004849883380638,6.473161588201045,3.0646237882130167,10.684791015158655,26.373329710663274,3.5386947392195522,11.005742666768132
0.0307241,11.693127725684851,8.873196658813294,6.330072907450565,3.073864175365509,10.702618853684326,25.30178612049235,3.5811211763585824,10.972442756408874
0.0311897,12.013863611456319,8.648691033596622,6.197669630574743,3.082636282655314,10.737627997527714,24.310561908101885,3.620415117077761,10.882202407871429
0.0316552,12.240946970733518,8.368611378801697,6.121405523247298,3.0871981963726114,10.780459364135355,23.444138162463467,3.656413219872011,10.727615392194469
0.0321207,12.375285585885678,8.09510291455771,6.117212168935931,3.079957828036774,10.81737420637479,22.736765840075577,3.690997808127947,10.53102570691233
0.0325862,12.43900354743114,7.897378316568855,6.161856301673719,3.0566874138645574,10.835034929606193,22.184600756122684,3.7239452453565622,10.3318804942112
0.0330517,12.4609654988747,7.8045924914048355,6.206078491637675,3.0287806015793315,10.833726589300612,21.75919854573992,3.747049278047142,10.165274480511709
0.0335172,12.462825955677989,7.7865589816855225,6.219619005007395,3.0113280758546974,10.82869207121242,21.438689446736507,3.7538152774004447,10.052530397687033
0.0339828,12.455296833156273,7.7976702271205705,6.209543572150966,3.0060922147433815,10.834038838537928,21.214828324038496,3.7480159067992256,10.00224103859025
0.0344483,12.44233924969771,7.81589674855533,6.191648450332847,3.0059300025213247,10.850499467516778,21.07741191472592,3.738345140371599,10.011838026035063
0.0349138,12.426550639615462,7.837884008380282,6.175564346596218,3.004726412403161,10.86861218861984,21.00618802857959,3.7318845181246165,10.069558610219604
0.0353793,12.41083009361196,7.862829164073294,6.169306168007773,2.999840637903832,10.880200181025504,20.977905554555466,3.7381181181963172,10.159864484929775
0.0358448,12.39879995900437,7.888272151552381,6.189848073615814,2.9905750264631235,10.885259778081194,20.972561625003156,3.7765364182402528,10.268550482494089
0.0363103,12.39388673086793,7.912396837872778,6.281441263441106,2.9756732241947423,10.902135091140865,20.972114849961933,3.8752174490485203,10.383034874474523
0.0367759,12.397178280560253,7.934326903717704,6.511763998498485,2.9507591149834265,10.973482429512016,20.95801116136417,4.053469613854397,10.490556132082112
0.0372414,12.406913764328548,7.953450388330734,6.891758270771035,2.907647217463201,11.11086848044216,20.914241505090285,4.305285004925521,10.579919394959841
0.0377069,12.419425746747377,7.970587969618349,7.309039427405503,2.8388095375600617,11.241174323688423,20.83277356420631,4.606014694344408,10.644303558452663
0.0381724,12.431002452041563,7.987167488718423,7.624743536311514,2.7452479183673963,11.290853745150219,20.713544334258323,4.932177304074361,10.677023329552952
0.0386379,12.440021309947246,8.002740474379898,7.799212775030309,2.637591729517853,11.275017493341398,20.560303178009313,5.2725240625571805,10.664698717637915
0.0391034,12.446729280679232,8.014655731632063,7.875016905028725,2.5276774970507883,11.245198436965984,20.37893635776013,5.6259073990550315,10.591775810057184
0.039569,12.450491155345606,8.016082447075393,7.896374419484095,2.4222166331482007,11.225995832962228,20.177018285457628,5.990678072902018,10.45818035071801
0.0400345,12.447729142845859,7.99530476067754,7.884359249740227,2.3243606182703083,11.21683126785893,19.95855424101607,6.355660606425244,10.289158454957589
0.0405,12.432629006050204,7.930993950789568,7.870509972844881,2.236370767019032,11.212098215611519,19.717394131292636,6.703019115154199,10.118327727226648
0.0409655,12.402302957063855,7.779262601708467,7.907359444596073,2.160184132164712,11.213725824796171,19.439412378180894,7.016399926479881,9.964337604917986
0.041431,12.363489430818966,7.490295430915431,8.003702768930584,2.0978903486217573,11.214357083925805,19.111732261199812,7.284914657404933,9.828795297626185
0.0418966,12.330577610570934,7.090729346988961,8.098370158218602,2.0519096918894935,11.212062930733588,18.727449780739878,7.504515629439866,9.706947639223177
0.0423621,12.314392464721626,6.706402229135472,8.14042814305876,2.023670921521678,11.227090116057866,18.285021582031774,7.677629079607154,9.592023637363429
0.0428276,12.31578135024968,6.4251903555855305,8.143105398666254,2.011331050537334,11.246060067313577,17.79093417780847,7.80993242662042,9.474401372641998
0.0432931,12.329615095578914,6.221350158358846,8.14407527934522,2.0097152339390103,11.24622486532259,17.260654376831088,7.906273404372397,9.345814701760528
0.0437586,12.35013321592137,6.050652949509036,8.15705874201759,2.0132098193799313,11.243832801772042,16.716785697926266,7.9701920433576365,9.207285104781002
0.0442241,12.371582213470619,5.932817601031463,8.173785983725859,2.018266964165207,11.242702350501887,16.18421637364485,8.006800041972319,9.070695146202988
0.0446897,12.387559189113617,5.907104282426228,8.183986245598087,2.0236337683481582,11.229069841660387,15.668249790291283,8.023681294597926,8.95057098535236
0.0451552,12.393513267152597,5.908767523713998,8.181467960112844,2.0293572843682233,11.20933708019692,15.144397382418209,8.028711842745698,8.856277920215721
0.0456207,12.390438413579128,5.864619345381343,8.163702933410812,2.0356704462276185,11.194907926162516,14.589782123169655,8.027862233463152,8.791482573238472
0.0460862,12.384386821679422,5.829262393555179,8.132408425748173,2.042100141381792,11.177872814598958,14.019794386452759,8.024994576717088,8.754604703497701
0.0465517,12.381671656136435,5.84470433842844,8.094728263015986,2.0474297831492008,11.142171365399719,13.48088195113975,8.023888758866496,8.738053938127981
0.0470172,12.384604199344807,5.8824757017576506,8.066034005808616,2.0504959331021615,11.085469155043993,13.011929499451405,8.029454292445411,8.73213340734676
0.0474828,12.390805073629718,5.905744418302575,8.065852260737975,2.0508801634803295,11.016179618443447,12.633555845488287,8.04562387446224,8.730651533992637
0.0479483,12.395397614926324,5.8938153815688334,8.100143196424908,2.048564015677016,10.939910627593875,12.36682279717983,8.072897924765691,8.731187156088492
0.0484138,12.39415182757131,5.880466045086282,8.152945702016972,2.0423365335176693,10.871546205952345,12.223111228420674,8.108843942283194,8.73272261918129
0.0488793,12.386409307449348,5.900120179074747,8.204492801490515,2.0291699162033683,10.835681261606485,12.170415748098975,8.15226943665483,8.735932530583062
0.0493448,12.376481303799043,5.936354581642219,8.247761249343625,2.006474913060486,10.836224797627056,12.153313083310088,8.207496106138867,8.744960778178315
0.0498103,12.370969395682735,5.971032458512915,8.282611399626951,1.975908593423935,10.839216956224744,12.134680724405982,8.281909842713702,8.763594922514905
0.0502759,12.373022053726238,6.002777996804185,8.302741586581734,1.943093572527742,10.779407204527939,12.08388259979751,8.378781401395775,8.78936309038621
0.0507414,12.379324741732226,6.032263374175301,8.300264848899928,1.9130838501523042,10.601094826916482,11.98650758744706,8.493658717175832,8.817075097314705
0.0512069,12.381826537530063,6.065589797575587,8.284197085198217,1.8883562855625387,10.319047499684894,11.881476294951998,8.61742991145246,8.84461410181224
0.0516724,12.371247754520004,6.114887706987698,8.275287754364182,1.8693734018097294,10.026294402328856,11.822586946508283,8.742266505055827,8.8725763747918
0.0521379,12.340706018136807,6.183269518538538,8.284437780073747,1.8544169139525761,9.814050239969852,11.818174768278048,8.864477125554828,8.90364490258906
0.0526034,12.28897659758777,6.2712914218868026,8.305503305500508,1.8396555258919707,9.70023026306027,11.837546011276618,8.983555636257156,8.940370121659193
0.053069,12.2214801897555,6.378919086083884,8.32458269212844,1.8211051009141999,9.653444599911275,11.851292060028726,9.100381095126062,8.982514994969842
0.0535345,12.147696259576103,6.48934374763574,8.337800810329105,1.7971120397145852,9.640843071272661,11.854469798078208,9.215192530015566,9.025767058199891
0.054,12.077064146827157,6.593657729146122,8.344504109107884,1.7693044150643502,9.640173885331302,11.853458125139868,9.325595918119967,9.064202002099114
0.0544655,12.016542097926054,6.686471332937914,8.335093258065204,1.7408036450375137,9.636539593650102,11.843464515910064,9.426870073283837,9.10110381993994
0.054931,11.97046202059953,6.736530609071413,8.30936437059609,1.7128392886410382,9.609146517817955,11.814565973362784,9.514667837000701,9.144953729407828
0.0553966,11.940985027295897,6.715456487164221,8.285360254329447,1.683927480302827,9.542975372433169,11.768102995465245,9.586672885177025,9.194941928463265
0.0558621,11.927937092073023,6.6189041459982265,8.280918966622801,1.6532096144165824,9.464376913046635,11.713294047044064,9.642483491936998,9.24151744060393
0.0563276,11.92877950479036,6.455045219408386,8.297251427982024,1.6238286499367718,9.416628862276061,11.657105414234286,9.683697680173234,9.271537899619881
0.0567931,11.939168008318914,6.2490633097824,8.321805007348706,1.5998872678320466,9.405065531373367,11.599603549345748,9.713619304143386,9.277841161563389
0.0572586,11.95411976395376,6.048829816572661,8.341919940724567,1.580534926867343,9.41283163108591,11.53179189277837,9.735835163836873,9.270194733944564
0.0577241,11.970016930224055,5.8997232342634796,8.34657270043358,1.561091730516076,9.437495343190841,11.435827265270099,9.752717454331556,9.2662576151365
0.0581897,11.985430730564541,5.820054893576321,8.322884524448398,1.5388479668429356,9.478856568799891,11.28643329397298,9.765128615656089,9.274797759017323
0.0586552,11.999938713681741,5.8036748627661785,8.266800190593981,1.5171741706879607,9.523272201834423,11.049717957370095,9.773591856489876,9.294572473701129
0.0591207,12.013252713286787,5.824214682413895,8.190252792038523,1.5011178335836513,9.552825592389233,10.690155942894492,9.779193983509874,9.3214728209426
0.0595862,12.025328915694756,5.845997808029525,8.110116196773728,1.4906111098198511,9.561066416374322,10.202702889018255,9.783250626745664,9.350945121048454
0.0600517,12.036114447264266,5.856176986562426,8.038094503450012,1.4828156874691372,9.560994345296722,9.618506678229494,9.786870139936607,9.378084836061266
0.0605172,12.044416761738567,5.866412303032038,7.981765001450364,1.4767084725738064,9.562565312446619,8.969937242137778,9.790794779820313,9.400861984073952
0.0609828,12.047449370305227,5.877197540615838,7.944944720672817,1.4732719735681636,9.541316989216295,8.279250144007671,9.794792615618512,9.42169541132307
0.0614483,12.04207838862025,5.876651103715455,7.924955908484206,1.472119408244684,9.475384512483616,7.573117581836127,9.797231574874885,9.441656211288546
0.0619138,12.026460393078494,5.864252277161616,7.921459322749564,1.4711434210950736,9.376041225647944,6.888593492261418,9.796394981656114,9.455934779126412
0.0623793,12.00073476235781,5.849331555304083,7.940757721000235,1.4693460610452589,9.258946125645307,6.268217102788205,9.792179282079616,9.456709145214276
0.0628448,11.966263796396959,5.83806089497849,7.97524408608645,1.4670561007548215,9.167817329811257,5.749088996706272,9.78533783402638,9.435244049714282
0.0633103,11.924026243498108,5.832196700756728,8.004352020187468,1.4652170457188105,9.186751796916969,5.352223642128813,9.775978339448969,9.380666044380877
0.0637759,11.874150862788428,5.833680107032079,8.018650053530898,1.464524093090924,9.325416930841058,5.077948274067383,9.764448092623265,9.284533892703193
0.0642414,11.817676125114009,5.842294586820369,8.01968701211157,1.4645983763515944,9.458089101959917,4.907710785639096,9.753039563450265,9.154558855037793
0.0647069,11.758167159544271,5.849409049087332,8.011204372884926,1.4648092998846363,9.498785560823517,4.812966792488039,9.7453486447144,9.01999928974576
0.0651724,11.699361222393435,5.845750320710712,7.996332381410425,1.4647679632807709,9.498717525575438,4.766816290190077,9.743497149605647,8.91152865600494
0.0656379,11.63967880257492,5.837956288264859,7.979823853793895,1.464143313372262,9.50911908446562,4.749409875093194,9.746594621179726,8.836622180379582
0.0661034,11.569156453794836,5.84327710186526,7.968581500840361,1.463334638493172,9.50464598476021,4.745698627823421,9.75271537943249,8.78152735126125
0.066569,11.471717592083538,5.868129932095244,7.965437247100852,1.462989045926515,9.4386423357734,4.745278852363008,9.76160662227541,8.72818338550401
0.0670345,11.334119912515993,5.905438590140346,7.967190401518333,1.4622904898757856,9.284589819097775,4.7452376836571615,9.774259236018786,8.664545640547745
0.0675,11.157064190090555,5.946540062006635,7.965501766818403,1.4590841368230079,9.04685351897892,4.747560677152005,9.791561883723123,8.59193145068807
0.0679655,10.953110954483838,5.987528770269902,7.952604666655294,1.4514240564099943,8.77267316633552,4.752042436691303,9.81467684910856,8.525242486042444
0.068431,10.733511746452123,6.029640663182708,7.9348654219133685,1.4384399700105406,8.52667506970696,4.7540713210942895,9.84413774515592,8.476771452524783
0.0688966,10.506180271922878,6.07439877556187,7.924011493933833,1.4210379701074212,8.34750174533802,4.7505059817360005,9.87783143985724,8.443833895557868
0.0693621,10.287791971314931,6.119741524096934,7.909909345239111,1.4014052631465674,8.257552624093538,4.739256680207885,9.912098990796729,8.4155663449387
0.0698276,10.107203334832604,6.1623990068980845,7.869944179385335,1.380119650546293,8.278357555220916,4.716971713324351,9.944713196592375,8.382656507262467
0.0702931,9.987040011207258,6.200850874457309,7.791498393572072,1.3556388847139877,8.392192365985867,4.686330154155429,9.97519926508347,8.342128613156936
0.0707586,9.926142355633877,6.235174852602305,7.6861946793941245,1.3281059693918276,8.51207874337684,4.651033573379312,10.002531998434938,8.297427795224394
0.0712241,9.905348128698204,6.265779949527676,7.595277729201412,1.300998594385201,8.53739841273291,4.607720077139069,10.024688892728818,8.25273307188206
0.0716897,9.903200557407997,6.29310768886213,7.54960015107535,1.2770880537084086,8.443177942902475,4.553561964503169,10.041138834454646,8.209474631237317
0.0721552,9.903568428754138,6.318384086605329,7.539329805834272,1.2559275309132067,8.306407024285157,4.486932578951737,10.053222402353052,8.167996463694536
0.0726207,9.895936127031154,6.343956697619252,7.541769582333196,1.236099820220236,8.22639242864185,4.399306057933815,10.061680586739525,8.130321367943028
0.0730862,9.873145506376632,6.371583555893132,7.546053787114299,1.2167833683461287,8.242218802643839,4.281118893433448,10.06555302418184,8.100636240436652
0.0735517,9.8270775701971,6.399759970343332,7.548701336254917,1.198399981281458,8.315092340229315,4.139948773109624,10.063731118877959,8.083334995305746
0.0740172,9.743420023997498,6.424388449208294,7.548156103550949,1.1823489004423815,8.349703113034094,3.9993951766451055,10.056011082638207,8.080418028486429
0.0744828,9.59905370692355,6.443333038188792,7.545544560134459,1.1689851779482672,8.29930913275501,3.8758648581251185,10.04183648532884,8.089467871304283
0.0749483,9.365750359532804,6.45841165893741,7.54670495241602,1.1565957417188195,8.226652514214852,3.772683140087993,10.020505687978018,8.104684045470242
0.0754138,9.020957523236271,6.472789545339701,7.556575677254131,1.1419205505515881,8.199172016216405,3.694573065494138,9.994189580826726,8.120919371910853
0.0758793,8.56019301842279,6.48788072912722,7.562847078124365,1.121036153219108,8.210753795214695,3.648179900329969,9.968799023417732,8.135864505365245
0.0763448,8.001471754864614,6.5015503840352125,7.54725143708346,1.0918634856525788,8.230037461740578,3.625594943909312,9.948750816557347,8.148567331383322
0.0768103,7.379320017631241,6.5099480988314795,7.5205970081176226,1.0574294838643339,8.233174320471115,3.6071511841459265,9.933392541564526,8.157173022904438
0.0772759,6.739467205349276,6.511159133622462,7.508936724448823,1.024030753168786,8.204510908731798,3.57352662272518,9.920038666673916,8.158209990743869
0.0777414,6.141401991016613,6.505791914620058,7.509322744718085,0.9945914854015423,8.150812369638079,3.507691218633619,9.907168250143798,8.148041951009139
0.0782069,5.651908234156897,6.496039521156572,7.492791525543158,0.9660405878809657,8.08781913900245,3.413688757121397,9.894455711916805,8.124963944894649
0.0786724,5.312204676766801,6.484464421795066,7.43951572090002,0.9338952015093309,8.041265448052282,3.319719773063498,9.88169788109303,8.089340586683504
0.0791379,5.1099987828976765,6.472802750916454,7.36470918382354,0.8993244806635282,8.046859728797617,3.2453627003686543,9.86928534720077,8.04167769421323
0.0796034,4.999759372531269,6.461994345557068,7.311909886036533,0.871146705110599,8.075069315232366,3.189444816209392,9.859414686094148,7.981187773377249
0.080069,4.942442168144461,6.451833561341139,7.300006494249662,0.8570007594908295,8.068712561522903,3.1463860120356486,9.854562420384928,7.906277871373731
0.0805345,4.917669486307818,6.440222424017518,7.298725250644369,0.853928380484061,8.049205313076602,3.116351568852821,9.854103260179073,7.815665819799232
0.081,4.91286207140222,6.423722159907731,7.277024808898762,0.8541205871070476,8.050151094526301,3.100767079283561,9.85487006446992,7.7085375993979675
0.0814655,4.915372804286686,6.399954584360384,7.235731920000934,0.8541920531802232,8.060746603833639,3.09567891644871,9.85375804511537,7.584419349608602
0.081931,4.916357704414898,6.370058761199457,7.184618892094184,0.8541524021588998,8.069845608777056,3.095356604408792,9.847093223551774,7.444263699004407
0.0823966,4.912835879352149,6.337146404476436,7.115251966173224,0.8541951506299994,8.07364994651234,3.0988890757935375,9.827866818637661,7.290828470130055
0.0828621,4.9037445327799505,6.302838279370397,6.990427662399262,0.854234748597679,8.053879248601906,3.108968747453773,9.785345150242662,7.126984621133794
0.0833276,4.887987290336404,6.267638191168075,6.747532016675399,0.8541163919379112,7.9568471152292615,3.12547379684558,9.710331017868603,6.95499552778778
0.0837931,4.865292310534812,6.233080371956571,6.34958689104377,0.8536792313577976,7.7635898484774275,3.143501354471324,9.600925012117866,6.775907077745378
0.0842586,4.835928554240165,6.2013228446524815,5.865385272197939,0.8522036395353387,7.581777755806897,3.1611598647172086,9.461303596069358,6.591166057155629
0.0847241,4.79933027927028,6.17328022595041,5.4483650549546665,0.847471776492633,7.52814032306525,3.1846061922189577,9.295529207752008,6.408423005551874
0.0851897,4.7545902031518965,6.147920739777538,5.192443577606584,0.8366191773079669,7.5708651182131295,3.2164167572986497,9.10411709310707,6.2370770739812595
0.0856552,4.701974547618145,6.12370092142314,5.0720355257225505,0.8205731693759022,7.630767358476545,3.2466800353752503,8.885728804039648,6.080469879478036
0.0861207,4.642392020778447,6.1014774791251565,5.028688391722129,0.804811998329082,7.727531012273768,3.2666122355171168,8.640877321184437,5.939560159023417
0.0865862,4.576350274805603,6.085332067992021,5.025940522156107,0.7924924138594839,7.93035601226563,3.2793380135408667,8.375051850753303,5.8117435772010095
0.0870517,4.505192517213244,6.077755918944066,5.01992842636766,0.781309463443333,8.232314451772979,3.286163310924617,8.099595124404377,5.688676291441698
0.0875172,4.432147269093321,6.075691137504004,4.942611086516914,0.7680072370412627,8.54176078572555,3.2689002711826656,7.829684948769949,5.566557258323653
0.0879828,4.3602459912323335,6.071411349217472,4.777912244821016,0.7528235404348138,8.78546140060677,3.2067752278422392,7.5805297532410245,5.450694676787874
0.0884483,4.2903096311281965,6.0510718239231975,4.615207159380445,0.7399190694852154,8.928070491886096,3.123885790385248,7.36331606641558,5.346905536942453
0.0889138,4.222039204498359,6.009024228858881,4.548366493641456,0.7340997561563628,8.953653571808905,3.077421656945833,7.182935637144864,5.258878109553372
0.0893793,4.155343834663733,5.965296217194705,4.571936926413347,0.7371400826625731,8.924387562014486,3.071983966810064,7.0394850058879745,5.190150489103116
0.0898448,4.08990299309392,5.943316339662996,4.623868765007922,0.747066444135736,8.911915563003468,3.072094506245256,6.9317590645399125,5.139561336643363
0.0903103,4.0255568490278515,5.95551044357834,4.660570444302179,0.7604920587028132,8.910917197988617,3.0843854595575495,6.858193803798749,5.103362376182002
0.0907759,3.9653537132021417,6.015132617126205,4.67690938673567,0.7735395808402693,8.923730141309804,3.1302371262425694,6.814765146328162,5.076409764085722
0.0912414,3.919962092860711,6.1230726249820675,4.686740656496329,0.7809567304778569,8.97019074750355,3.2085016591790554,6.793923876711175,5.0519066615032
0.0917069,3.9041898262146595,6.258085417458399,4.700345716379134,0.7785147857683372,9.026129963779619,3.3163454310539233,6.78663057609378,5.033828345538942
0.0921724,3.919739899444308,6.39575060295028,4.720421218088851,0.7667723975065267,9.060578464037478,3.4420834247810554,6.78534516313513,5.027625823795607
0.0926379,3.9476835694721624,6.518652606045526,4.744183006337155,0.7504182577251183,9.085161745324557,3.5564795449567352,6.785324508280483,5.026226498596617
0.0931034,3.9655153163329757,6.610898276124352,4.759798118926046,0.7348515386120715,9.13303856168438,3.632230196083234,6.783591853644609,5.025087148708326
0.093569,3.964350149852213,6.660826635006183,4.746596171124921,0.7233803365120276,9.226367487116795,3.6611839605302587,6.777008870254421,5.026084216696872
0.0940345,3.9504907153744337,6.671492813398267,4.7033982960740435,0.7166807410491327,9.377597130056467,3.6558196219066725,6.762414599761082,5.031610382030075
0.0945,3.9390360316996347,6.65795523639449,4.659919584388721,0.7140869443518146,9.586983895329606,3.6370592886833664,6.739499658220173,5.047229926877267
0.0949655,3.9476513426817537,6.633645299797456,4.606267771341904,0.7147140909440413,9.824175825527066,3.619287477872039,6.7103159909391366,5.0738208202323545
0.095431,3.9925181265317167,6.604465373810366,4.516612771945631,0.7172465680328632,10.042273575812409,3.6058663910575275,6.672978647152126,5.098044730426383
0.0958966,4.08102855391422,6.572055861303845,4.469253532394692,0.7199027796577715,10.205236098183866,3.596576685069565,6.618929869064733,5.101981040447031
0.0963621,4.201287110531499,6.537802753537168,4.522120400228593,0.7218799834413677,10.29276874210743,3.5930715920249754,6.538169403400129,5.079342121055636
0.0968276,4.3258030832826,6.50360967930001,4.596151175580969,0.7239541597515382,10.309808900506509,3.5952146791420496,6.427461351000755,5.0377177145709435
0.0972931,4.430347451006423,6.4694202055167835,4.632620218037354,0.727666981128062,10.288724204593755,3.600434987300917,6.294923276565443,4.989020184474391
0.0977586,4.503962996610851,6.431257118636751,4.643194340071899,0.7324235186998462,10.265021506526532,3.6029010398949914,6.154593860262186,4.941042125357648
0.0982241,4.545399876354533,6.382836540744504,4.640938661068359,0.7340911231901103,10.255063857590507,3.580111426542522,6.01638513735787,4.894687059163596
0.0986897,4.5606543308572265,6.316765949919836,4.623081672733216,0.7302941471527433,10.262764355071141,3.509232340178483,5.884674466616327,4.844219164388995
0.0991552,4.562083025878726,6.227065390240197,4.586712210446124,0.724365442047229,10.296620229739393,3.4185268602091377,5.765145427037687,4.781753904204137
0.0996207,4.560628817593198,6.116812539172206,4.547663013891073,0.7202279065022567,10.371096478040528,3.365871836261484,5.669192595755593,4.7043839878033875
0.1000862,4.559565625841591,5.998749944855617,4.523758176633852,0.7181837318118307,10.50604252812527,3.3585414968089733,5.611469231774293,4.615305219983131
0.1005517,4.55945268511944,5.884789190839027,4.5140643755340815,0.7171786759932751,10.696544593740713,3.3612033118833824,5.602095236826379,4.5182305826061455
0.1010172,4.566798584744576,5.779179286228811,4.5103604909579635,0.7164696032586438,10.883907119346082,3.356402951146665,5.641759551342315,4.413765150301409
0.1014828,4.595084709465426,5.68144847681163,4.510217780646199,0.7157557092790657,11.022793262870675,3.351088203900711,5.727128431527927,4.302968673501747
0.1019483,4.652804249734655,5.59209408046398,4.5091627327565496,0.7152244238291818,11.126657923121288,3.351335338251886,5.8568400920625345,4.1905156015943845
0.1024138,4.733299343367685,5.514553484560546,4.491619104197824,0.7150128058904346,11.232445009235905,3.3461080530720695,6.027062337577075,4.079188390705408
0.1028793,4.8256408418473615,5.45246236901638,4.450616126344814,0.7150382115328283,11.370082336155741,3.3041469166796165,6.224179212298628,3.96467566626396
0.1033448,4.933356833760548,5.406665932293563,4.401796828104156,0.7157989337260657,11.542781944347592,3.2016685037085844,6.428813357383066,3.841026281270516
0.1038103,5.075376767976871,5.375558687698921,4.365001318012751,0.7181082756748108,11.73067972635181,3.0681046629893194,6.62899618766463,3.709214680114825
0.1042759,5.267062405858648,5.355785045475405,4.349259316936476,0.7209428006564415,11.913264019565906,2.9754186367140103,6.825331300479009,3.5789643691968145
0.1047414,5.504204790082093,5.3417242478445415,4.35554516579618,0.7221542991063392,12.085798140480254,2.9563631225649067,7.022208164642809,3.462749799374054
0.1052069,5.7688697189644795,5.327557776471664,4.3797627876817655,0.7213454749725315,12.257949940232125,2.9770066696601387,7.21707278337048,3.366910708071566
0.1056724,6.042008129926621,5.310743301129158,4.411153412714042,0.7196768037928067,12.442343490356702,3.003325458767494,7.400743987688696,3.2892368905842755
0.1061379,6.302495835683781,5.292497771650415,4.435094969200388,0.7177587892396065,12.644707077156822,3.02318380379258,7.566831596354557,3.224997937351539
0.1066034,6.521571037906757,5.2755372389287265,4.44247027656874,0.7151160721121873,12.847941362234469,3.029646340702434,7.715921532264587,3.172101056196931
0.107069,6.672027040553195,5.2622623535258874,4.437188443327641,0.7101058740445058,13.024920390750822,3.028191495613249,7.8493271774578846,3.129710606627307
0.1075345,6.748108424547823,5.25539247709789,4.432949086874852,0.701706515267881,13.184325656283491,3.026779032794381,7.962173206659257,3.0944685453410816
0.108,6.771004225469437,5.258494375004093,4.435267930469526,0.6928649826726152,13.345996706778033,3.025465294650226,8.046049382716898,3.061862888866542
0.1084655,6.771316625395151,5.267873402328479,4.42517093446457,0.6872851439137143,13.496924906707019,3.0199468244205567,8.098319065059655,3.031918223853432
0.108931,6.769045972802816,5.269582181982776,4.372953935550126,0.6847621775772031,13.610953832015992,3.0054277969542795,8.124954044417706,3.00886890797946
0.1093966,6.770020079729708,5.277212254964312,4.274276184487582,0.6832960224184802,13.659544310787275,2.987326641930333,8.134765718139962,2.9951649983485824
0.1098621,6.773727650746323,5.3251252679330685,4.1655531322799515,0.6818508363197768,13.618177605797255,2.9773868102836905,8.134838162413317,2.9892658166354518
0.1103276,6.779065699704451,5.388730267731941,4.091522174670443,0.6814217930243652,13.514029721919036,2.9764416604903072,8.13022413864589,2.987928094523787
0.1107931,6.785176766261593,5.417970187232508,4.061739786128305,0.6844452295339655,13.44376170358273,2.976668963595202,8.12385835260848,2.9888614130003788
0.1112586,6.79135512921215,5.411724385910646,4.056978823553308,0.6906634678394057,13.46363196131688,2.9777740924225706,8.11547505160228,2.9916383136311797
0.1117241,6.797132366484424,5.388697986414689,4.060694805029693,0.6965066085799727,13.525742809143635,2.986391308635434,8.103827713620024,2.996297386165033
0.1121897,6.801836736929022,5.355145452831425,4.066694978811998,0.6995660949760101,13.577163474318239,3.00259893280643,8.091785041383572,3.0016895797310497
0.1126552,6.80470021653153,5.3108657072694605,4.070569740419777,0.6990127964195175,13.619295988966895,3.0197746321212358,8.088995976835669,3.006528638585295
0.1131207,6.805552980586212,5.2579349062704495,4.069452615167099,0.6946009867968937,13.673754424916588,3.0339807588513166,8.114018448921033,3.010812340591716
0.1135862,6.804926059913091,5.205459669080458,4.067789651408427,0.6883142072611231,13.741426423127898,3.043290597466953,8.196521096535875,3.0149105561586795
0.1140517,6.803480780022622,5.159847999818655,4.062318295529916,0.6831212309698886,13.786538634061754,3.044668856549282,8.369639540770683,3.017906548815658
0.1145172,6.801587073985544,5.109985763353945,4.04626220049165,0.6800343628395698,13.78742591099594,3.04066754778202,8.646742189341204,3.0179126373043372
0.1149828,6.7995475860113235,5.045477047493837,4.030918892265499,0.6783239285954797,13.793921230147491,3.038212349193573,9.003925831333898,3.017321128024967
0.1154483,6.798217403589741,4.9735329185621175,4.024537682880424,0.6770724366554502,13.876553013953904,3.039828056063652,9.393238546636406,3.0233399442059765
0.1159138,6.798941419582921,4.904871823252331,4.027057165776529,0.6758901816895858,14.061590541622277,3.0603187001113383,9.767170076929405,3.039154957034134
0.1163793,6.802631737363243,4.844890632347871,4.04218539428034,0.6756545796265246,14.344581727477507,3.12282204103403,10.08682828201337,3.0593573067172923
0.1168448,6.809215013458775,4.79728846432651,4.068623791271353,0.6773050504871243,14.703394202554701,3.210858940091045,10.326950737813709,3.0737893949896744
0.1173103,6.817729991197524,4.7637272573689655,4.108723452159604,0.6792862699112937,15.09522383501814,3.2837083590592577,10.490483005403892,3.0766197633982246
0.1177759,6.826763670963822,4.733565197491559,4.173867769904009,0.6796157831365335,15.492527551727983,3.3283996493972916,10.612233494895795,3.0732676231741727
0.1182414,6.835044749796632,4.695834907321192,4.2669805905265505,0.6793489763230112,15.902140672978648,3.352882281573519,10.745069751191263,3.0712015407439974
0.1187069,6.8416318762196004,4.66193393660638,4.367448965859951,0.6800993400570688,16.32242499701599,3.3625882689520643,10.95216219005873,3.067008707221665
0.1191724,6.845733314697046,4.635634364319988,4.4372999024830415,0.6812639005174398,16.72072268354964,3.3618450708162086,11.299306516802394,3.0537015502037907
0.1196379,6.846872024674995,4.601127643331041,4.457031958395339,0.682047307890692,17.042537156125288,3.359490012980743,11.826417390346048,3.0317700661901275
0.1201034,6.845368121972578,4.559177420242809,4.451349005859032,0.6821636125087382,17.24786200474475,3.364792999918379,12.520471316167564,3.0079979170013886
0.120569,6.842385011962536,4.522540077694775,4.453051167992812,0.6817437084074301,17.363590078374965,3.3795617939521834,13.320582338425025,2.9959467400362394
0.1210345,6.8393221652253855,4.49531051885651,4.462771538356326,0.6814047376608257,17.453649116788856,3.3957298427162814,14.149873642766893,3.016473795643534
0.1215,6.836968992544065,4.474173199958451,4.464766061873111,0.6810831296851805,17.552362528683123,3.40338952015947,14.94791759319018,3.0812782934207683
0.1219655,6.8351763477526255,4.4527051912437035,4.447277249078449,0.6811822045070587,17.665443064477053,3.4000611638605136,15.683196487916387,3.177421082262254
0.122431,6.833372738781604,4.427245240199571,4.408434080185621,0.6822690041064036,17.788425068568458,3.39090950120684,16.34478596986373,3.2808385920590273
0.1228966,6.831155996918348,4.401913902999195,4.354832379582311,0.6829595778088571,17.900275519526097,3.3810813529529393,16.92752828199894,3.373465461575351
0.1233621,6.828475254152103,4.384886231295271,4.279424734457924,0.6813062983161233,17.96017952924117,3.3727923504268404,17.423705794334087,3.4416305965682152
0.1238276,6.825739011522238,4.380772329089445,4.172643042435613,0.677160314223224,17.96084156436049,3.3780933509592734,17.823849523062318,3.4747226834078653
0.1242931,6.824012393219554,4.387511861639153,4.062131887012659,0.6717862368592185,18.04658748868641,3.4118562022819274,18.122014001503906,3.474051376379059
0.1247586,6.824569702687219,4.398047643017244,3.991289772609889,0.6669335298535316,18.452576887935518,3.4611350600583966,18.320798621266118,3.4534460507891036
0.1252241,6.827535600125495,4.406345468981875,4.006212703221377,0.6640973394717495,19.148636839530315,3.495284553014094,18.433827296558665,3.4264219083101524
0.1256897,6.831570873676866,4.411786562911956,4.1370463232965635,0.6630246710772908,19.795565432033122,3.5047543731570263,18.484055277273676,3.399152886730794
0.1261552,6.835331518731297,4.416347960387148,4.331941381491782,0.6626629319210893,20.16472837364301,3.502995675363376,18.497796919992986,3.3733186338860266
0.1266207,6.838331684972679,4.421052059346546,4.510365199016726,0.6627817587040656,20.293921945576038,3.5019894863595145,18.498131428782358,3.349482119256386
0.1270862,6.840501612307123,4.426115212152426,4.648684249514949,0.6634027391178312,20.302902379149206,3.5046428774637004,18.501998794384363,3.329854097950414
0.1275517,6.841778970671124,4.432036607226221,4.762707669873524,0.6644967781802489,20.28421872091918,3.5111140738955453,18.521096282715018,3.3188971383106938
0.1280172,6.84221973638202,4.439343456823815,4.865280293959099,0.6659360261426851,20.294267853170076,3.5216625940835806,18.56364788914864,3.3190862358047286
0.1284828,6.842225224549771,4.447395203919089,4.954508389906871,0.6672314196730589,20.34756851021978,3.536337810294818,18.635415814290024,3.327182177640595
0.1289483,6.8425947124415325,4.454323911792015,5.024337769715937,0.6679228795272566,20.43662272983507,3.5528689465694216,18.740832368387018,3.337070537577053
0.1294138,6.844177059090968,4.45892282405609,5.074421822249947,0.6680681923027346,20.553918087804306,3.566770224862926,18.88450290328332,3.3448603344666474
0.1298793,6.846786278872941,4.461548429481495,5.107684706770732,0.6680241382350862,20.698107646932,3.5765390977969442,19.071220418389476,3.3487000640135496
0.1303448,6.848758964186005,4.463006086672237,5.125706909984517,0.6681484335911188,20.87076795039898,3.5851333624982162,19.30382968546761,3.349672630032279
0.1308103,6.8487803324099055,4.4641119309903,5.130595085247858,0.6686522106062058,21.07317557778311,3.596564797730696,19.58160326242034,3.3509961854073547
0.1312759,6.847409336843029,4.465471852819192,5.129613376331652,0.6692360390136719,21.305212861885483,3.6146030267975506,19.901547549344485,3.3495386763808006
0.1317414,6.846152580801379,4.46701478295853,5.133986664923668,0.669141207649667,21.55507323895575,3.643554264198286,20.260204063273818,3.3437871738515064
0.1322069,6.846545009271115,4.468206366722511,5.153906175046477,0.6676835781037388,21.792956326542274,3.6866381070838767,20.652557811519074,3.3408993155920164
0.1326724,6.8498964035720995,4.468504457185412,5.197574646273666,0.6646329697654597,21.982795218378637,3.7410238759541783,21.069569506143978,3.3410728964061582
0.1331379,6.8564514026372665,4.467568755568583,5.272458916839744,0.6606439668879943,22.10412913248907,3.7968299670967585,21.498508464000786,3.3396372948232833
0.1336034,6.865208104664054,4.464852602058089,5.385377852253239,0.6572098701451671,22.162543270187534,3.842274183296057,21.92644427811517,3.3390241002873062
0.134069,6.875025458108485,4.459416146785397,5.542105300409954,0.6552349155410949,22.18327687311903,3.870708918104651,22.342093637111084,3.3402313131430015
0.1345345,6.885383734463073,4.451693372811742,5.745557325993643,0.6538704326925558,22.202022143059423,3.8852440255058145,22.733681931614097,3.339259753804508
0.135,6.8959480117528855,4.445130483220994,5.993237605188726,0.6503391494496672,22.252842892994202,3.8965040839131744,23.087527960608792,3.337229437517572
0.1354655,6.906178970111841,4.442265603071095,6.2746355018442115,0.6406043791111091,22.34907758253649,3.914889629255055,23.3916684234631,3.337389778606322
0.135931,6.916069221005667,4.441196537493419,6.569975341528888,0.6218578570712281,22.477613337598395,3.940626334617319,23.640930032929973,3.338167449289943
0.1363966,6.926566687815602,4.437526145115903,6.864730029847023,0.5944204063732403,22.61551738323286,3.962290644262756,23.837625424149074,3.339107692821017
0.1368621,6.938343954880009,4.413898363876969,7.162002282737799,0.5601893336186083,22.738036796631583,3.966766859049097,23.988495533370155,3.3384450624127595
0.1373276,6.950169223704481,4.3362499827672965,7.467296566810826,0.5222404992803883,22.814629735106937,3.9445607137695315,24.101796052012787,3.3355050672914484
0.1377931,6.957630693152722,4.185562986928802,7.7766585394447905,0.48960233728488217,22.828683576234965,3.888468218360829,24.18546665134014,3.335306928827759
0.1382586,6.954691741823598,3.975025767584651,8.080415545873533,0.4742512234385893,22.801630535535352,3.7972034522026736,24.245611012339417,3.330851077060891
0.1387241,6.940075945883419,3.7279953358514613,8.365637020914669,0.4755173985657452,22.77314891585569,3.6838594937223164,24.2858413910105,3.3159000162344667
0.1391897,6.918944954664097,3.4641344716860645,8.621091283198998,0.48153651012551346,22.76419199477475,3.5747324007940158,24.30847506990918,3.303555218575207
0.1396552,6.8956399989033965,3.2110756956069983,8.8486141911889,0.48524581681893303,22.774911422047012,3.491552104469798,24.31696475620425,3.301222779416054
0.1401207,6.870520549295346,3.007527723635543,9.065550985672182,0.48563471741776154,22.803173533891787,3.439149035449207,24.317381352399607,3.3035786008260355
0.1405862,6.843543788703335,2.877728547468243,9.2828721109552,0.48226967608974297,22.85474127139451,3.413527935205051,24.316605881133285,3.3029057319965096
0.1410517,6.8145587892874255,2.8137374888508524,9.493146707707579,0.475334611854941,22.939452766448646,3.408079714037647,24.317524228973404,3.287360183745585
0.1415172,6.779649417940976,2.792747536347875,9.70195543051564,0.4670903799149416,23.053749864136034,3.4147540714110662,24.317384254950927,3.2525541589670652
0.1419828,6.7303424267473595,2.7964749343548307,9.911695794833795,0.4599113837488016,23.182326950188013,3.4306772917841357,24.31394867991716,3.21357302015232
0.1424483,6.6597443969641335,2.8125679128451586,10.072640855164046,0.4533870587712632,23.32491016185405,3.4568839471588015,24.310230031950432,3.189634705670992
0.1429138,6.572004045391363,2.832129349793756,10.152885157934318,0.44703994909668754,23.503922061855604,3.48728258123019,24.309381122306604,3.1839404969318634
0.1433793,6.483261598047039,2.851107924160941,10.189522714654872,0.44020646515097495,23.74479707837018,3.507434141792371,24.309975587255057,3.1878241462352803
0.1438448,6.411504333481164,2.870854754246867,10.21581026928532,0.4288211357526936,24.05781258102934,3.512026208902931,24.308967733875246,3.192857537207826
0.1443103,6.369035346627909,2.8927265273798506,10.231777904156534,0.4156828587322885,24.438745440499325,3.510682484577759,24.30494869759798,3.19300677067534
0.1447759,6.36274899146863,2.9119171005590814,10.235752291158727,0.4112188310565613,24.880708577694396,3.511894426912009,24.298190914991352,3.186186354955775
0.1452414,6.393601156638047,2.922695833754628,10.234177669276947,0.41499177291422884,25.381290113599174,3.5128600410521402,24.289066851177708,3.1773699085303115
0.1457069,6.455312819799955,2.9274398859193163,10.235400602977583,0.41879360020382767,25.942189122850273,3.508083027164124,24.27609702299458,3.1716656538581023
0.1461724,6.540731038004168,2.932148793824519,10.246449286669437,0.42041086797036453,26.564295925432347,3.5296080502792933,24.255889351438878,3.1686483994610035
0.1466379,6.6473723032616565,2.937087139202211,10.27203945161424,0.42151214258569386,27.233480953252982,3.6414770954900852,24.225117352135666,3.1670020413977165
0.1471034,6.768041021626216,2.9372050021934637,10.314478385351661,0.4231624584888737,27.912881934974486,3.8272664875343825,24.18305260247104,3.1657970494791314
0.147569,6.876611952252848,2.9280126094234746,10.37510087010149,0.42516562916317635,28.558771450819414,4.011473490897906,24.132368346624474,3.1627987794633867
0.1480345,6.936272403924384,2.909553231534701,10.454567207785871,0.4260691399698191,29.1399066644519,4.201447629774725,24.076502658766625,3.1528366116350295
0.1485,6.930780208251347,2.886808012574643,10.552429096213924,0.4260736934526362,29.648378474577296,4.496082207566588,24.01656738925348,3.130592624102007
0.1489655,6.874915846047082,2.8656873816616426,10.666213190191367,0.4281389718394359,30.090826169756447,4.962551165644412,23.951990455224237,3.0990560286645
0.149431,6.791028442635312,2.847724831536021,10.79172549564255,0.4332209303845946,30.46333606404695,5.458180395825428,23.883878817205563,3.0688481261893585
0.1498966,6.68840033375037,2.8296256001687907,10.925966225712758,0.4386878265904717,30.74625162313463,5.781656267199131,23.81603546076532,3.046437928349814
0.1503621,6.560103005560129,2.8071919381015458,11.068703163361066,0.4428716282959935,30.924994487922113,5.932463843377557,23.752475994328496,3.0310970711554615
0.1508276,6.391991691748743,2.7800288724272297,11.221157780870207,0.4490960150125405,31.007714809784602,6.017406612548206,23.696325944573744,3.0205633419359
0.1512931,6.1774354572713985,2.753566456467097,11.38358670747425,0.4611823317777,31.019890323705734,6.106700666526548,23.65213189816358,3.0118515474539005
0.1517586,5.921997719689632,2.733827265708827,11.553764285155546,0.4763212430276456,30.986859733817383,6.214296667493734,23.627150625168696,3.0022026284716703
0.1522241,5.638725200350611,2.7222384447017305,11.72769128379193,0.4895040489762396,30.92522950403524,6.313270485401366,23.627153263581278,2.9910411998072424
0.1526897,5.3501110268637015,2.7178617187753082,11.901297897677408,0.4998037841777444,30.846561251524886,6.387021941851341,23.648766379355685,2.977102988150874
0.1531552,5.094008835149759,2.7198444420707935,12.071505122426295,0.5081859078757687,30.76311598350674,6.441110392988383,23.67734332524559,2.956101762672976
0.1536207,4.912285701538592,2.7254810685853155,12.236436625184867,0.5149865528258534,30.686356768337212,6.479918601077488,23.696967447368014,2.92526120841267
0.1540862,4.821238246361551,2.7291099002663266,12.394481893975382,0.5200206317585062,30.621707675626308,6.5024753431314295,23.703632554442002,2.8894743673847065
0.1545517,4.798484807157425,2.7244518831967506,12.542852884029637,0.5232459807416346,30.57150045656234,6.511149487490458,23.70463303777691,2.858761695025442
0.1550172,4.805113890404625,2.7178020152350477,12.677706693079136,0.5252035808626994,30.546716197914677,6.512719989609359,23.706245218982914,2.8385974420158027
0.1554828,4.813813612434804,2.730142159150496,12.796646504236708,0.5265899384962033,30.57795698727087,6.512588336462538,23.707505797130047,2.8266675117039233
0.1559483,4.815271962462615,2.728193901438649,12.900776326083019,0.5275366192507647,30.712145057600072,6.512909418740019,23.706452171412344,2.8180328194886135
0.1564138,4.810441943221582,2.641025934229658,12.992282106801836,0.5272560333090627,30.98407273106562,6.514620329646805,23.70555948709204,2.8094119117170093
0.1568793,4.803113311462958,2.5101711500326127,13.07109994064693,0.5244296264696472,31.38375963954133,6.518142394682376,23.706006516997164,2.7997619254573087
0.1573448,4.795798108298514,2.438738342556662,13.136301032860617,0.5179328339042102,31.861832836236477,6.522368394545816,23.705715229927783,2.789057249543659
0.1578103,4.789824980484984,2.430837182025064,13.188199503852013,0.5088889469001519,32.3727310181762,6.525122046271581,23.704827175626882,2.7774326373075686
0.1582759,4.787563738059762,2.441377540094643,13.22860513138384,0.5014704610592613,32.907537681104756,6.526358071219711,23.704104562587116,2.765839173289359
0.1587414,4.792249001772128,2.4531732306597593,13.260540990623532,0.4989972239968358,33.48598031249754,6.531055193911671,23.701933081923624,2.7562841436024206
0.1592069,4.805365517997571,2.4648249724006024,13.287308530871512,0.501380641800541,34.12352645336577,6.549027422737528,23.69590321769782,2.7497288448210795
0.1596724,4.825569900881719,2.4717015615496503,13.309730080340962,0.5065819528420955,34.80688436556437,6.587747785571308,23.681027237376075,2.744954465810508
0.1601379,4.85152884479721,2.4572264278293274,13.324980420027153,0.5116993062843964,35.50315436790678,6.643438233585626,23.64615243246287,2.740632662833927
0.1606034,4.885028318607158,2.412839410368799,13.333403563956683,0.5145517650502284,36.189327128388456,6.704622141309328,23.581195430070427,2.737750968854263
0.161069,4.930265028171294,2.3666490032659677,13.337121235507718,0.5152764554522745,36.849943909224955,6.763215890994038,23.494576112909073,2.738727584543432
0.1615345,4.990001265168501,2.345994301148497,13.331919585431661,0.5152060720498663,37.45520235864741,6.818514173187835,23.417589648096147,2.740870669598051
0.162,5.062931722828204,2.342974618466344,13.31733692526306,0.514701248178198,37.97275831174971,6.8720885708270005,23.38430566438774,2.735982958388428
0.1624655,5.145493454466367,2.344006302204254,13.301977763739947,0.5131323584819838,38.38818340309168,6.920003084564693,23.409993414477295,2.720590028760662
0.162931,5.2341463184183805,2.344834659843912,13.291015068824501,0.5102286964466459,38.70426757688778,6.956588010742913,23.490374154709208,2.7009581769334123
0.1633966,5.324652966307595,2.339902032166262,13.283219750061148,0.5069142183771154,38.93376555248341,6.9878590941902035,23.613305729909513,2.6884350718880947
0.1638621,5.412290853253875,2.322832503950568,13.275358470840942,0.5049447585019424,39.09242714414175,7.028298737687308,23.763414001949304,2.688779502063643
0.1643276,5.495169690833852,2.3094857594987235,13.2629787407845,0.5053886718349386,39.1888093696861,7.0851376752797375,23.91778355352799,2.693539761884765
0.1647931,5.575472573767358,2.3158224850378066,13.243815659939948,0.5078617634610488,39.22285246755172,7.156405798343256,24.041330869704208,2.6916232953234034
0.1652586,5.655692927650791,2.3125479129217292,13.223146610362345,0.5108840640998159,39.200116399612945,7.239163548457047,24.08797807899172,2.687044526496003
0.1657241,5.734212928859847,2.2875692386626496,13.213108304621796,0.5130217469140586,39.14080738528739,7.33219069792031,24.015618977368007,2.6894718109782096
0.1661897,5.8055083592869785,2.2729622961335116,13.22093884849083,0.5148134441751915,39.072017157879756,7.432106015765004,23.80606890586142,2.69671697672714
0.1666552,5.8642686240859545,2.275804463342282,13.239188839140525,0.5191707541347321,39.00994657253449,7.530325944872003,23.46965660972099,2.6963290773448287
0.1671207,5.907863929937477,2.283516596745162,13.256983150557389,0.5273399186601193,38.95457101542862,7.617351237061078,23.036573185350743,2.670845060219442
0.1675862,5.936032785869792,2.2936382727122795,13.27360268144079,0.5369182267468795,38.90816290951325,7.690400338297673,22.54540214886265,2.5991204370407495
0.1680517,5.950962342791072,2.3056691821477955,13.293437340475686,0.5450121568033638,38.889847018092496,7.753093198036651,22.03137383149634,2.4684702432674768
0.1685172,5.957211556672969,2.31915623651772,13.317685823502837,0.5493767570278837,38.93493900395139,7.809056369518622,21.51934733677162,2.2882569470228535
0.1689828,5.959383607645721,2.33218667757145,13.34270144490223,0.5496578634040495,39.08748729855665,7.859224489323499,21.025279842762394,2.08082700577047
0.1694483,5.9600243824198555,2.3397526746733592,13.364224016852223,0.5489306714341083,39.38571072962382,7.903679154889332,20.56276366625914,1.8678184233075819
0.1699138,5.959727028064045,2.3357951394007257,13.385990825991604,0.5516275873073878,39.85376618541166,7.942408051100212,20.14800606125283,1.6767108387727436
0.1703793,5.958211769546643,2.314393320537179,13.41464418334059,0.5617026275892604,40.48302240569252,7.971289809471072,19.79917266674005,1.5432752410737458
0.1708448,5.955431237272698,2.2739130698241414,13.447336922194083,0.5824464510075847,41.17397535652508,7.9850516369274525,19.53108411721739,1.4808932247239404
0.1713103,5.951844964544361,2.22186260217004,13.477765194858849,0.6126039548460651,41.75193279057699,7.988005221468618,19.348844131138343,1.4635516075076918
0.1717759,5.948075888912932,2.1708708082748815,13.494489985995301,0.645508819578677,42.13760725347906,7.990329592015925,19.244080270511887,1.4606728718411859
0.1722414,5.944811844242983,2.128937684637625,13.48348857099166,0.676553491642119,42.4318687052223,7.995028678887957,19.196959635097993,1.4604569096798126
0.1727069,5.942657891984508,2.09612447161102,13.453095221548441,0.7055069493917328,42.7662714180293,7.998461712780915,19.183723747478933,1.4604149719309423
0.1731724,5.94184537069439,2.0683471694632636,13.425247884872327,0.7316690420140936,43.1652622733442,7.998619787945474,19.184196825118672,1.458782820033608
0.1736379,5.942233970047609,2.04154361007703,13.407459951953227,0.751708207718351,43.570778051132216,7.996440276706377,19.184105727011094,1.4508016565896409
0.1741034,5.943533510755169,2.013102035452621,13.394497965138786,0.7629162867998661,43.91921735308124,7.992896181191426,19.17334723757767,1.430265062506068
0.174569,5.945294991994602,1.9820623087389597,13.38245198162498,0.7664844669729123,44.18574756904928,7.988199548569322,19.144391002672453,1.398431911521971
0.1750345,5.946635530505126,1.9506637891857221,13.373217081350116,0.7662553454683305,44.385205165631795,7.982962068593366,19.09176764177261,1.3641635456209162
0.1755,5.946243082129563,1.9248191215799884,13.370121408339381,0.7655950097709076,44.54737609793147,7.979015794436882,19.010634146985453,1.334690152653988
0.1759655,5.943120676164062,1.9090569080209425,13.373388877426873,0.7659755090421535,44.69204947195884,7.978520076160021,18.894233167635697,1.3122901125262916
0.176431,5.9378685586678275,1.9018727750417626,13.38091353259492,0.7675033768685422,44.81194786557792,7.982334139477759,18.733446196031064,1.297178335524279
0.1768966,5.932784356717284,1.8989453953525568,13.390994165416299,0.7702515963554326,44.87348112509674,7.98942989952646,18.520427028870966,1.2891267146283434
0.1773621,5.929659943080334,1.8973591932490639,13.402678068391177,0.7757106443228226,44.84840564795303,7.997374465727468,18.252565023343877,1.2867095429518796
0.1778276,5.928367758757029,1.895729614383495,13.414078810032356,0.7878012492669064,44.74900387165453,8.003465181157548,17.932126943170207,1.287465149911433
0.1782931,5.927850632668665,1.893765235840078,13.421802268869437,0.8107072436975641,44.62286408053923,8.006697553142917,17.563056541524652,1.2899809413376457
0.1787586,5.926483394250857,1.8921331154348737,13.422037273669607,0.8432609638834299,44.522136114618746,8.008719419336794,17.148980750812566,1.29420437744685
0.1792241,5.922225219895622,1.8914747570366277,13.411244165004895,0.8788063253737478,44.48599753150836,8.012285558416913,16.693551364250332,1.300011721312013
0.1796897,5.914300978659734,1.891448423612128,13.385994900051697,0.9127671857846541,44.53432625512227,8.019918914702496,16.202856467743334,1.3068045331715927
0.1801552,5.903780535052857,1.8913609400758202,13.342922751166755,0.9463112675684251,44.66356261620004,8.033894284978754,15.688217290750007,1.3139525181776401
0.1806207,5.891990402727417,1.8913290133361045,13.278985385213035,0.9826579010537884,44.855498789258135,8.055025568613853,15.167211900770674,1.3207354648688583
0.1810862,5.879438415380875,1.8919427049680158,13.191798271554815,1.0224151228842768,45.092863885307366,8.081235316660171,14.663303771398894,1.3263993008691326
0.1815517,5.8662984223628705,1.8931806416665562,13.08000427112153,1.063146490903758,45.35864235998935,8.10870202066575,14.202504884234779,1.3310165649839227
0.1820172,5.8529857707451605,1.8943299172736687,12.943718283014638,1.1028989975787373,45.626405888548675,8.133633029578277,13.80676520190548,1.3355644331171108
0.1824828,5.839937987973709,1.8947370869267095,12.785173371362687,1.1419034605227574,45.87001229657929,8.153793534716122,13.489541679658657,1.3412841899541952
0.1829483,5.82811472388302,1.8935052878815195,12.608890139755047,1.1805498680343822,46.08580153901008,8.169399290870615,13.254776411512895,1.349207675201148
0.1834138,5.822443836551659,1.8890517105558904,12.420271976821903,1.2171594160727213,46.29049038135749,8.182032497127624,13.09579979957039,1.3594974949214944
0.1838793,5.835849368120615,1.881084972192953,12.223437486717122,1.24807914698554,46.49380813109369,8.193283692066268,12.996219923949532,1.370414173939836
0.1843448,5.884115492664881,1.8722457169823452,12.020424532207507,1.2690737821390967,46.68271056151438,8.203971204972047,12.93857668214756,1.3790182937792166
0.1848103,5.970755050194639,1.8660790018677993,11.813314313165794,1.277982529679602,46.83572921920556,8.213876850099632,12.914460167318841,1.3840259086196482
0.1852759,6.082943703793659,1.864702288407791,11.607897627415944,1.277949814586344,46.94246257636992,8.222554456583248,12.92311236071221,1.386346668602976
0.1857414,6.206422293638925,1.8688609679540569,11.412742057071885,1.2754016134461925,47.004755986493905,8.230783446416384,12.960422694655144,1.3870841127452778
0.1862069,6.335287504986925,1.878204421533339,11.231377795275804,1.274032901137197,47.02742552186084,8.241565877555196,13.013388983772895,1.3861353390634572
0.1866724,6.46402175327535,1.8908532023376698,11.056574177661727,1.2738642992792073,47.01245650347289,8.257498997769945,13.068650936343726,1.3809453251114314
0.1871379,6.57982230499517,1.9039940441283612,10.874558797643353,1.2743250227130827,46.95955038978537,8.276107640240937,13.122927027212292,1.3681623726282586
0.1876034,6.670066832626937,1.9148374447347662,10.67629643729304,1.2754928619704715,46.87266794461521,8.292021957140998,13.18693547695465,1.3469768553646675
0.188069,6.733107264895791,1.9201550412429012,10.467423245006666,1.2775451480643474,46.76793085735692,8.302153053314889,13.276549918894096,1.3179484253194877
0.1885345,6.776669287184929,1.916818855161729,10.267424747455628,1.280342096081687,46.66723865702937,8.305207707133038,13.38605124626057,1.282415188291489
0.189,6.8088640931069015,1.9038597311953582,10.097318375906148,1.2838840378911358,46.5814986343012,8.299923526039361,13.483100388436744,1.2452234856748214
0.1894655,6.833245349660142,1.8824187935144454,9.96744867096795,1.2879198991220362,46.504793485276664,8.287814060314345,13.542373608341585,1.2131511701078335
0.189931,6.849842120294797,1.854142275818188,9.876901486054564,1.2923507443771771,46.421601196455164,8.276080435948344,13.565795569947905,1.1897655560924076
0.1903966,6.857926328376802,1.8218377882235186,9.820916621959302,1.2981667906820484,46.31675637760983,8.270986858652812,13.568809498152506,1.1757487751535813
0.1908621,6.856091121671446,1.7911939967519923,9.793148561619152,1.304736083989291,46.1811900843128,8.270699852755481,13.563852348439513,1.1714446649033685
0.1913276,6.840495077304462,1.768248217683838,9.784213474868961,1.310961958109163,46.01122469001759,8.270179079434563,13.556161892888635,1.1722876617203433
0.1917931,6.805565175836723,1.7542366510172627,9.784334578822936,1.319218329482307,45.80372197396922,8.269254330294535,13.547199956031966,1.1685069221952833
0.1922586,6.747458044956091,1.745031878388022,9.786003487563558,1.3313145016542995,45.55082206208128,8.270495200357058,13.539592845035775,1.1603104508769673
0.1927241,6.664242011818004,1.7359761527380928,9.781146247829032,1.3443654897791495,45.2402330907515,8.26046398562795,13.536312982548251,1.1560592018852094
0.1931897,6.553504340291365,1.7276067048659427,9.761220383837866,1.3541112696010258,44.867487702534326,8.210716941777607,13.536576825450586,1.155763387087028
0.1936552,6.41823300761976,1.7240110511014397,9.722895206247925,1.3593195946331225,44.45312795162833,8.125075682951815,13.53628288127505,1.1560207893338041
0.1941207,6.2794929211441755,1.7251699276024768,9.668483452215924,1.3617361052227148,44.03990439892376,8.035685721915247,13.53234191961369,1.156387199295724
0.1945862,6.171580985533635,1.727086124989792,9.601587380721112,1.3635447311554523,43.66201725444931,7.937807949800595,13.52592667088039,1.1568260447220156
0.1950517,6.112315658558347,1.727387169994795,9.522187003662767,1.365514629544464,43.32279007013767,7.774253645963649,13.520912581679667,1.1570645159088209
0.1955172,6.091323971406079,1.7265620058834004,9.42586992459471,1.3671669639075603,43.00916393769295,7.48554260975537,13.519025638933977,1.1566705654790315
0.1959828,6.091204851818342,1.725486533628446,9.309626817279732,1.3686342426226925,42.72051586663544,7.133885336578626,13.519305591724418,1.1553923853561128
0.1964483,6.102673205189,1.7235120631313632,9.174045680516116,1.370797347988627,42.476690560309734,6.876066622719977,13.520442887668066,1.1550064882655955
0.1969138,6.123959035290507,1.7198329271582646,9.01925141884153,1.3736841523211427,42.29922809560696,6.746927018205535,13.520554698285208,1.1545736331242151
0.1973793,6.154349235990182,1.7142234085720691,8.84299061588202,1.376369284035353,42.19168017933932,6.66986359646178,13.51813699639485,1.1474409559110235
0.1978448,6.188311535720974,1.705508662394726,8.642940987278507,1.3782579901608643,42.14062539807875,6.583768592308694,13.509280553973129,1.1298437758742323
0.1983103,6.2182969040653004,1.692977686734344,8.41898141925628,1.3796467731501,42.12840203745623,6.474168953370757,13.48257441875261,1.1036092799688813
0.1987759,6.240224905883915,1.6773800442180111,8.173692282588943,1.3806818142514135,42.14046135729962,6.368290659589763,13.427706823681952,1.0721594074217782
0.1992414,6.254528494015416,1.6591155137303855,7.9127018043012605,1.3809222238949947,42.164782589320446,6.29025284772629,13.351284432202299,1.0414233376452462
0.1997069,6.266026217401575,1.6382227257716357,7.6433866708718865,1.3803032523591414,42.18983938593114,6.243495180909682,13.27786901912952,1.020309707391991
0.2001724,6.2833416955836485,1.616010102971019,7.371509303238898,1.37930644598157,42.206144618679296,6.22751495391484,13.229642785080056,1.0126875992172542
0.2006379,6.313745057725175,1.5942164902142577,7.101112289799863,1.378321679147046,42.20906410205741,6.239249376856852,13.207856162615364,1.0129261891231223
0.2011034,6.356574106399101,1.5722531825350619,6.837108473380947,1.3773427004042536,42.19702079286819,6.265840938904245,13.202837690457095,1.012765008453986
0.201569,6.404292012481248,1.54778293582696,6.585719045454116,1.3765471431106964,42.165549436711906,6.290852531173839,13.213538993577592,1.0084095698634796
0.2020345,6.450717099966931,1.5203931451363961,6.3520148508424175,1.376162706992818,42.10045851891683,6.3061437595769805,13.248428581383614,1.001002880097324
0.2025,6.495151235877181,1.4925591993954088,6.137446944787732,1.3759349613476417,41.97592115010696,6.31275301366509,13.307826985816149,0.9932947720796628
0.2029655,6.537291819458446,1.466788609842751,5.941293664228257,1.3756875603650613,41.76863462986022,6.314045379657498,13.37285630970616,0.9870434496964623
0.203431,6.572325746819778,1.4435813377035607,5.7647160174388885,1.3755514177254091,41.481364927837866,6.311930990154353,13.42678299688364,0.9829468634905395
0.2038966,6.594856056466759,1.4227274652288624,5.6120586936146255,1.3755557855364557,41.145500085206805,6.307699491663435,13.470592261045965,0.98112870926998
0.2043621,6.6052153014848,1.4052689700761158,5.48676257088517,1.3756817463622355,40.79168490298886,6.302456423158806,13.510493232108981,0.9812133875041993
0.2048276,6.607880199315873,1.3936100892975527,5.386404177366775,1.3763001988653685,40.41870163196698,6.295941027562833,13.551215812484918,0.9829324445330129
0.2052931,6.606905280928051,1.3888542240420296,5.303921617492889,1.377611873141539,39.994509602153,6.284787113127013,13.594822475690659,0.9861668431281605
0.2057586,6.605028316310266,1.3891603097457816,5.233912297109048,1.3788469907218959,39.48954144042642,6.2615054671568675,13.637871974466464,0.9900006505856436
0.2062241,6.602734109852921,1.3938657488754425,5.176695742651841,1.3793949773193992,38.90781281325783,6.219661758733543,13.676227168348277,0.9930364468643699
0.2066897,6.5965745744723785,1.4043278918450524,5.1360087861483,1.3801364175772812,38.2835343521368,6.161156614211057,13.709888380436425,0.9946922467162623
0.2071552,6.58014062263248,1.4191611759136464,5.112715315021872,1.3826923849299475,37.64800748094396,6.094206566912523,13.732905086415043,0.9950792718125477
0.2076207,6.548074735062845,1.4350008446183977,5.102114303588612,1.387599447316727,37.01258959904101,6.027312491472424,13.716898908573057,0.9955635354077145
0.2080862,6.499816833556141,1.4489285731717811,5.098117678859829,1.3936560407695078,36.39619771688458,5.965348574366624,13.617620463542062,0.9982185381255011
0.2085517,6.438787866152793,1.4575894682131727,5.097838259022665,1.3991153112491523,35.82731204993394,5.905797346307737,13.404919496553713,1.0029472126278054
0.2090172,6.368539301214901,1.4593516944938458,5.101660657714775,1.4030728926587386,35.31025461385441,5.84083874824179,13.083620726014553,1.0070882168966195
0.2094828,6.290778389265135,1.4556432126502257,5.109096172972865,1.4056386249861694,34.83661401414904,5.76459567041754,12.688037768954647,1.0078870568069236
0.2099483,6.2067895273363165,1.4479314227537792,5.114272586765658,1.407257011718671,34.40118775533968,5.676089532121866,12.258875286972744,1.004600895097687
0.2104138,6.1219209448780445,1.4374896583233419,5.108864771904397,1.4081371053153398,34.00489995906382,5.577974459347682,11.82394384903817,0.9985004756559196
0.2108793,6.04543652697361,1.4262906551368428,5.090062133971161,1.4082087724860992,33.66714953734164,5.474019796111404,11.401923427755884,0.9909856366451517
0.2113448,5.983389276074192,1.4157821118861902,5.06208462297969,1.407523273023779,33.40563645031437,5.366245476866153,11.022877466436675,0.9817019924061952
0.2118103,5.937694757602839,1.406327983055339,5.030264749654026,1.406498394244698,33.21476409759023,5.252813353221482,10.731765013495501,0.9688627723595096
0.2122759,5.914722031083922,1.397595678503975,4.995554675441979,1.4055216711462946,33.07924668215962,5.126988179572069,10.555731758440531,0.9518707914949165
0.2127414,5.928055265995174,1.3891093385971953,4.9552681796719025,1.4044536935906953,32.98938808421987,4.983951180263402,10.474539590164362,0.9341590761844071
0.2132069,5.982950089779202,1.3801158909253788,4.908154642420462,1.4026839580128856,32.94235388126081,4.830751929274076,10.436994032494846,0.9208246580497166
0.2136724,6.05422839467835,1.369090372732461,4.855682302364336,1.3998402031891801,32.93093023220038,4.681726669693927,10.40165264398037,0.9129025007340922
0.2141379,6.098261334853943,1.3540357051206553,4.798771474930176,1.3964084384369366,32.93055821846917,4.547340015406366,10.364486182528541,0.9089741594864398
0.2146034,6.10239307078404,1.3340105823319082,4.736525592909015,1.3934015176849388,32.900445626676806,4.429893135169503,10.34602882630697,0.9078518292722024
0.215069,6.093905983881491,1.311066143760601,4.667654085004046,1.391364628761817,32.78997436592629,4.3248350107601725,10.349625249480084,0.90679798127972
0.2155345,6.091140016974713,1.289555152407201,4.591237398325742,1.3901032534149553,32.54637492366984,4.2288521559713095,10.357159230787136,0.9034015007026981
0.216,6.08899719162826,1.2722476948168286,4.506230093162952,1.3890551589471252,32.1301756229446,4.144107105649838,10.357216852144308,0.897618718344961
0.2164655,6.0886874695707425,1.2584730063830711,4.411766519893231,1.3872738378836909,31.522713814360024,4.072174566069427,10.350373553160022,0.8901185938801381
0.216931,6.101468920967971,1.2462686389909616,4.309082713050454,1.383100590038113,30.71962066759337,4.009242077966591,10.340270708115028,0.8819252918844037
0.2173966,6.132762081075256,1.234756151269294,4.202316769438333,1.3744982321866221,29.74356354303756,3.9509561746778186,10.332029929817384,0.875602185715158
0.2178621,6.181284040985368,1.2244033918607435,4.095934571184175,1.3613329685261202,28.677391290079097,3.900164666314286,10.330051930694308,0.8739867882820771
0.2183276,6.2448331540586555,1.2151913187320675,3.991314038944358,1.3460984876676874,27.645250772926765,3.8641946391706936,10.330434343575254,0.8766606265180086
0.2187931,6.319724180200745,1.205442322621404,3.886795917705007,1.330786255649833,26.724517160083522,3.845633570933946,10.328486517281522,0.8812389910781131
0.2192586,6.398163500925951,1.1943560098729071,3.781131943092666,1.3156643113674957,25.904012610789128,3.839820097211314,10.338342612400812,0.8867468367654233
0.2197241,6.469604872604333,1.1839505266457406,3.676122359869409,1.3012450004691083,25.141379273722336,3.841026352913119,10.38271987720353,0.8917061364370281
0.2201897,6.5250695761279855,1.1767159063729147,3.575021505001663,1.2893893742576323,24.43266509763254,3.8472101952971474,10.458925687655219,0.8950085786094242
0.2206552,6.561233652344459,1.1730860068400186,3.479088630231592,1.2820241682758982,23.81359961745274,3.8580946611882467,10.53663026081906,0.8987942669096207
0.2211207,6.581558081081935,1.171674532301458,3.386808275853866,1.279101717612891,23.30381430252664,3.871184933721665,10.5888217170239,0.9065150793680483
0.2215862,6.59280040368276,1.1712197713802819,3.2954334998664514,1.2787646910776294,22.87605536126182,3.88011380562171,10.609247711838956,0.9194197885515721
0.2220517,6.600298930686771,1.1711358482026133,3.2035835938260053,1.279114814226919,22.480245065102938,3.8780359043591712,10.605267383728147,0.9335441648455688
0.2225172,6.60615671546879,1.1710979092262832,3.1141333147143215,1.2792018620529664,22.083820474795242,3.8626596524807404,10.58744576864625,0.9429652134077451
0.2229828,6.610446607808436,1.1708843989705968,3.033210662056199,1.278909183878433,21.704689969208086,3.8360772811329524,10.564799971246245,0.9468051511426003
0.2234483,6.613341573829924,1.1702548232503032,2.965055279336716,1.2784512341538246,21.412123521599433,3.802163388350693,10.54146077935671,0.9485332051275766
0.2239138,6.615432999521791,1.169541166307398,2.9094015273845333,1.277865496864045,21.26371810678914,3.7653600186773843,10.515564262000911,0.9504298690357172
0.2243793,6.6167902099633205,1.1696847404027144,2.863285870045314,1.2760245778033723,21.233777749220938,3.7287090776397145,10.481666675175335,0.9515593587982947
0.2248448,6.61663198235362,1.171446484748823,2.823694772062369,1.270209904620229,21.231509733452544,3.6921866007416053,10.43337065861238,0.9494866086674727
0.2253103,6.615014824004007,1.1748531534980864,2.789170265721456,1.2589636716655754,21.169850120478277,3.653139431717537,10.366675312250342,0.9437061382482984
0.2257759,6.614343252047935,1.1791021648619273,2.7599652087342457,1.2442820210985368,20.992130222719673,3.6078202224644493,10.28423599325776,0.9354436945557265
0.2262414,6.616497567345929,1.183192479465233,2.737029273208777,1.227972317763367,20.670374381745027,3.5531604384996243,10.19371800913123,0.9246323930066812
0.2267069,6.620333481790007,1.186475215090209,2.7211350868201474,1.2080343760749073,20.209456447399106,3.4882907508390883,10.099270827548498,0.9113452993705793
0.2271724,6.624092416259826,1.188298458405376,2.7124983321976663,1.180937949387351,19.63465409082031,3.4145827670911553,9.997014515500027,0.8981443978941505
0.2276379,6.627539339118091,1.1880284526901328,2.7099480774369997,1.146287044500639,18.962914674240615,3.3338450022687094,9.87971852051716,0.8886492704159974
0.2281034,6.631273123698412,1.1861403826043215,2.7105956081244735,1.107213336632318,18.20597686584932,3.247346077916305,9.744717998068612,0.8831710494675136
0.228569,6.635682826556748,1.1841221712270704,2.712019210392999,1.0661862647909972,17.40077149353261,3.1580312298138744,9.596612926456801,0.8770119921518963
0.2290345,6.640622001166796,1.1827860921113462,2.7139155409184688,1.0230916943102912,16.601281791375317,3.0730147750092596,9.441635657810393,0.8660266736938935
0.2295,6.645106667146934,1.1819205118586302,2.7169889957592357,0.9782970671427929,15.831878492337252,3.000282741793756,9.28279266855492,0.8499955375743447
0.2299655,6.64478542315021,1.1807438292535362,2.7216890396465154,0.9369453359859123,15.084280590646976,2.941884399440538,9.124532827187497,0.8306775166577999
0.230431,6.628051549757949,1.1780360365243028,2.7271186271948973,0.9079670588925268,14.370491888139172,2.893620890140017,8.977310890257746,0.8122273065173685
0.2308966,6.579358995547599,1.172563055452973,2.731140501809912,0.8958071914164645,13.749858773016102,2.8508376451998165,8.84908838307696,0.7997111100572731
0.2313621,6.492386938383139,1.163217552384632,2.7324967019086044,0.8958749946879218,13.281820516440531,2.81131077823063,8.73508593196099,0.7937164119895096
0.2318276,6.3758903248421275,1.1488799777460335,2.7321501551710523,0.8998620004661642,12.975559413672604,2.772932820044301,8.623755052346903,0.7903260843423268
0.2322931,6.242931835387428,1.1285538695628603,2.7325940140066156,0.9020908570542462,12.804476295618514,2.731637920822569,8.512602490842406,0.7848788664566323
0.2327586,6.101539615136001,1.1026020379861996,2.735876572138889,0.9020984583816718,12.738834862302545,2.683558955284007,8.411303488250006,0.7741068545556049
0.2332241,5.959955340173236,1.073646821694084,2.742051948519,0.9023573920211452,12.749222376872337,2.630229690806065,8.323881928531755,0.7600937038103958
0.2336897,5.832560014203795,1.0445559676044032,2.748413186014311,0.9034860745435694,12.801083552561119,2.582684364213049,8.236264952041667,0.7495207727523925
0.2341552,5.733145861737246,1.0161904245552948,2.7519697414261435,0.9042532320279999,12.862837448147838,2.557332755585017,8.12275034623841,0.7453434671866288
0.2346207,5.666752531646946,0.9883511347612226,2.75370614368578,0.9044484119685479,12.913096272057492,2.559031503787481,7.96416161255883,0.7452094998559263
0.2350862,5.630963845967418,0.9623009696200989,2.754248250022394,0.9063576984081297,12.937197941252634,2.573575746798355,7.775795066827095,0.746437901381639
0.2355517,5.621238110848011,0.940685995855709,2.7473591658966003,0.9131803526240628,12.924579204394782,2.586756974136375,7.606531075256363,0.7486883404366891
0.2360172,5.635054275814539,0.9244691188315887,2.7301447198497932,0.9246104207106902,12.871399559707891,2.597086284763453,7.496099762869463,0.7534004819697454
0.2364828,5.672616452775976,0.9118096865700143,2.712205359654131,0.9376774907262939,12.779174984001504,2.6081340963774475,7.447650032371854,0.760705165635211
0.2369483,5.73267546500298,0.8998390738198627,2.7027668186452134,0.9514067518747055,12.648732397855591,2.6202392566737567,7.438009200902823,0.7678520530100521
0.2374138,5.807712127267208,0.8867507767414832,2.7016550100293664,0.9674330435758993,12.480012577645597,2.630212703067112,7.439552893215998,0.7721475018583536
0.2378793,5.883777416665892,0.8725361009978951,2.7048785055877222,0.98615929338105,12.278173106911632,2.636358426840491,7.439438620357874,0.7732932918202657
0.2383448,5.946409672695985,0.8584808804539514,2.7054689173291933,1.003279914938367,12.057429502891948,2.6398658064634715,7.439314647265752,0.7725839065458638
0.2388103,5.9882162131828425,0.8477243981656214,2.6927293867361364,1.0127955200890912,11.838612066637577,2.643476071217201,7.43763136793162,0.7715246095057997
0.2392759,6.010973943682159,0.8437524506274795,2.6652916401491913,1.0144246697126362,11.64087900276667,2.6496572822020363,7.429971680827848,0.7708719273804512
0.2397414,6.021236556763079,0.8437893874585486,2.634364837629755,1.0138766037659863,11.471521983467998,2.657946739734186,7.418798564835122,0.7706100140563652
0.2402069,6.02484260715116,0.8402384751099716,2.605329647845479,1.0152576378074838,11.323662557507612,2.666181028749921,7.412775465962897,0.7705265355777395
0.2406724,6.024429038577045,0.8327957267821486,2.5702097024500357,1.018192065238075,11.187345046269842,2.672527985085448,7.422621369066838,0.7704218777914584
0.2411379,6.019330314235665,0.8278038886649568,2.5150443163334506,1.0206557935039071,11.064184127154547,2.6770012235275047,7.4519894389273516,0.7704758810396432
0.2416034,6.007328026267138,0.827186872094942,2.435357763556318,1.021140987773732,10.969737701452594,2.680760315577617,7.490214857459384,0.7710247785139733
0.242069,5.986062275540257,0.8270982712041953,2.344364881923689,1.019468154217059,10.918350776169483,2.6820848734423386,7.520266837862122,0.7717921905320042
0.2425345,5.95161762834496,0.8251755438225591,2.2577906764944413,1.0162354096179371,10.905775324999004,2.678695379520845,7.533478012221457,0.77219940072873
0.243,5.9004343467859846,0.8236691994578617,2.1804140273190833,1.012619124420913,10.91205615232522,2.672433983422661,7.533849055231549,0.7721602171350278
0.2434655,5.834083797394129,0.8237440504172036,2.108641035282864,1.011448405770376,10.917849836409125,2.6678888502134677,7.530071241835317,0.7716163492069622
0.243931,5.759625053204704,0.8234339981990243,2.0360906193387907,1.012497458916391,10.909838561448852,2.6676238944761455,7.526643215723959,0.7704966017143122
0.2443966,5.686993671161123,0.8222489784937212,1.9582493542519404,1.0095424385185479,10.878549392217913,2.66897120570061,7.528243790471264,0.7697265551284577
0.2448621,5.623352716530518,0.8209863150626275,1.8789213518930017,1.0013502489448407,10.820059494841711,2.668337763251698,7.537868607115135,0.7696199984209201
0.2453276,5.56898852495893,0.819814168204766,1.8116049606023032,0.9936178716362428,10.737165569013234,2.6643392248202273,7.531878395846168,0.7690356810033657
0.2457931,5.52045315476624,0.8186646774592028,1.766560261622175,0.9882949915119584,10.640109601016961,2.653106974742988,7.4729315068919195,0.7667688867412743
0.2462586,5.474482341793622,0.8175582436584542,1.7401119185632592,0.9850351091585232,10.547077007870643,2.623549829310488,7.361548783111549,0.7631953089626059
0.2467241,5.42894426820297,0.8162768412642312,1.7221312770718922,0.9852788211330492,10.477456400666865,2.563619063256659,7.241077423941671,0.7614522843470128
0.2471897,5.384482175202019,0.8141552646633767,1.70609060791627,0.9885754072456737,10.44213271695878,2.476325153398163,7.158821526625539,0.7629866434544835
0.2476552,5.345324032615577,0.8113867108911775,1.6964554495397286,0.9923615088838618,10.439533852962358,2.383770786926424,7.133635418184758,0.7654218320980655
0.2481207,5.31753181265256,0.8098145459110497,1.7028481130981814,0.9945096223658021,10.456024375152445,2.3113527887660212,7.146442039137084,0.766909525621543
0.2485862,5.302047620497142,0.8104439263578089,1.7209122104233259,0.9945392399888129,10.47132876010872,2.269189493415743,7.155058702778135,0.76746640605586
0.2490517,5.289396194689576,0.8123144775754815,1.736748541681802,0.9939176367663082,10.471530775868432,2.249740153101151,7.130752003483646,0.7675793928857618
0.2495172,5.270247911007023,0.8141379729427778,1.745077457952841,0.9943520574188014,10.458519628400495,2.2411403952925886,7.083426101533635,0.7677262513151847
0.2499828,5.248861019028767,0.8154260560944306,1.7482272467988467,0.9960809439914527,10.443308094576029,2.236713142445897,7.037320895859099,0.7678310605674411
0.2504483,5.236428378420629,0.8156137470994359,1.7477977543628775,0.9989788434752176,10.431508230624427,2.2350526391417893,6.996939380842251,0.7673935994931057
0.2509138,5.236159736431057,0.8118413059461032,1.7441620647551028,1.0037197700124967,10.42836280590151,2.2370714389252426,6.949965908175015,0.7661776406085479
0.2513793,5.24075912515127,0.7978799539189995,1.7394188502921861,1.0101921336470154,10.471471311671692,2.2406119749670177,6.885394359678104,0.7638667765120553
0.2518448,5.240181170988897,0.7692493435592752,1.737763069569723,1.0163235240857922,10.63862931505109,2.2401907586295886,6.803643843432518,0.7598742072837458
0.2523103,5.228262423764989,0.7302895262102346,1.7439446391948876,1.0209264326139547,10.987773880642559,2.2321225637119566,6.717022505143033,0.7548781349605371
0.2527759,5.20664117679215,0.6904359457886622,1.760325151650903,1.0249025165680392,11.504738101115144,2.2171068451492126,6.643250011504079,0.7509091583111045
0.2532414,5.188573789174548,0.6547734665642799,1.7847155793100824,1.0280251701990144,12.139615442777064,2.2015195789823863,6.59402867333429,0.7485323497518452
0.2537069,5.195032397575559,0.6223061118538842,1.8143611176921537,1.027635870517855,12.879775610567332,2.1939437638957466,6.563314928057665,0.7461704052199017
0.2541724,5.2377938725501965,0.5910850988431279,1.8506105178450516,1.0227396431921076,13.74467593038464,2.193678656047073,6.532132402262894,0.7410576423533453
0.2546379,5.311501137904951,0.5641370101062695,1.895248324072995,1.0164248051605627,14.698526649361101,2.190681654267908,6.491550319027864,0.7307916743466375
0.2551034,5.406309746233283,0.5496433510066638,1.9398799617000382,1.0158463137917135,15.674772592250935,2.183139979959315,6.456063509020268,0.7153290988993531
0.255569,5.516885451804024,0.5497595849931606,1.965655377702169,1.0309807200016567,16.655625004174237,2.1798334688624643,6.452540002066491,0.6972314107086293
0.2560345,5.639500102007873,0.5556513107315708,1.9642670681457006,1.059423585066062,17.628692228833515,2.185340666288825,6.499450037899656,0.6804784247145407
0.2565,5.768968813401309,0.5596250632068648,1.9485419427186221,1.0889160244373974,18.57624700194262,2.1989327185363177,6.58503750956678,0.667879051591914
0.2569655,5.894441025452881,0.5605575200740208,1.9368223923957941,1.1194918042957434,19.502705780436052,2.2214613001196626,6.654794320910834,0.660290749513485
0.257431,5.9955557103376025,0.5588082488765322,1.9383681573008442,1.164990184793508,20.41072849321755,2.2533913117362485,6.650785449705003,0.6564172114947663
0.2578966,6.051336732251281,0.5537735759049524,1.9484045670416097,1.2409848199404614,21.298722628930243,2.2890720558366597,6.587357563379151,0.6529154541841418
0.2583621,6.058458173464143,0.5455832702129526,1.9549043481762514,1.3496074465994288,22.167960778963312,2.318916889518928,6.528335448312974,0.6484576620332169
0.2588276,6.032667592027505,0.5367430169113286,1.954984944590466,1.4819326942141762,23.01970748871075,2.340042915969789,6.479847181736311,0.643735958219748
0.2592931,5.997916925060416,0.5298663447578987,1.958554518984236,1.6275077537266984,23.860526444168872,2.3547455505318498,6.41454019695937,0.6393291989182837
0.2597586,5.9883264139198245,0.5255394922795597,1.975051386682484,1.767562309560303,24.695390584206653,2.3616817493632487,6.353912871123765,0.6365491689480817
0.2602241,6.007759030240635,0.5234968727556172,2.0042849302925063,1.876868648203042,25.51471806695364,2.362258667633291,6.330535463642821,0.6364238364220978
0.2606897,6.027032574821912,0.5232287786199185,2.0407585759975513,1.9461158390417985,26.298822258384774,2.3611280143524143,6.331260384514692,0.6364722655363806
0.2611552,6.0596383760527175,0.5240448544869,2.0782106220252983,1.9868831898878927,27.0326838945755,2.359078532489961,6.317753836357376,0.6331708812368178
0.2616207,6.124495243389106,0.5260228499517314,2.1092627864437006,2.012269437685004,27.714997393049046,2.3572561226566306,6.286401119375677,0.628025332628756
0.2620862,6.177538779527363,0.530069988193303,2.1273316476065514,2.025398353929594,28.357799735660365,2.356842437618455,6.264343306024732,0.6244087908350765
0.2625517,6.197070878947562,0.5368044122281854,2.132243682419618,2.027215654237649,28.978469584440962,2.3560974294736905,6.258966680276902,0.6239637926048027
0.2630172,6.916642713659278,0.5461111179360222,2.1308839984361994,2.029707935632461,29.588689432538075,2.353549650494325,6.259405147890989,0.6264855314387653
0.2634828,8.518627445496957,0.5568960292751785,2.129975410311976,2.0471164372404624,30.191028249348623,2.3507184270288737,6.25981864231889,0.6281308562081626
0.2639483,9.576436371712067,0.5662504272823088,2.1315213126640775,2.0791239133891946,30.786649270361078,2.350038893106442,6.257897217357495,0.6266489539938587
0.2644138,9.775025121126495,0.5706187019923253,2.1353072516332383,2.116410570991346,31.37793660535057,2.3515461242978377,6.248854608877386,0.6234170230886191
0.2648793,9.756402311790357,0.5694472095818623,2.1422921416795146,2.152676434322883,31.954278424590655,2.355555554203823,6.238908788577147,0.6189264414151376
0.2653448,9.805134130730313,0.5662802651442365,2.1550806180707167,2.187190272539586,32.48184114143542,2.362899487667551,6.243139494242961,0.612535926173116
0.2658103,10.208094996283227,0.5640857256613823,2.174421840650017,2.223984022171101,32.92499221225761,2.3727367571246334,6.242668023884364,0.6045661084381442
0.2662759,10.810614598327568,0.5627375863811633,2.1946522694879573,2.272082409098918,33.27184460745524,2.3827570981786113,6.186704782498479,0.5970111366509278
0.2667414,11.206846994303058,0.5612742689619447,2.209741863119082,2.3438768058429904,33.51027644350922,2.3883980790273944,6.060642466589931,0.5907058578833074
0.2672069,11.38539266223259,0.5599057406757022,2.223892107967339,2.446285526316661,33.59646579500317,2.383002484192274,5.907340073978268,0.5837067222429912
0.2676724,11.479465146820587,0.5604856370865767,2.249263708192572,2.570700680830468,33.590883582228564,2.364362953262527,5.776273147884122,0.5716128620328651
0.2681379,11.544958726178768,0.5641719366709059,2.299611686226884,2.6967263964351984,33.992515965283374,2.3439506135062684,5.683233975096011,0.5505899469071105
0.2686034,11.582868054704827,0.570804676256013,2.38049556515532,2.806197376081985,35.66405454317677,2.3393296712820666,5.617752633668446,0.5250763273637798
0.269069,11.594987641192128,0.5796064893968736,2.482131855568903,2.891277242207823,39.022559905074274,2.3513477426797604,5.565332030908566,0.5040036371459291
0.2695345,11.595557271487523,0.5884535344846448,2.593828595722799,2.952202805106927,43.71374501993824,2.3634972546249746,5.51813287326924,0.49008570269644264
0.27,11.59413383541214,0.5949910160020383,2.716372742564398,2.9912779159176677,49.19200094784033,2.3628331331118444,5.475419470980972,0.4803812274834828
0.2704655,11.592907612111619,0.5981365686270697,2.8537361640868366,3.0104286295480924,55.05967266819929,2.346103492247429,5.439120151019192,0.47189187100030433
0.270931,11.592026611112892,0.5981607610789968,3.0028271587372095,3.013977188863587,60.96346832539277,2.3140220681983674,5.409460943317603,0.4652274361235072
0.2713966,11.591749623195348,0.5971271243776445,3.156135176102643,3.010382520186373,66.56235224573838,2.2714571932538767,5.384820256510648,0.46245457431283654
0.2718621,11.592045587245268,0.5978583919900945,3.3088924960664756,3.0080271142269592,71.6460586510989,2.2281485770055505,5.362465686628881,0.4624309919927424
0.2723276,11.592161970876067,0.6010055208004004,3.4608433428675562,3.010853913759504,76.16678035086116,2.1933547686322874,5.337400198985255,0.4620885684149227
0.2727931,11.59240242117472,0.6051091191641126,3.6151854572908344,3.0184600627093117,80.14116789882682,2.168306286288642,5.315840746464618,0.46062261911665137
0.2732586,11.59310472829843,0.6092779776425843,3.7774009246723828,3.0279259633684386,83.57015694362721,2.1449890340246016,5.320175322700414,0.45918897915776
0.2737241,11.591002429159733,0.6144378155839338,3.951617411887592,3.0363172091812185,86.4469727203299,2.1182467590140357,5.342155155461058,0.45776608661330004
0.2741897,11.600241973907249,0.6222274604168349,4.135032779142995,3.042888381785155,88.79478034451212,2.0973374939361316,5.340833045910101,0.45356058245654923
0.2746552,11.649223034661246,0.6326878856822993,4.316668474345609,3.0486690404983157,90.67098327827321,2.0949100084617815,5.316885441061978,0.44562363200753063
0.2751207,11.714427024993935,0.6436183494681706,4.484354745600515,3.0545556267659837,92.14340342531435,2.1098092688515386,5.307555964926582,0.4391335933468393
0.2755862,11.769158197234713,0.6528229629519459,4.634880192394988,3.0593836860493155,93.2709523215,2.1304198181990306,5.31805687501421,0.4372895847748275
0.2760517,11.867556220570819,0.6602888786721266,4.777931848805455,3.060618387915772,94.10162468903616,2.146385809720462,5.326305951288269,0.4372562901348438
0.2765172,12.163775723631593,0.6683209360837449,4.930711966875705,3.0587155414446747,94.68091424796494,2.153440836058645,5.3202957634993355,0.4372365724672487
0.2769828,12.681715475526664,0.6799343544935331,5.10667067228593,3.0573656024763585,95.05832306546954,2.153218718605215,5.301057652313867,0.4362006428603933
0.2774483,13.03887767342687,0.696063945333916,5.303869457757523,3.058615347277104,95.28466952733648,2.1503234706730896,5.28161271973327,0.43224158687579634
0.2779138,13.074926810808494,0.7145240973271331,5.504588274073266,3.0619290929582244,95.40425364901097,2.1475984840829074,5.298098994515306,0.4257818183727007
0.2783793,13.116814880710459,0.7320652988176185,5.6893048789698675,3.0661053425635743,95.45157288169253,2.145150823258868,5.404671621177614,0.4199517079329125
0.2788448,13.333371526752385,0.746478807171456,5.848700182116481,3.0695260191278013,95.45555881611348,2.144447503016918,5.6395412892315875,0.4177370801865537
0.2793103,13.639661109746527,0.7567034648467739,5.983408190737512,3.0708478541333264,95.445086783806,2.148021836811333,6.008697058317769,0.42002934845409123
0.2797759,13.989888384451401,0.76257696652074,6.097699742502222,3.070649702298985,95.44966244336301,2.153903524526808,6.492340567466126,0.4268069427183808
0.2802414,14.390364739539432,0.7650689400213624,6.194982133773548,3.070501126126059,95.49761882454484,2.151772027832758,7.0304373868056045,0.43590503331705627
0.2807069,14.823222719245392,0.7655321541607566,6.27567637881673,3.0708791546056613,95.61706577603377,2.1264691670807823,7.525603572950406,0.4421919727152609
0.2811724,15.256032775151452,0.7645619059509926,6.336581823778115,3.071537934564761,95.83771148111728,2.0751563175314796,7.906978595940208,0.4428094825722806
0.2816379,15.678104717508647,0.7623473543445088,6.373780983004786,3.0720445063798487,96.18771976087285,2.0167860664871613,8.176071365814526,0.4395865097202043
0.2821034,16.082510317180528,0.7604768472744231,6.388025279534859,3.0711728481308787,96.68589988726187,1.9704176825307753,8.376188400365423,0.43437834973546013
0.282569,16.44032537584854,0.7619666244640838,6.3887168018181315,3.067619661687335,97.33670940144832,1.9365438210804413,8.545212178002172,0.42806968320944433
0.2830345,16.730304775504045,0.769875117987464,6.393854536437263,3.0620286037469597,98.13470752402613,1.9080522441383179,8.698734719217631,0.42398863421525435
0.2835,16.978765135205656,0.7874095997533836,6.426350734034478,3.0554784165420177,99.07754694546803,1.8849709993443,8.838499132723081,0.42546516428718756
0.2839655,17.244448768127363,0.8171573794478717,6.509556965194014,3.0486811611947844,100.17668646184607,1.8712898207067274,8.967721753979779,0.4304746194292052
0.284431,17.567244285673908,0.8581493468180518,6.664027526809495,3.044894261920543,101.44922358595569,1.8647992751098403,9.092028619104521,0.4344266632093428
0.2848966,17.920124040610073,0.9057987087009615,6.905286325873217,3.046651557951124,102.88627967112431,1.8591553664594362,9.21364820905564,0.4359328189289037
0.2853621,18.234183024349974,0.9564742489543613,7.239536371325079,3.051667094594612,104.42769478100014,1.8488064699224835,9.331152949541833,0.4363048275195988
0.2858276,18.479591082210533,1.0099576085040913,7.657463948267421,3.0564492090303257,105.98759293963826,1.832379751104359,9.437156747373129,0.4364216005423743
0.2862931,18.6820236055616,1.066339956484387,8.134090368410767,3.0595836382238297,107.51679462752986,1.8177322080321718,9.524364013776694,0.4362727704209353
0.2867586,18.87956451319915,1.1235502787600884,8.639491323805121,3.0610928465338865,109.029448796308,1.8156498523078362,9.593430119285701,0.43609870824470337
0.2872241,19.089320384526985,1.1784010337916935,9.151013498169142,3.061474447868134,110.5683253532301,1.8286965437007425,9.645617391302938,0.43662729927485605
0.2876897,19.29967987543395,1.228716380152723,9.655707951781716,3.0614682576473315,112.1563468777602,1.8513112366857492,9.675706104606608,0.4372441455491159
0.2881552,19.48756314964612,1.274007782552455,10.14562986247343,3.061769846962226,113.7809926523663,1.8754526849251691,9.678677806124124,0.4365442249499693
0.2886207,19.63970605114643,1.3141449354208867,10.614564337613272,3.0626445339019077,115.4086647872005,1.894944903932027,9.663221212687477,0.4351379620693585
0.2890862,19.754821875882243,1.3487034133978846,11.056822079953859,3.0641160522896516,116.9980630872089,1.9079147622841863,9.650555914689745,0.4343816636539803
0.2895517,19.83419957438237,1.3778259813340155,11.46454315159605,3.066317125648295,118.50498906932675,1.9154343887817924,9.656645811400663,0.43437166119503307
0.2900172,19.87945791997437,1.4024357453272263,11.825039071254823,3.069010043633548,119.89129664816869,1.9167714440008115,9.68362504820757,0.43517990169038834
0.2904828,19.897912933734734,1.4231824581852566,12.124160779315178,3.0715049907344865,121.13364880743454,1.9096629572966988,9.724750294476724,0.43679668719843157
0.2909483,19.901028208156028,1.4400110118310518,12.356610893450926,3.0730754350497826,122.21974704835512,1.8975694318772631,9.772084152133896,0.43791423834123233
0.2914138,19.898065262719363,1.4527924295371584,12.532229553946072,3.0733967185812934,123.14139849481751,1.8885222343092964,9.831226790030579,0.4385293922103873
0.2918793,19.89829178986099,1.4615717226648737,12.669439431591373,3.073473826709049,123.89934545841244,1.8842254538545142,9.934373613887844,0.44087009930953036
0.2923448,19.920429683437398,1.4663294431604341,12.78321516852235,3.0740423203700837,124.51063687054607,1.8819912689233917,10.116191303302218,0.44702542093838166
0.2928103,19.99221238746127,1.4675068072425157,12.879109592392085,3.0741817585283653,125.00213992358968,1.884385893307969,10.378253745943057,0.45652639929096006
0.2932759,20.130259240237354,1.4671876849866923,12.956765437028265,3.0733556701605735,125.39626122457548,1.893819097161085,10.702326191421054,0.4654944971152063
0.2937414,20.324749203539376,1.468332145985426,13.016910026248956,3.0720764206215176,125.70470827410647,1.9055527687359668,11.077809842891464,0.4718000998576396
0.2942069,20.549900088669624,1.472048748427673,13.062897877077335,3.070803312021539,125.93232209615046,1.9136843797501104,11.499008300807867,0.4776786706391583
0.2946724,20.786718695134137,1.4772102978789343,13.098104823191017,3.0704025628061578,126.08270256495766,1.9170611391017234,11.957133960579188,0.485218805632164
0.2951379,21.039833620290814,1.4829825625540034,13.124742312516085,3.0726536632711263,126.16225365458966,1.9177854902393006,12.443856309995498,0.4944452094623691
0.2956034,21.336464686093063,1.490272123727043,13.143205334828822,3.0775439993775215,126.18561348962001,1.9178846000189973,12.951318395530468,0.5046530786365401
0.296069,21.699961684350974,1.5005884998360246,13.152747818911386,3.081596959792406,126.1805877622351,1.9180133711970953,13.465934462187079,0.5149311567306726
0.2965345,22.113169314725926,1.5145822170133107,13.15500530844817,3.082580335665528,126.18607151224457,1.9184018534047536,13.965007860045533,0.5247791424073236
0.297,22.52044737657643,1.5320601968357743,13.154807895026376,3.0817876857411686,126.24433043894314,1.9189500798200496,14.419770169990251,0.5350264083398697
0.2974655,22.87679758001654,1.5529492643054847,13.156586474438225,3.080171455542139,126.39356436894553,1.9183934205569995,14.806044534396975,0.5478791786745452
0.297931,23.17543894459149,1.577573525226107,13.162600188947316,3.0776435772892055,126.6595131091018,1.9165944094703211,15.115013313963027,0.5652790230274499
0.2983966,23.42680698728753,1.6055774659312332,13.174281920774607,3.074765898375499,127.04775707737845,1.9147090536159028,15.352729921859526,0.5859946797551987
0.2988621,23.633755837412977,1.6351149358053354,13.192752947067396,3.0730453030759612,127.54930910388116,1.9126557851488841,15.529030704773989,0.6049233796369844
0.2993276,23.793013978681756,1.6636406124001923,13.218522391395796,3.073663117068716,128.15835299930774,1.9108544753013088,15.648620285607318,0.6172896380741341
0.2997931,23.908529963592564,1.689130446845159,13.252752580606,3.0757011561070087,128.87547390051415,1.911870793568183,15.714841416834755,0.6222619720810902
0.3002586,23.993483165585282,1.7102621311208699,13.298332204592779,3.077590039357469,129.68579682149388,1.9176612197509282,15.740080031689372,0.6218333569684809
0.3007241,24.063497192570154,1.7261695252215534,13.357815171138421,3.0787755399168715,130.5472217390437,1.9274585432181535,15.74523592152415,0.6184935979438757
0.3011897,24.130344935431676,1.7367768884979564,13.430096988923514,3.079020225262664,131.41818796322445,1.9395903364249512,15.74598706868249,0.6144328018833165
0.3016552,24.196840869776484,1.7430842049769963,13.51126124417198,3.0771339060432847,132.28617174499163,1.9518848690077721,15.744366042472386,0.6112547825289865
0.3021207,24.257617104037877,1.7466205856111732,13.598736689917326,3.070543362477554,133.14975250912246,1.9600936631987562,15.734473817138037,0.6095481301351614
0.3025862,24.306956040989043,1.7486477472651571,13.691608326936203,3.0601221319015495,133.98241183233205,1.9592972439007958,15.712298088320207,0.6088060179494417
0.3030517,24.34469393707135,1.7498910105158942,13.788914006658334,3.050309655286846,134.73719579475292,1.946923865753716,15.684455695127872,0.6082971380355269
0.3035172,24.375214800937837,1.7506612912021842,13.890293746992805,3.041354255170648,135.3858784422856,1.9221804575535664,15.674635164634477,0.6080515954033849
0.3039828,24.40369449803198,1.7510190941541577,13.99600744092457,3.0267196917153116,135.93193840789218,1.884700458290663,15.70955163126263,0.6101181334076784
0.3044483,24.432453902363786,1.7510307963604927,14.105349289068839,2.9980328470026896,136.38633789739015,1.8384378578745884,15.78600965804231,0.6166872940849099
0.3049138,24.457881595434724,1.7510160108798423,14.215524467174106,2.951924077895569,136.74808494695822,1.7914205290407486,15.878271341376543,0.6257393309758703
0.3053793,24.472530745856538,1.751382632209263,14.322927801976023,2.8891419831888805,137.01107979555758,1.7517278875020779,15.981354303856218,0.6342300119299467
0.3058448,24.469957320243914,1.752298747258398,14.42608765873326,2.8108528381785853,137.17857989045018,1.7264249951209671,16.104311460652976,0.641553728593097
0.3063103,24.446301022623324,1.7535959815759723,14.526272551460625,2.724887408509904,137.2647949265766,1.717130790488523,16.24372815344261,0.6477347034743766
0.3067759,24.412603223778888,1.754718545165695,14.62513696280045,2.6513079713369674,137.28814960257046,1.7172480130004817,16.392782018610074,0.6523312040407896
0.3072414,24.39153256726303,1.7549753113356006,14.72250558085985,2.6051364324668045,137.26707431323638,1.7183263407716969,16.543295120490356,0.6557553039408334
0.3077069,24.386041167923842,1.7541978680642185,14.816607835567087,2.5823948271459014,137.2184118293382,1.7172680707895775,16.679286295524477,0.6598060953261481
0.3081724,24.38566606931561,1.7528426481044974,14.906027985997373,2.5733236281929375,137.15492168517204,1.7163362164391274,16.78619215640054,0.6650036824352958
0.3086379,24.396531885479323,1.7513633598928915,14.990718405447149,2.5746277858139552,137.0830599466053,1.7181892257131275,16.864219123787766,0.6696474017837892
0.3091034,24.424697359152294,1.7498088721957978,15.070995377090274,2.5843106485413885,137.00391004760928,1.723753834674515,16.92668771567702,0.6708265687503828
0.309569,24.27181978945306,1.7480003660427224,15.146165996091964,2.5917977560409424,136.9170726340304,1.734171694746676,16.9843861401911,0.6677951550577236
0.3100345,23.802194429476547,1.7460124607381804,15.21439494336407,2.585878289913115,136.82363243017724,1.7505172559715343,17.034988452836764,0.6643745843239035
0.3105,23.440538916252393,1.7440989281072123,15.273475236987958,2.5679101818465404,136.7251928024144,1.7699864165551673,17.069648957097876,0.6631584178751515
0.3109655,23.394401770682784,1.742436831952884,15.321738779010424,2.547500597671569,136.6223367235519,1.7854189714839739,17.088805752603907,0.6630409578355888
0.311431,23.425791464643225,1.742714354449005,15.35867462011336,2.532524238526487,136.51730539508557,1.7915593411219743,17.10195629751214,0.6629881424417646
0.3118966,23.41826365129836,1.746877470190949,15.384971231680009,2.5241745338841945,136.41783844451908,1.7880491612922833,17.115762685752316,0.6628235240330894
0.3123621,23.255469063317207,1.7524521733557654,15.402276002854936,2.515266442521118,136.3339975754503,1.7758901104825906,17.13405054708321,0.6628152910018634
0.3128276,22.99980363484228,1.7561630333793563,15.41290968724238,2.4925552616487363,136.27162311830796,1.7561777156603116,17.158834930509553,0.662966726860093
0.3132931,22.84409128952804,1.7584619927668905,15.418724437449379,2.4407718485372976,136.2359320534582,1.7346586358010527,17.186182963615327,0.6629748138186464
0.3137586,22.80560766449732,1.7609906561966489,15.4201007671669,2.3483491107763106,136.23747423800398,1.723792990623622,17.208669987705232,0.6628658801961725
0.3142241,22.813872533767903,1.7643888277153648,15.416888279879961,2.2163652761009884,136.25915236954546,1.7328180515564655,17.220450821041208,0.6632816929453494
0.3146897,22.833768036951906,1.7673223335902373,15.408864222019888,2.062041984319188,136.17607430701793,1.7526333454325311,17.221835052433658,0.6649001846462431
0.3151552,22.864817117779264,1.7679801730792293,15.395828723584753,1.9102164815263536,135.76169630662466,1.7612302104428934,17.221615714679743,0.6674180256407269
0.3156207,22.91041932341931,1.7664113850330188,15.378700726489669,1.7796944460645003,134.84712936802924,1.7501147729864708,17.224932689400905,0.6710174523017343
0.3160862,22.965826345764846,1.7639902957279865,15.35868390441495,1.6780781412375563,133.41089793509414,1.732128430218644,17.225449790027174,0.6753418037149475
0.3165517,23.023794396900556,1.7618524042943526,15.335774292396346,1.6080555448339622,131.4967037535531,1.7204191434735732,17.226181878255314,0.6782843158616185
0.3170172,23.078172236208534,1.7601487049739226,15.309589248580274,1.5710747367867417,129.15260113427607,1.715214088535529,17.24183753999993,0.6791141614367717
0.3174828,23.1251049216206,1.758344686748421,15.28088223165357,1.5611237950745978,126.4732072020065,1.7114804482463255,17.270423059315355,0.6788904731283428
0.3179483,23.162972692314355,1.7557065272236105,15.251411399807058,1.5622115602890132,123.61885111396684,1.7050702703976102,17.29269705191832,0.678870285103007
0.3184138,23.191562611186505,1.751920307516188,15.222757666449688,1.5590341357527873,120.74764574312324,1.690030842553565,17.29838536155596,0.6792283553752068
0.3188793,23.211972552105443,1.7475483088238757,15.195566578637873,1.5456831579885155,117.95890373542339,1.6614151503295076,17.298009228600893,0.6797837999499541
0.3193448,23.226318152427233,1.7433328917566155,15.169124092386696,1.5239439641791104,115.31609859057788,1.6257229449029291,17.30653522527068,0.6810601840997987
0.3198103,23.237632183112602,1.7396608878119706,15.141214826692517,1.5000934830201405,112.88889963244728,1.6005586615217262,17.323742795479248,0.6821650074240058
0.3202759,23.249831499763825,1.7369150555237183,15.10915649130884,1.4805459191347914,110.75004979523202,1.5948082112133573,17.346168494038146,0.6817783500639109
0.3207414,23.256408141175598,1.7355050457750039,15.07204061796212,1.4665210366358385,108.94519335344386,1.5953303388028166,17.37857850946451,0.6814651078941906
0.3212069,23.242863815893216,1.7354938868521173,15.032222801575907,1.4548308905971905,107.48213692289299,1.5846640947459394,17.415557938944218,0.6836476724784892
0.3216724,23.2208043374696,1.7365457095135306,14.993912449108974,1.442758812353965,106.34542684053618,1.5595341867772603,17.44000544064848,0.6884007392227397
0.3221379,23.203642026899796,1.7382008757567704,14.959617658876398,1.432397342934902,105.5131125249148,1.5294180590187216,17.446597432858873,0.6941834845349011
0.3226034,23.1627193426737,1.7401926827617809,14.927731880157738,1.4285378569034053,104.96159621019794,1.5107952114721213,17.445142319656075,0.6997783485688113
0.323069,23.014876888924636,1.742470755845019,14.893050702325155,1.4286492783696207,104.66112849476328,1.5147885178595213,17.443985415403493,0.7049377140231153
0.3235345,22.73681524881235,1.744545519902916,14.849926692576373,1.4236637569502129,104.57246672598686,1.5340702633384484,17.444212177846683,0.7098989238190218
0.324,22.535397675984186,1.744915094816827,14.797109493987218,1.4109171588680798,104.6525473459894,1.553055545551856,17.442354796278988,0.7144349968778386
0.3244655,22.515291545266418,1.7424581231757914,14.739784641605947,1.3957427287538369,104.86502796925461,1.5658393969719793,17.42900935655809,0.7174256283767305
0.324931,22.490368916850993,1.7381943775131012,14.685149202241943,1.384045909117544,105.18394871672554,1.5747727795107889,17.389541939286733,0.717577132805936
0.3253966,22.360232970482556,1.7343045071236352,14.636996140570947,1.3797536497973808,105.58649913736191,1.5792548770945356,17.312352250994188,0.7149426039449459
0.3258621,22.172228621213332,1.732371304870595,14.59553477793754,1.3833243702281435,106.0438310336137,1.5752769505999136,17.19076851076983,0.7109505782750979
0.3263276,21.95262984074901,1.7325767712668532,14.560275000450284,1.3901604470422821,106.52000687512546,1.563213803395208,17.0199306897098,0.7065313648396949
0.3267931,21.694403766407653,1.7340231075632206,14.531736615664192,1.3960280120785267,106.97713457497333,1.5489998383703538,16.81046134306416,0.7019385538714438
0.3272586,21.405168833761124,1.7360868450481655,14.511334838585663,1.4015882896963339,107.3780368937215,1.538572728356347,16.599501598603737,0.6981408514305266
0.3277241,21.104672509690925,1.7390386357866598,14.500623706734734,1.408817761221823,107.68572850107209,1.533464063291164,16.42616763359786,0.6963449096386888
0.3281897,20.79885383094613,1.7430789513219989,14.500648818497751,1.4170873596035751,107.86593918658185,1.5332385585628852,16.299211636199257,0.6963570965516891
0.3286552,20.48991857359731,1.7469857896004581,14.510955925056498,1.4241538013033004,107.89409394440239,1.5355662064288103,16.201428588033735,0.6974191488554942
0.3291207,20.198892690524797,1.7486153751590179,14.52796615561242,1.4297982980487816,107.76019011501012,1.5370583260476272,16.113512388264322,0.6982144621274639
0.3295862,19.946365878630015,1.7463296352143196,14.544040845237785,1.4340411934747062,107.46412566189527,1.538053985930098,16.027575611077978,0.6961120350089042
0.3300517,19.71568565276911,1.7390921651195286,14.548485326457481,1.4364441248371969,107.00094380412149,1.5387191235200275,15.948682319080493,0.6907215963629044
0.3305172,19.459329603867122,1.7260532846575756,14.529586898428407,1.4353111033776667,106.3472709339536,1.5389895610558553,15.8856299915621,0.6858330872375004
0.3309828,19.14247667944658,1.7069967634203285,14.475960069385902,1.4232698715915664,105.4683186366128,1.5392305725518565,15.836424567903384,0.685463676037321
0.3314483,18.79195663357147,1.6827855163692933,14.377260382825302,1.3970397002797725,104.35245013857828,1.538702704187952,15.787958994526125,0.6899568523300352
0.3319138,18.47987411010495,1.654576674350216,14.225836782114484,1.3662001451998056,103.04350296122082,1.538211520250024,15.732615324345472,0.6965521660214288
0.3323793,18.24103053724773,1.6226151181195323,14.01970518307201,1.342070706394,101.62137973642092,1.538228283628438,15.675621475401508,0.7027608272467831
0.3328448,18.048824258527176,1.5864960756665731,13.763959066315895,1.3280041323081728,100.13696086114135,1.5344389460952335,15.62467432035993,0.7077201177576149
0.3333103,17.860938345083788,1.5468728089127386,13.467392707038234,1.321538105153345,98.57653415740091,1.5204403542329268,15.581084414666686,0.7110556403552859
0.3337759,17.65703682344861,1.5057506798955567,13.137212274819344,1.3182233775703145,96.89390638306111,1.4946128524225968,15.542648237827217,0.7123805365394815
0.3342414,17.447420544304013,1.4650029709476604,12.778175371091018,1.3149834375315987,95.06552854006458,1.4616213890609018,15.510578147023049,0.7125010592622056
0.3347069,17.255222589368504,1.4257904977555085,12.395906060121376,1.3118495661394869,93.11282573060329,1.4296224148260204,15.491209808828652,0.7128953973094592
0.3351724,17.094074207277124,1.3890454869767161,11.99858985028923,1.3089210908987177,91.08803568668597,1.4061274169824893,15.487901058315964,0.71383457247085
0.3356379,16.966468102558572,1.355657251830804,11.595404096709624,1.304758896538678,89.05717094421766,1.3920568138421878,15.492241835999177,0.7149600478167306
0.3361034,16.874135216742854,1.3261862257669095,11.19664640921514,1.2986185750473722,87.09118662784084,1.3814001646718677,15.489357791691393,0.7159572692259968
0.336569,16.81933908961708,1.3007226602522892,10.81849781396236,1.2925453879625721,85.25316637785907,1.3691882595472153,15.471993910393966,0.716315404583813
0.3370345,16.796881545874978,1.2795713111917242,10.483691385431504,1.2929720252185555,83.58928031879607,1.3582595867321865,15.44250353585683,0.7159229883131528
0.3375,16.794623073103786,1.2641221752398542,10.209169293416052,1.3051308350554456,82.13660735235472,1.35405176850566,15.399021202295685,0.715154345104532
0.3379655,16.802940435522668,1.25584487782346,9.993203582045728,1.3206387061790579,80.92979130608127,1.3539936105530441,15.330290482297665,0.7139477801469495
0.338431,16.81464522377125,1.2543612939699138,9.819785844522398,1.3263569688964933,79.98643705875003,1.3539971014236614,15.226739153200782,0.7115940250281256
0.3388966,16.81196504675905,1.2578780519923531,9.673214491279145,1.3249971583309064,79.29221127306144,1.353379063262855,15.085503679203047,0.7069406854895676
0.3393621,16.75946523702706,1.264448235719004,9.546749029559946,1.3267651503941114,78.81310672414371,1.3464182416616992,14.90328723933467,0.6994574311994938
0.3398276,16.624387589574358,1.2715034965965308,9.44138232901258,1.3340946890696799,78.51854100556419,1.32926578604441,14.670756604183188,0.6905391409587411
0.3402931,16.404876704764792,1.2765301280273942,9.358374624000302,1.3468371515846418,78.38733311864266,1.309709189821064,14.374867488037326,0.6820853554410146
0.3407586,16.127504778760247,1.279183610371956,9.294650990037583,1.3665942708803238,78.40102367657006,1.3009485122491673,14.006986291897402,0.6746504620190816
0.3412241,15.817478728415733,1.2802552974771286,9.24602283034259,1.3897919388553193,78.54212558028054,1.3093943081278312,13.570237336966107,0.667648278272902
0.3416897,15.47016939831962,1.27903197951982,9.211903618708982,1.4055096346271294,78.79357422697079,1.326294954489657,13.077727162254488,0.6600938731641683
0.3421552,15.046052270139207,1.2734669437265598,9.194742051627049,1.4078374383233334,79.12797996659624,1.3381994384415283,12.54281001963504,0.652094283658665
0.3426207,14.504743534547318,1.262134232460994,9.194430522967245,1.4043171573919033,79.49655453586543,1.3424709814632823,11.97376669384235,0.645124222997588
0.3430862,13.862705704690137,1.2450036260075987,9.204745892240902,1.403479328403951,79.83404640740524,1.3430712168334318,11.381232446615556,0.6392238110464703
0.3435517,13.193678373790583,1.2226901618096797,9.216489887737335,1.4052395436736058,80.07251788413619,1.3421686340802261,10.790644863453293,0.6322621761000513
0.3440172,12.56489138094016,1.1953808270609028,9.222750983169112,1.4083154041820514,80.14899750456792,1.3402664460258593,10.241627789744891,0.6214971737080488
0.3444828,12.002664630187244,1.1624544567976287,9.219841013224608,1.4125211725648945,80.01330111262949,1.3380420720275252,9.768875967891429,0.6052817433337482
0.3449483,11.505181795393352,1.1235309723363738,9.20543847310638,1.4161024347260454,79.64160997055893,1.3355744382138315,9.386094671181993,0.5857032800982351
0.3454138,11.073717490124533,1.0800985855382417,9.178239162136972,1.4156310997330481,79.03499649193965,1.334248640358384,9.091392472046737,0.5678610645664401
0.3458793,11.010883270876972,1.035416251505054,9.13799593090948,1.4087700500722742,78.19532990686888,1.3433225356240825,8.881113796742534,0.5553614263066575
0.3463448,12.16856247034583,0.992686110820052,9.083591378027931,1.3989556773337009,77.11610180199162,1.3635984957248677,8.7522135894068,0.5490265844514431
0.3468103,14.245939459564196,0.9541776505262808,9.011274971626923,1.3921705943928953,75.81170982879482,1.3730177316007388,8.69189838837128,0.5474504017679384
0.3472759,15.766329969377207,0.9216956121219163,8.91712255431997,1.3906884267346205,74.33813402697574,1.3625949761037526,8.674998300876998,0.5484135414375921
0.3477414,16.32519189456746,0.8963500526152637,8.801865676598739,1.3946370949888647,72.75427915956156,1.345320743993658,8.676878819683449,0.5498347944984694
0.3482069,16.42681886359425,0.8778509361197908,8.671369205729325,1.4058747426736649,71.07756101308989,1.3267872838402335,8.681640577748425,0.5505688085334706
0.3486724,16.435863400332856,0.8649948923517968,8.531960330029682,1.4269499491379096,69.31380979282036,1.309027399359855,8.680208318962185,0.5515835444301331
0.3491379,16.4455849788634,0.8566165665413131,8.387071063721148,1.4560952041312434,67.521213646103,1.298243578496475,8.665189129403505,0.5539422839730755
0.3496034,16.424124315052637,0.8515419043515207,8.23698919983583,1.48542995294284,65.8026067741879,1.2957320706340325,8.627160356490679,0.5565987527614913
0.350069,16.35831486823875,0.8486119034354351,8.078159090143105,1.5074460566306307,64.22854804092678,1.2971676623034132,8.557433339256637,0.5558121577249094
0.3505345,16.279053941453345,0.847244459369276,7.904535366331805,1.5218650007371761,62.80716364620591,1.2978266158690248,8.451509561243796,0.5486020305892768
0.351,16.206989821885333,0.8470775442626566,7.714062853224256,1.5313920024803094,61.53175338772567,1.2934082767273523,8.30943962552272,0.5367907732150173
0.3514655,16.151852584874547,0.8472513088488935,7.5122529252385215,1.536380925332226,60.42112082861666,1.28734152537761,8.13606467058335,0.5246384737384636
0.351931,16.121862293281744,0.8467255713997671,7.3071349020309135,1.5368173469104132,59.50267759268936,1.2883860168837789,7.933483563083941,0.514515405740043
0.3523966,16.123734185116078,0.8449200071042604,7.1016332557868616,1.5352392366113838,58.77927487325005,1.293108772828273,7.689483202792517,0.506633573249546
0.3528621,16.156348339837514,0.841723564470582,6.892128582431521,1.5350686836463978,58.228042888930354,1.2932041320597447,7.392919830315137,0.5005803352269766
0.3533276,16.20640682706514,0.8375712464244093,6.67424292791712,1.5338738010037614,57.818737410380095,1.2917577547391792,7.059016565173865,0.4961214882221194
0.3537931,16.256334731861173,0.833560363195956,6.448525012627996,1.5264791761393903,57.52211490656829,1.2970095773108279,6.717959069432681,0.4932388453767391
