Time,Rectus Femoris right,Rectus Femoris left,Hamstrings right,Hamstrings left,TibilaisÂ Anterior right,TibilaisÂ Anterior left,Gastrocnemius right,Gastrocnemius left
0.0,7.3024935323308435,2.54111757327622,4.542919829734699,1.065373855662443,6.001677711911808,1.328691598583994,8.200947445687309,0.5794528953787088
0.0004655,7.268981162643838,2.5229847900968525,4.501327956319065,1.0581727465950312,6.418574948583392,1.3412030427982997,8.503014012526739,0.5748185921183177
0.000931,7.240505299529039,2.5026747868416543,4.492334570004681,1.0499760402579368,6.834038049853189,1.3556584750674967,8.858262515116873,0.5747101751155846
0.0013966,7.213032920280697,2.4810287916401506,4.533539913736464,1.0409465309127495,7.103078216436026,1.3743466482029976,9.26881728243992,0.592762778611067
0.0018621,7.180866992792308,2.458715343427936,4.60342811450105,1.0314866567284215,7.24548503326721,1.3938400853680408,9.727918061856753,0.6392604493013229
0.0023276,7.140613914750873,2.4363148214953774,4.6713762747240395,1.022070660045668,7.3273780691349,1.4069054999868107,10.220432888665886,0.6994760469235225
0.0027931,7.093519823322428,2.4146660038134824,4.716035776533186,1.012928766323284,7.392881614601094,1.4122854476039037,10.731937223806423,0.7584922622270094
0.0032586,7.0432555928895875,2.394320365353677,4.717065672275448,1.0040261003837174,7.461875034998204,1.4139529751642157,11.255370336620775,0.8195581564756697
0.0037241,6.9925022691106005,2.3751644986312757,4.678887284244027,0.9953503033098157,7.54333771165202,1.4134781243103665,11.787641359995057,0.8854223529197595
0.0041897,6.941283580816747,2.3573553746824167,4.655982044591004,0.9874927225099395,7.6410663637810075,1.408305502014314,12.321110447802495,0.9413086675811098
0.0046552,6.887841687972135,2.34115432751499,4.680503397398459,0.9827449671859825,7.746673249278871,1.3982372379327657,12.843334640017801,0.9714858234105688
0.0051207,6.832047772313825,2.324886547472483,4.715244326797496,0.9848935556676914,7.838197073140953,1.3867666775807974,13.352064156846332,0.9807512416880654
0.0055862,6.77695610729967,2.306665320057172,4.73247318789784,0.9946315968149748,7.8996318980895435,1.3756878349073136,13.869808887783067,0.9819814308472048
0.0060517,6.726095907153614,2.2884002127838734,4.744425291800939,1.006002771744734,7.935053298683678,1.3654901379030855,14.429897638391855,0.9809619067793324
0.0065172,6.6807665404229954,2.2707238461018973,4.769289886622127,1.012634054678692,7.956425292340234,1.3578415362709169,15.030366752600314,0.9757371682003458
0.0069828,6.6401988176995355,2.2533115418880483,4.803377177129114,1.0143731081842122,7.96666385171106,1.3566211330372264,15.613865235915569,0.9694629339108555
0.0074483,6.602952844362749,2.2374839480347313,4.82062952719718,1.0144200621077393,7.959302287811646,1.3682357208786786,16.14408825191385,0.988712442335194
0.0079138,6.5672615182640115,2.221462698794364,4.808756800271208,1.0145637981426738,7.932161807271012,1.400804816731262,16.696054756694465,1.0609400029623448
0.0083793,6.530358761964247,2.2050856717102416,4.779496150119028,1.0135795515814516,7.891735218413837,1.4525523007728733,17.421243458641207,1.1675653105181543
0.0088448,6.489427928086757,2.189376451297523,4.74570981484435,1.009829443799972,7.845015515306372,1.4992184987973651,18.36031097876519,1.2591651328040538
0.0093103,6.444624944720827,2.1737320173238603,4.711898243730324,1.0041753364411763,7.795212411405876,1.5176101144714425,19.271358748855715,1.3079649769591932
0.0097759,6.399083315933014,2.1613175717981834,4.6788801784834435,0.9982960275187844,7.743483820562849,1.5137482111381824,19.860597782685847,1.3219348140642528
0.0102414,6.355094511603755,2.1549923908009347,4.647104652426746,0.9934117690176723,7.690843943758215,1.5037772835504888,20.111024356651107,1.320712284748101
0.0107069,6.312621436877104,2.1538533101056174,4.617174773498177,0.9900474741946272,7.638230427012979,1.4934448011710424,20.180027124531776,1.31568418448328
0.0111724,6.270805921758714,2.159066531204622,4.589295773010376,0.9873175600546393,7.586462617767559,1.4836430332423962,20.18071458069242,1.3104663570837454
0.0116379,6.229190158173417,2.175619244232147,4.562791668568302,0.983944198604174,7.535948931381394,1.4772412558847898,20.142704422065705,1.3056668272127088
0.0121034,6.188072948332595,2.2064244059908864,4.536830516311613,0.9798012862313675,7.486251994698162,1.4788161238206012,20.06064489789568,1.3010976833442556
0.012569,6.148020640857865,2.247713766491871,4.511153422437942,0.975806830134914,7.437693104183129,1.4858147269721222,19.94286708049737,1.2961499200414184
0.0130345,6.109141619862011,2.295475905113609,4.48556367426949,0.9731797189794458,7.390281556310812,1.4909461119019358,19.814616192091414,1.289565015860558
0.0135,6.071382952223082,2.3513864183383295,4.459335428376048,0.9722784783785225,7.3435078417652395,1.4918320524091582,19.69951169042276,1.281477919661514
0.0139655,6.035082001587238,2.416399128877465,4.432085830249364,0.9712668881168415,7.303358849871853,1.4902010426573722,19.61311673614541,1.2738149130755407
0.014431,6.000935638398898,2.4811646267882197,4.404669632093497,0.9678945828087183,7.279684944187024,1.4877085042591611,19.5628914121773,1.2667795651702316
0.0148966,5.96986101778448,2.5303010087095084,4.377729508431275,0.9623744926653555,7.279052638262318,1.4847123282543757,19.549671548154613,1.2597130925270827
0.0153621,5.944031781116383,2.557093881872553,4.351642698063283,0.9566836825756151,7.3129766354955965,1.4806882667337942,19.574073988275543,1.253100408031862
0.0158276,5.928899593223478,2.5664476400210683,4.328364549103734,0.9520536791317403,7.407816373589436,1.4751002424007196,19.64322892181707,1.2483636703950163
0.0162931,5.932190086179604,2.5658814108863273,4.3089365452619095,0.9482070652342186,7.588036169224724,1.4680600852617782,19.772669575329292,1.2461397589858498
0.0167586,5.955399587574918,2.5597880488335756,4.291892521658494,0.9443772571582524,7.830929895382479,1.4602212532719296,19.988307130573844,1.2441145996902867
0.0172241,5.98626466646117,2.5501171420568363,4.276617988894029,0.9401541112073287,8.06089535769573,1.4521518636899715,20.336804669422587,1.239920832999952
0.0176897,6.006678780544869,2.5385159914886857,4.262893403641212,0.9355223299082468,8.21708894230928,1.4440201111540587,20.901723527265997,1.2334546672090236
0.0181552,6.007857250703605,2.526604508954862,4.245916395602803,0.9307070072919704,8.297200937076715,1.4359027276922336,21.804624823695566,1.2269368926864028
0.0186207,5.9938869007185245,2.5152536984473777,4.222506798524842,0.9260852506330205,8.327778672399251,1.4293370849520874,23.164198637499428,1.227310504577794
0.0190862,5.973410744348338,2.5036930360680887,4.205907863535342,0.9223587048061522,8.327530804405447,1.4283740165526613,25.021113265792856,1.2439288909755164
0.0195517,5.952634175495168,2.490556762155811,4.205840828939793,0.9205936370696116,8.3041771635378,1.4357498741562427,27.2903932102443,1.2743647537426088
0.0200172,5.933356127163595,2.4774802049286313,4.208846934297441,0.9211793921367867,8.266136387240827,1.4491447028068187,29.78562647575326,1.301168019534675
0.0204828,5.912696012571454,2.4672291275302736,4.204627070635547,0.9230871964064253,8.2228843094535,1.4648063764735875,32.28505226566859,1.3117183709717282
0.0209483,5.887446253977008,2.4586181495612807,4.197739320827594,0.9249193901622569,8.179579155821804,1.4816830274959658,34.58505392471866,1.3091266164823623
0.0214138,5.858575070230317,2.4488180885476254,4.19543963729423,0.9260662902707866,8.138425171223208,1.4994384207982183,36.51840654450258,1.3023516416332421
0.0218793,5.828768170752413,2.437573051680263,4.196824419185048,0.9266098403638666,8.09817991286322,1.5145953159313976,37.96019562216265,1.296817155294441
0.0223448,5.799399225601509,2.426079251333379,4.189931389663376,0.9266958796066356,8.057338214990214,1.5222728565695878,38.86096628484716,1.2947363768533746
0.0228103,5.771374350027194,2.4154461633246647,4.1713786345732915,0.9261587106018425,8.04790033720274,1.5221185091309157,39.28867486645216,1.2973126483360504
0.0232759,5.7454828906574456,2.406652971571176,4.150469785509051,0.9246910691433531,8.151738943977719,1.517896383373574,39.4031584492966,1.3033294142278615
0.0237414,5.7491421932996865,2.411715497418155,4.149930767405889,0.9269987564617922,8.474917813338571,1.5202264584832326,39.557451475428564,1.3142057114203896
0.0242069,5.751893990891294,2.4153686834923054,4.154173534221744,0.9288839184920701,9.015681175803753,1.519952308712869,39.65457916240575,1.319694700305018
0.0246724,5.752104365284991,2.413981594016268,4.1608414840114785,0.9310038802537741,9.732791762155594,1.5183386961736933,39.741826121943504,1.3213145290552692
0.0251379,5.748329284186722,2.406478988757181,4.161731330275714,0.9338447133298635,10.53772817801023,1.5196514617489882,39.840420311808295,1.3215796907963504
0.0256034,5.738977284283757,2.3955413331227793,4.160015948194544,0.9362680833450158,11.34957575155073,1.5227361708675153,39.95780206708269,1.3216118781594015
0.026069,5.72185497094152,2.384872283455596,4.14905594900356,0.93726766566398,12.158078370900204,1.5285085248306778,40.09205442133465,1.3261539874776775
0.0265345,5.692825486984072,2.3764137185968193,4.131399006341393,0.9374315638193527,13.004011437817772,1.5394593363820457,40.2351807088988,1.3441703551271342
0.027,5.64313184688565,2.370710175468963,4.127819144518584,0.9373535029657768,13.869768781288325,1.5498305986257601,40.3763280423457,1.3642660330400564
0.0274655,5.560606327858859,2.36747053328171,4.143577486853927,0.9371980134358647,14.592385466925025,1.5496434284587397,40.50308853554163,1.3659813848653029
0.027931,5.438587334673754,2.365371638016991,4.188748216660473,0.9370762373065274,14.97507794038567,1.538921105630334,40.60135811229139,1.3803134541117181
0.0283966,5.2825905471228705,2.364302028104785,4.293842407542382,0.9370712413003005,15.038584668721565,1.529216535190025,40.65945584651858,1.454521278699693
0.0288621,5.106518327654657,2.3678809397004366,4.483210054523392,0.9379606803414999,15.052384281209111,1.5279780106417777,40.67753096664411,1.56522156894447
0.0293276,4.9237297897465275,2.379005515549425,4.748981613700518,0.9411064885583406,15.26165418955125,1.5291692946891013,40.671136040889486,1.6534528095296657
0.0297931,4.740515578306256,2.3928083955887622,5.0636537905326895,0.9459987699115944,15.71117861399996,1.5245228941380555,40.66344246303449,1.6951750417306761
0.0302586,4.554018735881763,2.4006184486940088,5.415544659438063,0.9499208759281983,16.3459775243548,1.5107159156294636,40.67876881870098,1.7040451568800643
0.0307241,4.356879158298224,2.401131632998544,5.817557633355112,0.9519001272747342,17.12020982173016,1.4860493542520026,40.74608568967655,1.7011410154467295
0.0311897,4.150680713701401,2.401018216663306,6.282632436564871,0.9523144016641345,17.990484177357143,1.459599513347788,40.9006698025867,1.6972118624198969
0.0316552,3.95629972720912,2.409092630980698,6.797927745657555,0.9497544063033199,18.89457113493325,1.4541086541098625,41.170060339623454,1.6953178188398075
0.0321207,3.801738596748985,2.4368945841435563,7.327767645571079,0.9417139771741809,19.77441354824315,1.4715329072604155,41.55853907409075,1.6952952082644621
0.0325862,3.697114827021433,2.4877020721769383,7.835857715049845,0.9275158475480199,20.602613976136595,1.488095631058681,42.05698858953528,1.6955903502176624
0.0330517,3.630268236434933,2.541073629220733,8.29644633696665,0.909065139888621,21.375151246112264,1.4947003885719667,42.66472962797053,1.6962154098812272
0.0335172,3.5835757341596497,2.573784185363945,8.6863586780506,0.8883203715265391,22.0938111989098,1.4985326551217326,43.38913990548556,1.6973404577987812
0.0339828,3.5468502135928435,2.585463648713002,8.978306519396098,0.865834723500209,22.76699632950125,1.5041344947415665,44.226447259599375,1.6978060123614827
0.0344483,3.5194774148332866,2.589908303966577,9.159073199883833,0.8416936074163707,23.413391452404795,1.5098771112059304,45.15620616894642,1.6977594502633733
0.0349138,3.5066711259548424,2.597586311790936,9.248462149982164,0.8167061411332585,24.045183388973328,1.511839901162431,46.15765018137241,1.6990226485333153
0.0353793,3.5125538875909625,2.609953836166465,9.280074930450306,0.7923006757803535,24.64361944745189,1.5104900068138276,47.21867991711633,1.703581638989704
0.0358448,3.536558955631301,2.622765782466119,9.278869816771872,0.769875943670964,25.162104642308336,1.507047610989807,48.322180699574666,1.712816169993065
0.0363103,3.57986925626501,2.6311692221935896,9.27228825902672,0.7514110007112051,25.56692828763005,1.4994199439377585,49.4333325966851,1.7265005343909143
0.0367759,3.649299296691232,2.6315512424754512,9.301295565344317,0.7395143639246982,25.867343495008164,1.487595600492635,50.511481354465126,1.7421117145922922
0.0372414,3.7455934124859334,2.6227700396497173,9.407160067024742,0.7344680617583571,26.098134099355068,1.475583113559468,51.53361583572779,1.755721566218122
0.0377069,3.85459992740255,2.608519542293214,9.613063360250726,0.733592637201903,26.286574796375678,1.4666461025074526,52.501163706572775,1.7646366191444445
0.0381724,3.954413179508789,2.597815108152938,9.91881127702343,0.7342734437243281,26.439045764021134,1.4606860260338452,53.42647895224734,1.7690340028712903
0.0386379,4.026463829818967,2.5975365421769188,10.306233345357079,0.734928860759731,26.54909873348216,1.4564004749837651,54.31654703949265,1.7706108237340576
0.0391034,4.063143287296976,2.60157728093233,10.749454892736917,0.7346600012937505,26.613606147240393,1.4531512789701413,55.16730366110861,1.7707277773556982
0.039569,4.069817704338674,2.5954996310844693,11.226456682613396,0.7326522688278441,26.641586901457437,1.45118420546323,55.96837470050945,1.7701846286783194
0.0400345,4.060039417282441,2.572802980351588,11.721258852012602,0.7286295379634848,26.64941846910345,1.4505155926021467,56.70949460092293,1.7698026990841973
0.0405,4.0468523519543425,2.5401303130805863,12.216991090523189,0.7243326649014983,26.649495256960755,1.4506769882152093,57.38155957739032,1.7712623742725437
0.0409655,4.035385170980404,2.508192266092665,12.697284116960175,0.7214063331349779,26.64537515503837,1.451190218723641,57.973456027947144,1.7801470269592259
0.041431,4.023708551454436,2.482671109897334,13.153350690316934,0.7192369433590752,26.63718581668998,1.4510678036117937,58.470257905928655,1.8070920242940622
0.0418966,4.00869557338253,2.4634923401778983,13.581633561639062,0.7179192741303518,26.628112913336526,1.4513074026619655,58.855424414983815,1.8599128035572245
0.0423621,3.9879671812189037,2.447200267355066,13.977721144873318,0.7186953722464332,26.623328459439815,1.4578360341019072,59.11656941748061,1.9409415191275707
0.0428276,3.9607339102368253,2.430547465259814,14.334900763135137,0.7216097534050461,26.626422883129386,1.4810655946083375,59.254930599519476,2.055403320416906
0.0432931,3.9287075405228626,2.415968872634657,14.646768428577445,0.725690073617856,26.64041773232547,1.534821051077402,59.2956759518486,2.207239880192704
0.0437586,3.8955574993649646,2.4093597557029987,14.911382714963514,0.729697584508435,26.670086495434052,1.6310473286296274,59.29079929567354,2.3837452076131065
0.0442241,3.8661460592013253,2.4102802341003624,15.13466718732188,0.7328328725455506,26.723701555350704,1.7689629381762828,59.31084023810347,2.552278024661681
0.0446897,3.8431473445234428,2.4130455561419133,15.331274307562564,0.7348291321856382,26.817728582155897,1.9316605755441358,59.43021140161927,2.6685181182867677
0.0451552,3.825157067798266,2.4148291523091463,15.520664571569156,0.7354922785384312,26.983358091513427,2.090764998862091,59.708981976796835,2.7025404102699504
0.0456207,3.810054729668854,2.4162180409509983,15.718283079643639,0.7347133206741515,27.259354347763466,2.2089466049831965,60.172907716903346,2.707559955471796
0.0460862,3.798256050435685,2.41995298076217,15.925611051484776,0.7328582107197162,27.66285144061871,2.257175641576229,60.80339182323505,2.850120321683845
0.0465517,3.792105134961736,2.429495756731829,16.126774440450568,0.7307801413521119,28.18424658139041,2.2532663819941527,61.54838143239547,3.2222804777735807
0.0470172,3.7916766854120096,2.4474610830888057,16.29833498467825,0.7294231632373283,28.836005607241056,2.263702341707657,62.34595198853267,3.681361849387401
0.0474828,3.7919166726949936,2.4758015088402052,16.42546265137666,0.7296208545968209,29.669155141754416,2.3369747071040217,63.1428566753481,4.039541502382347
0.0479483,3.787156984262018,2.5135462694267128,16.50955948411878,0.7316177296566452,30.704726902478964,2.4598594651405317,63.90127811780856,4.235450585526303
0.0484138,3.7786727302158374,2.5528314022819956,16.56201487548045,0.7335930708348353,31.871658535841718,2.589936462178121,64.59803747089637,4.3099233184747785
0.0488793,3.7736854172247787,2.582669995518731,16.593432020169015,0.733751589855609,33.046145836774144,2.692994685284372,65.22114458290505,4.325310894084175
0.0493448,3.7779854637789483,2.5991466355761967,16.611231208603094,0.7350833471853495,34.14986212206298,2.755177877692977,65.7658362533328,4.321801019937605
0.0498103,3.7925294040042483,2.6068365489809993,16.6228133759602,0.740091183296484,35.18316660260102,2.7840216460645353,66.23128966319896,4.314784500027347
0.0502759,3.8128461489890095,2.611360364420435,16.631768702216903,0.7448211259973364,36.1696302970653,2.7962135669132815,66.61877231678666,4.307091296640269
0.0507414,3.8333668861856642,2.615206117190433,16.63269233424559,0.7460018941998546,37.0956359524267,2.803348776650942,66.9310694795357,4.2999969279471655
0.0512069,3.854517362342739,2.6182535477633144,16.622700416831712,0.7433861404637733,37.915075685519795,2.808126535771052,67.17202402103636,4.296095864943332
0.0516724,3.880396124767461,2.6210279930830143,16.610274988861924,0.7351140876304953,38.601047970841385,2.8094157953868955,67.3448902653638,4.29723389971777
0.0521379,3.9121719718414605,2.6260170900750155,16.603632357563665,0.7203941861333745,39.16493889216054,2.8094094852377705,67.45052752696098,4.306102814566801
0.0526034,3.94612871471314,2.6353504384246977,16.604916042887965,0.7043054934469581,39.6250916186019,2.8099778854241,67.48930558654361,4.322944292356114
0.053069,3.976700305312844,2.649859996666639,16.614045691751667,0.6939130067115113,39.98363542769929,2.8094859886661405,67.46854672154666,4.340168815522343
0.0535345,4.001953617768667,2.664034648383936,16.632839169713407,0.6909444600939626,40.24471506424375,2.8066203875965634,67.40727991908444,4.34905402668236
0.054,4.024819055989509,2.671011801453256,16.66681423628112,0.6935626048379927,40.43382073957797,2.7996366387574376,67.32434888180514,4.3468719241658125
0.0544655,4.049500365788842,2.672954471373408,16.72027194702221,0.7015417529871021,40.57439045972193,2.785679296673799,67.2194595042037,4.334323302621344
0.054931,4.078159403972174,2.6733785376946604,16.79460057664881,0.7156927114182565,40.6555217490374,2.764097444927314,67.07352515283632,4.314399889696317
0.0553966,4.110416241980172,2.6732013227382616,16.89266988298921,0.7329184992665868,40.666436311694476,2.744721686180593,66.87995648278233,4.295027686128146
0.0558621,4.144673584282916,2.6749771736024437,17.020352113726933,0.7474367700268847,40.685617108117874,2.748963575193847,66.68494053811507,4.283041915528412
0.0563276,4.179611957052208,2.6826887985802474,17.183120314922448,0.7568988364158658,40.82642912066326,2.7889412894325933,66.55393446541022,4.278505139515513
0.0567931,4.214473900210825,2.6965619763657087,17.380990516400203,0.7614439928949572,41.08469009829983,2.84930625182011,66.49599461562524,4.283664379378641
0.0572586,4.246205504268474,2.707691711269674,17.606455206264673,0.7612253530508981,41.38296387725795,2.9012205790456815,66.4756168484712,4.300734011035624
0.0577241,4.269190076496384,2.706703966250125,17.848309592421675,0.7579507145179732,41.69377316088556,2.9335450061275132,66.46509572346494,4.319661990785035
0.0581897,4.281079443908172,2.691631526671142,18.097960245352283,0.754902384011785,42.04233891035555,2.955711775041102,66.4578501680468,4.329152149970415
0.0586552,4.284950200475865,2.6642532129163623,18.352349220760868,0.7539717066974216,42.45861600566514,2.980926728354148,66.45698048158137,4.330102991823592
0.0591207,4.285135824777015,2.628325982799106,18.611798503561953,0.7548345592033894,42.95563400897897,3.0174670841276505,66.46237369808183,4.329417303612848
0.0595862,4.284467446586234,2.588113296716539,18.875454186094583,0.755965701273332,43.53500416207775,3.054555848634405,66.46908861389925,4.331780041397919
0.0600517,4.2842269505359605,2.5465926991477037,19.13850625776085,0.756013456406095,44.18866187213952,3.0730664172049624,66.47188083721548,4.338248508392235
0.0605172,4.2844499828053,2.5074239327884675,19.393680338250714,0.7563444937274147,44.889020520841996,3.074559851214664,66.46738777409277,4.3470359474704425
0.0609828,4.284326298193225,2.4790215667615616,19.635269083663058,0.7605687593232004,45.59346981157083,3.0719535134542153,66.45437720647432,4.35526724584858
0.0614483,4.28291572077562,2.4713995651736003,19.861516414560796,0.7709245477918892,46.2668107780578,3.0696735117386065,66.43290794908576,4.361035874198951
0.0619138,4.278482045557744,2.4830662839513638,20.073049648480826,0.7858343318698793,46.89243014667298,3.067698500833048,66.4020043889318,4.3644825656777515
0.0623793,4.265615333248304,2.4988454568275453,20.26960638626051,0.800323102384161,47.461401933731935,3.0664435669344274,66.35828376238923,4.366762739027413
0.0628448,4.2347362179603225,2.5049246141030315,20.449014012260406,0.8109908988653473,47.960328821993606,3.0666687144602625,66.29717651013914,4.369026380823779
0.0633103,4.181560946935106,2.500817088823319,20.60832283385628,0.8184500384375694,48.37647320896879,3.079270290105619,66.21210019869778,4.37229587053769
0.0637759,4.118703528347959,2.4966778116608213,20.74518758191354,0.8241261070787943,48.70961530565377,3.115818248082134,66.08950450155253,4.376613247509547
0.0642414,4.068684832760142,2.5006268418343187,20.859387664057966,0.8280437685621964,48.970525568919165,3.1534863676346037,65.9028864356552,4.3813632242570515
0.0647069,4.0431392243880415,2.5112086309706743,20.953735963428763,0.8301017949143187,49.17226365434985,3.16653425558982,65.60872243231908,4.385794880047726
0.0651724,4.0353080865060775,2.5252504649917307,21.031540330493627,0.8312759203859327,49.32818012271032,3.1668356837269553,65.15166162660363,4.387996222094729
0.0656379,4.032140658151947,2.5483067319037818,21.092024878264084,0.8328389173313991,49.452205872195044,3.1643154851985793,64.48286834929888,4.3852646848765575
0.0661034,4.025439583288638,2.5943131951534335,21.13347180764345,0.835942025783337,49.55536378849273,3.1612096939606147,63.582559817103025,4.377996983681916
0.066569,4.013832138199442,2.6700726003330875,21.15873110987137,0.8398218606873314,49.641512271765855,3.1559780244014166,62.47413255643143,4.370941266934365
0.0670345,4.0023477008478965,2.760567215226599,21.17237926518142,0.8419450759017406,49.70772519772407,3.1459803461120117,61.22421681174335,4.367846552780124
0.0675,3.9965729111588235,2.842929382248342,21.177701976065215,0.8415821549416891,49.749361611811636,3.1351251367441537,59.932399298037176,4.367891213903867
0.0679655,3.996346528354585,2.9052521941264566,21.176956566472914,0.8399633729063873,49.76627762992603,3.1273436807895725,58.719352480945375,4.368575221779158
0.068431,3.9990451206560875,2.9446243893015485,21.17296263867933,0.8381076376388957,49.767618778560085,3.144305494616558,57.710214669494896,4.3685941226340885
0.0688966,4.003789036947211,2.9616374357159665,21.17028626477171,0.8361417817251384,49.77142204510931,3.1708415275600705,56.99349964205691,4.36752863458863
0.0693621,4.009819101907137,2.9628260566471463,21.1715885247519,0.8338419235605388,49.7961999484084,3.1740209408452325,56.56940551523814,4.365134346369729
0.0698276,4.015509610358638,2.961510967797125,21.17662818767715,0.831396867003766,49.85616984109387,3.174574802320789,56.35327008881759,4.361795450517861
0.0702931,4.0201431882078715,2.9696274691356375,21.186344419281784,0.8291744003316819,49.96678902550179,3.1815624104284206,56.24323094775585,4.358851062742825
0.0707586,4.024115804592727,2.9907784511384996,21.201610838449984,0.8269396604363526,50.13830450913699,3.1809120592790925,56.17209074628625,4.357199043571573
0.0712241,4.027732045337811,3.0197658840636965,21.224123384410305,0.8240546022405324,50.35496108844192,3.18955289692626,56.10694655756817,4.357544729042664
0.0716897,4.031454574857768,3.040834305919854,21.25625966067098,0.820582116574414,50.57630518773814,3.2339813695002455,56.032999287365534,4.362042976845052
0.0721552,4.03637084160257,3.0400923137586084,21.297169064531403,0.8178379247364767,50.768284138262274,3.3241565775165167,55.94571776546454,4.370777010050296
0.0726207,4.0427109154155065,3.0442711364463864,21.34646261045787,0.8166904029521601,50.92160579553264,3.4528370159998842,55.84656329558483,4.378614205919811
0.0730862,4.04791636571606,3.1103098449462627,21.399896847633322,0.8170421461496467,51.043631981519,3.5825321024109207,55.740124199041176,4.379510639913693
0.0735517,4.049120345674091,3.238911049130979,21.449025646965094,0.8197549808069091,51.15776739537282,3.659236054101885,55.633879495771986,4.376455166368522
0.0740172,4.047045955064178,3.369607653243846,21.49138603751527,0.8255530586321043,51.32138985416317,3.6756917548622017,55.53829642364381,4.376815689202556
0.0744828,4.044280847126153,3.4617671561299677,21.527505494358866,0.8322230534332546,51.608656707288944,3.6751278028791274,55.46569797467189,4.37219951329793
0.0749483,4.042013282914246,3.515100566479923,21.554088656368265,0.8368731497944928,52.03431997415965,3.67592479511748,55.425177848180326,4.348227707526013
0.0754138,4.039699914063574,3.540263336355605,21.56541632447226,0.8387521656793958,52.52356462093823,3.6777774652438566,55.4151604068822,4.310070838403899
0.0758793,4.036350588741897,3.5444227763079095,21.558501422523015,0.8379904210467928,52.97775024543916,3.702788050787776,55.42210734280647,4.276483723093269
0.0763448,4.032381700276348,3.53648488909707,21.53377876761248,0.8353623828958859,53.33019859350879,3.749529909021996,55.42748461763638,4.258362669721881
0.0768103,4.0306808610149165,3.53196217599561,21.490626959201432,0.8320474368463245,53.53754907238074,3.782856533078524,55.413079577279724,4.252778064156328
0.0772759,4.034649359952723,3.5472313749689373,21.425497389295987,0.8285802852473236,53.56071834681732,3.7887315998356605,55.358323483124835,4.252367110022448
0.0777414,4.0438501744794,3.585193660980467,21.335305355901006,0.8252333117585701,53.388574812564634,3.7850547152875973,55.238119777453356,4.253229985615485
0.0782069,4.053987224955959,3.6255493023998357,21.222463405279868,0.8219758950478656,53.08603597318553,3.7903382993122223,55.03225721970736,4.254209364989517
0.0786724,4.06219018032863,3.6389842351230564,21.09663315405893,0.8181525089615966,52.78612743139386,3.806212404369315,54.73671433775037,4.254766515847422
0.0791379,4.068445137872317,3.6186882601519357,20.971207057718647,0.8138923851107639,52.61452320036919,3.8243396420818017,54.35645232405576,4.254862310122977
0.0796034,4.073331807830399,3.588979180640621,20.857951918102646,0.8107162164209765,52.633979450313596,3.839035573527647,53.88834079931944,4.2546474683541735
0.080069,4.077432911472869,3.5760481143418406,20.765003004226703,0.8094924073462711,52.84726560872913,3.850427888313416,53.3197285207962,4.254266199316676
0.0805345,4.081118101688739,3.583180973429851,20.69903242230687,0.8097862520186405,53.22625502685793,3.8595936258016446,52.64352067243728,4.254041118471907
0.081,4.083971548814773,3.597088667617459,20.665977980628554,0.8107924919587324,53.7359723181808,3.8665682694221273,51.86704092258563,4.254053874605219
0.0814655,4.084205041446627,3.6045494184302576,20.66677903464021,0.8115287221506512,54.334274501425625,3.8720647759767433,51.002780866993035,4.253547942296415
0.081931,4.077817719337276,3.6013620705768385,20.69441584198561,0.8111319230569786,54.957182624105826,3.877144960991205,50.059416388088394,4.2516229405337285
0.0823966,4.057583952478168,3.590670074778537,20.73625905691312,0.8097084159372027,55.5336249402238,3.883412990044371,49.04834413096128,4.247863663533058
0.0828621,4.01341549341076,3.5780005977898455,20.777007294260976,0.808259623759628,56.03146334388366,3.892524156382838,47.99178522877568,4.242322175592228
0.0833276,3.9373044490000093,3.567922106214926,20.80030565803478,0.8073590446949879,56.473388976933634,3.90257589957159,46.91700038401397,4.2359841251169295
0.0837931,3.830465431092233,3.5615697483239392,20.790943868226876,0.8069443713707473,56.90348530652882,3.9099483116304463,45.841652919433336,4.230507606740958
0.0842586,3.7050025909240856,3.55761100711867,20.737665164542697,0.8070299294280041,57.34237392962144,3.9142467899570925,44.76654772694993,4.226961147117434
0.0847241,3.579579228032738,3.5549239020752847,20.63594965088291,0.8078106125176026,57.762393335445076,3.9174976127960233,43.683378239838156,4.225206431143615
0.0851897,3.4731748832006595,3.5524752393543495,20.489785081547122,0.809482425671996,58.1082155867209,3.9218961851570984,42.5887735110466,4.224532745658553
0.0856552,3.399159916771619,3.5496130775266046,20.309554335992303,0.8114935993800844,58.348512829684104,3.9291146414446763,41.491601539462266,4.224451607328721
0.0861207,3.3628728463684943,3.5472452694367758,20.105290971282706,0.812746443272544,58.49656055460053,3.939221318191602,40.4098756606211,4.224809937852429
0.0865862,3.3617810808685924,3.5464612123251977,19.88088458517486,0.8128090118443686,58.58451143965346,3.950435917313065,39.36441852770702,4.225387710488657
0.0870517,3.3861528934276275,3.54647750185204,19.635179946763582,0.8112992242426231,58.63582635499308,3.9603459915875723,38.377515996489805,4.225287329246105
0.0875172,3.4243984216480317,3.5462779756283513,19.368001744001333,0.807868044990096,58.66085953716536,3.9675282323260648,37.47668644469463,4.221840424284622
0.0879828,3.4685200298608145,3.5469429658181033,19.08417300594245,0.8033973732458282,58.66684794046013,3.9719704760697456,36.697257682773134,4.210374318199105
0.0884483,3.513781946341845,3.549413626770839,18.7926000077871,0.799050208208942,58.66669550124609,3.9739515392821096,36.07904484262536,4.186643317791043
0.0889138,3.55732076143556,3.553280435576598,18.503838606892337,0.7949669634156099,58.67768598323957,3.9726288538614964,35.65579038996883,4.1477868265595585
0.0893793,3.5979741711042172,3.5575517130681598,18.22907151081024,0.7906414072441985,58.71556749390344,3.965133356793835,35.43653373160342,4.090051286983174
0.0898448,3.636649185645531,3.5598466221958622,17.979015690040917,0.7859784044494236,58.79258359364169,3.9459895229367743,35.385115821630976,4.00924577390539
0.0903103,3.673886410253354,3.5584622321954402,17.761098279113998,0.7815246543442647,58.9180786799631,3.9077788620216927,35.41408122341417,3.906916957878089
0.0907759,3.706066734524168,3.5551055358638477,17.575727554310586,0.7777534251238091,59.09690153450965,3.8468084249607717,35.40029312256373,3.798844619438524
0.0912414,3.728562282146269,3.552226587532369,17.414666023051723,0.7747085696709394,59.32619345165344,3.767273812579867,35.212205159530164,3.7187673283641427
0.0917069,3.7406490115060107,3.550077459326456,17.263578643279683,0.7723327315168906,59.59331997888909,3.680566043477561,34.739469957427296,3.6971365268782095
0.0921724,3.743680573506832,3.54738315167355,17.108579632450677,0.7708087886990095,59.87574775192323,3.6089332225820105,33.92061204336155,3.6988671714487285
0.0926379,3.7370569322276115,3.5423009428953622,16.946394642866817,0.7705454783473837,60.14463062805543,3.5764234399671855,32.75742002304817,3.59695138937454
0.0931034,3.717910458644317,3.533121728426765,16.79141083864997,0.7717401364356274,60.37144662958154,3.576476274509447,31.304083385025127,3.2757026611894746
0.093569,3.6854974367722457,3.518491957663451,16.66678524376666,0.7736876649105872,60.53079035631128,3.567525246067324,29.638660305562343,2.760999639877262
0.0940345,3.645922890897195,3.49710272607859,16.585788870820224,0.7749933140803535,60.60010038171482,3.5165390537625774,27.838069591967972,2.223783354019241
0.0945,3.6095680787505047,3.469422137278581,16.54549814107433,0.7751019339576768,60.569228196731615,3.4263373614610897,25.966643838432653,1.8540137289470866
0.0949655,3.5819684728784136,3.440894713811149,16.53527598398516,0.7757149825306825,60.45806322029731,3.323188388672719,24.074470108773763,1.7038266625746719
0.095431,3.560013051899992,3.4196658682335395,16.54590713335786,0.7782017430260988,60.30999126924819,3.2377024329623514,22.19957241756164,1.6780859235954155
0.0958966,3.5367659724544858,3.408593613038143,16.572025387181444,0.7792451653804693,60.15343603658058,3.1893016046808644,20.371074177804086,1.6815895039953808
0.0963621,3.5073006575498806,3.403768365965914,16.610334849939548,0.7765436714477606,59.98079143918063,3.1711204712323373,18.612753242482192,1.682136029533703
0.0968276,3.4733036947433744,3.4006391500571236,16.658030418752904,0.7743269360659855,59.77220833724949,3.162062309850188,16.946977167214147,1.6831789631907665
0.0972931,3.4407947516360915,3.397245083363813,16.71229527184546,0.7754593724070995,59.53137245969843,3.1543193271133694,15.398979329987325,1.695317193621362
0.0977586,3.4115007969214934,3.3937435756305514,16.76996204455323,0.7775862032702244,59.28815186241856,3.149610146668752,14.000158250336526,1.7188787967572043
0.0982241,3.38098392665893,3.390577491484928,16.827177262295855,0.7787202743534899,59.066464471360355,3.1488183994712946,12.788541410880644,1.7363480797550517
0.0986897,3.34389155917575,3.3867722873722714,16.879493805016835,0.7789925308026368,58.8664646992043,3.1495186720257458,11.805190592664506,1.7244802762853135
0.0991552,3.2997362500250023,3.3800949047218323,16.922730539676227,0.7784700967570468,58.683066748772525,3.1495228447248493,11.08323958294106,1.681694394853864
0.0996207,3.2533043629209133,3.3698511965877898,16.954060308355572,0.7764100829907105,58.52393466825987,3.167364984663724,10.627980805971152,1.6359583944127503
0.1000862,3.2081286944108305,3.360520585175996,16.9717212986474,0.7719733282002685,58.39720528738815,3.222512317550716,10.402104115738728,1.6151311446043042
0.1005517,3.1625666986916072,3.3566192194389033,16.973501500134127,0.7637597862661222,58.295308644943375,3.2999112322495563,10.336736323483967,1.6177639545604032
0.1010172,3.1130070192423744,3.356610586281108,16.95627865493278,0.7498413488745709,58.20983733612035,3.379976808745823,10.360404144874854,1.6246840388135675
0.1014828,3.059429420013061,3.3573431909274727,16.916405182279988,0.7303327093208689,58.15553681541702,3.473491817047112,10.415723045865267,1.6258195852343929
0.1019483,3.006279440678767,3.3576945602842634,16.848871585322915,0.7095449845279879,58.14696134329951,3.610434884688401,10.456038773828565,1.628171933825245
0.1024138,2.956347491311879,3.3562849428030894,16.746258070650025,0.6927054315461806,58.13474712879297,3.795296496370535,10.443555449043874,1.648665891736712
0.1028793,2.907260823786162,3.34879734274217,16.60095417317061,0.6811398126268657,58.043246605582674,3.964514031518766,10.364435537052891,1.6970463255191601
0.1033448,2.8566035037243287,3.333666743445321,16.410691031888962,0.6738610014086961,57.87830241928245,4.035572662216916,10.241645183937472,1.7563597884159214
0.1038103,2.809303587319855,3.3182496700544606,16.181622685243312,0.6704610619957538,57.69975734460656,4.0168880964658165,10.117352733092849,1.8015542774619748
0.1042759,2.77648452349329,3.3095561935228335,15.924579158203661,0.6699837871307336,57.53522126078268,3.9982732147369235,10.019338000314393,1.8296911529475297
0.1047414,2.7638520674721816,3.306702369478659,15.647918307496184,0.6699247268945062,57.371487769076424,4.014915672473661,9.949135308773693,1.8480756338108726
0.1052069,2.76596204309544,3.3064691095577774,15.353754618705528,0.668442262097661,57.181691898450936,4.027198772162706,9.89498825376393,1.8587099116251182
0.1056724,2.7736623501427418,3.3071902271596434,15.040460651810875,0.6658700764938332,56.943160345424324,4.015932025330274,9.847113172676123,1.8611506601825474
0.1061379,2.781481198889455,3.3066420978724094,14.708511661751825,0.6631038933241264,56.64402555951165,4.003773309720536,9.80371791813182,1.854752844136995
0.1066034,2.7881184890709414,3.3002734624235837,14.364152494902271,0.6599949555643286,56.28732720528343,4.021167956713815,9.767737152370874,1.8400344059166776
0.107069,2.7944411021398294,3.284319670603049,14.017576293953956,0.6558467677300307,55.892935918137795,4.065176855890107,9.739579494379607,1.8217711163452313
0.1075345,2.801660368497566,3.2592575881268493,13.67750606233516,0.6490926793727243,55.486211688885824,4.102197144859492,9.715029866258897,1.80856487433229
0.108,2.809108460318082,3.2283101131661383,13.347705596131037,0.6368386599116219,55.07959958961941,4.1178290452514394,9.690214502818279,1.8047602456335996
0.1084655,2.81347172368541,3.195950084656228,13.02857530250684,0.6181989102122049,54.67345375418314,4.1218810164157595,9.668016583004144,1.805109948312965
0.108931,2.8112840974496067,3.1689207201190692,12.721553706946235,0.5985612489461082,54.276378658576164,4.122739222420331,9.656011182473346,1.8021606909306973
0.1093966,2.802182247584354,3.1541175969809516,12.431848871689667,0.584965950655374,53.91661893276184,4.12210693887466,9.654393926078223,1.79395525218186
0.1098621,2.7888864588811364,3.152406857978913,12.16726354374001,0.5797960928277471,53.632145967251766,4.113660244410709,9.656798962023554,1.7838410786246472
0.1103276,2.77419787529008,3.1562109385225265,11.934445901164722,0.5829431460665507,53.447003787492285,4.093874097263652,9.661140873903891,1.7767261692601393
0.1107931,2.7600552890642516,3.1568218932173133,11.735905483121119,0.5938541572957982,53.351850939193504,4.08057838787424,9.667996715652414,1.7738870830759104
0.1112586,2.7495479266427583,3.152515196262487,11.569970901695196,0.6089870928278308,53.31319937430441,4.082660430424218,9.675441074248248,1.7722300836270564
0.1117241,2.7470747834437783,3.1444554271180416,11.433424741362893,0.6224227831425613,53.30244610976277,4.083923851705108,9.678820315386298,1.7690192121409845
0.1121897,2.7547607131159833,3.1280772558824834,11.324879577901388,0.6293823936908077,53.30929895255076,4.085158607522764,9.675033498054045,1.763991950564255
0.1126552,2.7705734788893115,3.091395929001244,11.245530874515557,0.6267774795995026,53.33462281815553,4.090941435010413,9.666076795261294,1.7579408402070111
0.1131207,2.790686953153473,3.0259614727011606,11.19555525993125,0.6164368819288119,53.38019497197476,4.096345145323626,9.65750715952369,1.7540167271521758
0.1135862,2.812043004254062,2.9425252983496386,11.170512062333394,0.6053210143099305,53.443851814887665,4.0992600604855,9.655319415899449,1.7607094425295566
0.1140517,2.83286120717243,2.8626976554165546,11.162946367100826,0.5987818306266136,53.520117692448885,4.099454692172055,9.662441202729427,1.7875842068005336
0.1145172,2.851862150363009,2.7996814773959118,11.16627982362794,0.5988013622936968,53.60129805208831,4.096568101672095,9.677469661628143,1.8327227538127988
0.1149828,2.867223097500822,2.758252394972759,11.175671342519175,0.6033100963470924,53.67568335837171,4.075558456063593,9.696506586862734,1.8786843588028685
0.1154483,2.8765159019290114,2.739547181480058,11.186522508147071,0.607260678076959,53.72676925958787,4.049326968362964,9.715310336853943,1.907633209037882
0.1159138,2.8780309517991416,2.7369789127889916,11.194041514436334,0.6091612618551923,53.73563895069496,4.044448955158323,9.730714165846203,1.917509771337362
0.1163793,2.8720185616355183,2.7354980330858014,11.194229730533369,0.6108701581339357,53.681833865390416,4.046135684331591,9.741451405071867,1.918142576817812
0.1168448,2.8608960441917843,2.7222112967110244,11.184223775891088,0.613597695788509,53.54298874934068,4.047385053966346,9.747760197841774,1.9173857835983525
0.1173103,2.848306780915325,2.693571442440996,11.161721796999439,0.6173110743955758,53.30462560816527,4.05495296580384,9.749886175063688,1.9173606166532045
0.1177759,2.837266662657043,2.6545920826492386,11.124798124075893,0.6207760603621911,52.98078984834337,4.051711540142075,9.749915540152742,1.9157074874870117
0.1182414,2.8286613987214015,2.62346457262322,11.071815455181643,0.6227068596347373,52.61750458054601,4.017045472991203,9.749703624268513,1.9067721464232883
0.1187069,2.821217436900986,2.619419767727084,11.001255845658555,0.6233998205657214,52.262453586000476,3.942282665628088,9.744762786032604,1.8892711598915388
0.1191724,2.813183142867178,2.6131041794039684,10.912879075996143,0.6237871232974742,51.93360371376604,3.828970254422049,9.73214129585881,1.869471215939461
0.1196379,2.804480629574247,2.5339372513254057,10.809576386387546,0.6237884115951099,51.61740547584282,3.7072350103453062,9.716079596711854,1.8542259362504612
0.1201034,2.796982311185573,2.365825592875757,10.697026007848718,0.6215652536534789,51.2890290815902,3.633324465938539,9.698736133295345,1.846350694475887
0.120569,2.7941913893667056,2.1734836574073975,10.58037647501481,0.6149894484716562,50.93111765036801,3.6210563427890925,9.67555771762803,1.8450385909134472
0.1210345,2.800238283908505,2.0230800008880183,10.461117367566768,0.6061911067067686,50.53157959899326,3.6263911621439804,9.640117509457355,1.8470597838101246
0.1215,2.814595845060284,1.9298124976666484,10.337615326586134,0.599638567369749,50.0755062438906,3.628840644244016,9.592592800483969,1.8483631162827825
0.1219655,2.8301624194828143,1.8793869169202053,10.208759079109878,0.5955776419766636,49.55816689571466,3.6284884861810336,9.547512948505128,1.8476531128768316
0.122431,2.840391368557201,1.8574074627975623,10.076388241988605,0.5916359501906296,49.00676976157629,3.6036171032419753,9.537253277110606,1.8470003308701248
0.1228966,2.844277475412437,1.8539313597335416,9.943767828952026,0.58585469607695,48.477930371885996,3.5554943108315125,9.58179447179188,1.847327026852501
0.1233621,2.8440677028599786,1.851948229017666,9.812803936061577,0.577368394642626,48.036552619415374,3.52039291117248,9.654313755080977,1.8474939725932529
0.1238276,2.8421986426758377,1.8221121577996682,9.683762106357229,0.5670635799277031,47.74190138023377,3.5133385082220774,9.718090550774255,1.8465641424748942
0.1242931,2.8405633285029595,1.7394580729483737,9.556528229443302,0.5561183754127909,47.6203301079518,3.5123419123918995,9.766399082765028,1.8444648994526593
0.1247586,2.840638625244843,1.6080838046989634,9.430129755678752,0.5458057581689639,47.61804450389858,3.4954543431405707,9.806899993270838,1.8421574934308724
0.1252241,2.843152060054601,1.461863936076983,9.300913015515867,0.5382403553399184,47.60622803006991,3.4660648470505677,9.837023608421077,1.840849701777203
0.1256897,2.847532834201065,1.3357940197248517,9.163471107471418,0.5347619205282446,47.4575609659604,3.4387565206691653,9.836384886369217,1.8407144498713932
0.1261552,2.8519887394232155,1.2391381782498483,9.016231019680946,0.5346117841664926,47.10527389956483,3.420128988365355,9.782842690933299,1.8415160314245227
0.1266207,2.8546372205962802,1.156731235488481,8.8669684280568,0.5372614866568494,46.54229472890933,3.4140803664477968,9.676390523139421,1.8431999194422524
0.1270862,2.854877269753892,1.072806645102658,8.7293188358527,0.5434824065433344,45.79011792965393,3.4228469746255574,9.540260067371525,1.8453322594677697
0.1275517,2.8534784969982243,0.9937616561406064,8.610949400776944,0.5535763593982644,44.87173594544592,3.4391576879704857,9.393363783036227,1.846838794332431
0.1280172,2.851790374844266,0.9419879953466527,8.507625102386344,0.5666702558977718,43.8201722038073,3.4535618992743093,9.221693069839104,1.8471875587141406
0.1284828,2.850937748445453,0.9238302981222466,8.408924489193797,0.5821271966277464,42.71511991677204,3.461111044337705,8.985518954533843,1.8473101918635306
0.1289483,2.8510922591973387,0.923679170154177,8.306798300693497,0.5998186254649455,41.67501820917838,3.4583364752361607,8.664065410438862,1.8495119787194727
0.1294138,2.851611304254116,0.9258859335452199,8.199699348209908,0.618283900817992,40.775348247066376,3.4482592436253934,8.289710464191511,1.8552849454503935
0.1298793,2.8520450039499146,0.925092436696206,8.090745277150159,0.6344676994154,39.99420164279565,3.4455809579353875,7.92741019617953,1.862228241368708
0.1303448,2.8524473392899825,0.9235803463445713,7.982951476323064,0.6464114568299814,39.255557421691584,3.4480404114240693,7.627870671174845,1.8665321822315066
0.1308103,2.8528136389557757,0.9235101715859185,7.8758201152037275,0.6545820293014712,38.51298141175084,3.4421430715812376,7.406995649710245,1.8676327366560306
0.1312759,2.852426869853853,0.922951604327608,7.764034364499168,0.660397686151,37.80268234242316,3.4551193616663305,7.255634429413192,1.8674973942702615
0.1317414,2.8489787722474094,0.9213460512660027,7.638087350417046,0.6647446739318059,37.21660073612088,3.499442801822631,7.157875442116735,1.8673114429033462
0.1322069,2.8371110900266574,0.9201793798302816,7.4886510399815505,0.6679914344450527,36.81330914282944,3.529831689031472,7.101940578526309,1.8669779881337587
0.1326724,2.8083852185367517,0.9197369433580157,7.3155994056123985,0.6708701039027394,36.57405233759244,3.5274171391310656,7.078797835480696,1.8663298816445164
0.1331379,2.757169667104204,0.9198935199807294,7.135852220223153,0.673879730268709,36.443519224396276,3.514733226406931,7.076325452417419,1.8663556631256601
0.1336034,2.688810751242027,0.9209841362901896,6.978793472525793,0.6760291745231669,36.38054940584992,3.5037123304313447,7.080041001188583,1.8687386904783136
0.134069,2.618142637674481,0.9230454669861731,6.867777433526964,0.676244559239359,36.36773823205972,3.495105530444039,7.078737043179699,1.8722432239084104
0.1345345,2.559253037691071,0.9251917316879422,6.805077991713,0.6754602861073958,36.39210852706719,3.489870159241717,7.065982384527708,1.8741184174056076
0.135,2.517424478412478,0.9269407052028016,6.776749225683249,0.6750845815112715,36.427707049966756,3.4884926212856158,7.03707285661404,1.8745036591492064
0.1354655,2.488391238256295,0.9238239596328831,6.7679733180247865,0.6754074218949622,36.43996694869363,3.494168303590234,6.985692938267209,1.87456895602241
0.135931,2.4642949490320065,0.9086325499021602,6.769869733799484,0.6759785825180522,36.39889922623472,3.5042387368757892,6.9029314032928575,1.8746465045662644
0.1363966,2.4396717005415476,0.8896677002269159,6.776240340018375,0.6758836492347968,36.28135980372548,3.5097904721518454,6.780910394259805,1.87474432494681
0.1368621,2.412867751736008,0.8937026246471826,6.779953812872426,0.6751039683339851,36.06704151413488,3.5103735015824618,6.62261024892392,1.874815802774706
0.1373276,2.384759555002649,0.9416163383382343,6.773932849589026,0.6745449592218571,35.739176887072894,3.510402309759823,6.451043123230363,1.8747489453846966
0.1377931,2.356816246232071,1.03458218513578,6.752841879289487,0.6740708979168515,35.28740785617826,3.510301551549587,6.298612000680093,1.8729443986550056
0.1382586,2.330585616331928,1.1602770877754602,6.71317352618274,0.6733581118232458,34.707856706430206,3.5111558414967776,6.181028519821767,1.8668769208823839
0.1387241,2.309422685133244,1.2959277443446646,6.654285670672838,0.6724836437787858,34.00543839042787,3.5143955256274158,6.093194873320643,1.856207328625584
0.1391897,2.298549710157098,1.4123339346292982,6.578923142622503,0.6709593017866057,33.199604019937574,3.5174847765839243,6.025406693157772,1.8431627868286802
0.1396552,2.3024124752786097,1.4875801794440195,6.489505946252586,0.6685303700970681,32.32022726444113,3.517201843196513,5.972748178136211,1.8293857906902362
0.1401207,2.3232093236986455,1.5191337342693323,6.384105417868989,0.6652366742928805,31.38975328211397,3.514682067290331,5.935334657150224,1.8129867974704936
0.1405862,2.3618154269055487,1.5234375069729862,6.258512137675064,0.6618590649827883,30.4129663952632,3.5135538810360587,5.912316401114721,1.788578286069384
0.1410517,2.419321671599494,1.525375219984621,6.11255283913147,0.659250488227255,29.38902266654944,3.5142078040370275,5.89632572459721,1.753015867982863
0.1415172,2.4963859106180304,1.5449386270605496,5.952795006232411,0.6567796727787351,28.32941834085945,3.5143598709319033,5.874411119513304,1.714158187013752
0.1419828,2.589258335040279,1.5881580907937702,5.787723309292935,0.6539608179535478,27.259509724782333,3.5118445349708085,5.83870556299483,1.687419669558767
0.1424483,2.686890754974554,1.6502056870653128,5.6212859736137055,0.6513161812591036,26.20712474186606,3.5046474003407666,5.7920051980833005,1.6786749850470721
0.1429138,2.7751357293997523,1.726974967534301,5.451719802210482,0.6489562168101425,25.197598054353996,3.4963489749899685,5.739620413117274,1.67939292258351
0.1433793,2.84597486116711,1.819763504011538,5.274919804037229,0.6462693569311728,24.256877680797285,3.493635708336458,5.685129132554534,1.6772675435561994
0.1438448,2.9020367251281822,1.9290255224064696,5.088297348209278,0.6429894765643165,23.409877575817305,3.4946578061194558,5.63117795328846,1.6630093562075547
0.1443103,2.952268847747451,2.046680140839724,4.892659675972701,0.6409923193429702,22.674566059550266,3.4956805625601084,5.578701542124369,1.6356145570747433
0.1447759,3.003994087697103,2.1572333347889714,4.691625210814173,0.6437869483761808,22.061762527830396,3.496297315623862,5.5270810868281375,1.6076845274302956
0.1452414,3.055133687868124,2.247067521974718,4.488949352363824,0.653129320425056,21.577609975898,3.4969862152558386,5.480466266960268,1.5932565648367338
0.1457069,3.09295561899221,2.3116581768715774,4.285312844137501,0.667299425644231,21.219898468411035,3.4987163639013517,5.449643236710309,1.5908776281040253
0.1461724,3.107979248508618,2.3550690516034787,4.079069509130385,0.682382428698456,20.973986366991166,3.4857889194998943,5.435039987150694,1.5907786070735124
0.1466379,3.1079943907762675,2.3843857760545752,3.871708352971716,0.6950237619383025,20.818285744171014,3.438393637152235,5.415284749602319,1.5872917330780592
0.1471034,3.111229804653652,2.404766025076948,3.67041989250396,0.704183892198273,20.732794888257644,3.3661552220913484,5.365503996869479,1.5797976701210403
0.147569,3.131761911101246,2.418248270757584,3.483046404785512,0.7102660740528612,20.699448189522826,3.286463733305505,5.281434486528998,1.5726721560590537
0.1480345,3.1781980083792924,2.4257715871800305,3.312093065046319,0.7137719450462419,20.697724025392038,3.189000620247537,5.177619260207347,1.5714969251549298
0.1485,3.2604266700413067,2.4290235782787586,3.155983170715636,0.7152467276976404,20.705869295959385,3.0373823167683263,5.069093803132338,1.5693952865404863
0.1489655,3.3897540100942454,2.4299506522263243,3.0153150187891864,0.7154386033466388,20.70679645292137,2.797502687613184,4.963377287410964,1.5479709101310877
0.149431,3.566282232647639,2.4299639652487666,2.8948776845219784,0.7154219291112447,20.689318650881955,2.507328781241765,4.864539117771267,1.49355161898395
0.1498966,3.767679997650809,2.4299738643507136,2.7979336324620743,0.7158283059108991,20.64242447784805,2.3270862575755173,4.776522275844796,1.4025770573888783
0.1503621,3.9615269605964114,2.4303478132272027,2.721725527324545,0.7163333110978993,20.548466758143245,2.339914020696622,4.69391473119537,1.285661265020969
0.1508276,4.127198557756808,2.4309776828096297,2.660214051717932,0.7167191513944082,20.38340008476999,2.3810541271952173,4.617287914984097,1.175149449239087
0.1512931,4.258564858841309,2.4317286499297324,2.6105783058538297,0.7172953881361073,20.13065872746367,2.343273537794496,4.594859433196744,1.1061887260965406
0.1517586,4.353986363533624,2.4325870647927674,2.5757658131763197,0.7180715323954265,19.79900630768009,2.287452430639946,4.6773162533743795,1.0807457888287297
0.1522241,4.414090326443795,2.4335904110287436,2.5574722892743944,0.7178721929422474,19.417315631790306,2.2524975713475093,4.835814294943605,1.0760849335286184
0.1526897,4.445756192474851,2.435050754218197,2.5524162339154617,0.7159629792316937,19.005644373049225,2.2219668367767937,4.995507980815612,1.0760533471997236
0.1531552,4.459152781462788,2.43752536395119,2.5554605041238583,0.7136705988657227,18.55954034117751,2.1688075681650107,5.104326354056804,1.075179543898011
0.1536207,4.461313507465145,2.4403111345249155,2.5612530762934713,0.7122214845178425,18.06785465500407,2.086685875635324,5.146369752629159,1.0704466451599526
0.1540862,4.455864665421192,2.440849834939176,2.567125274824372,0.7112513387682808,17.545570202237194,2.016492407537511,5.1439615456211065,1.0586380352457234
0.1545517,4.44643820517995,2.437927797663454,2.5751766889950356,0.7107795711928618,17.04297425235359,1.9855419784034563,5.154628825116174,1.0407712003605318
0.1550172,4.437220085150876,2.434290719172831,2.5891295626517974,0.7116516168698013,16.608212365191754,1.9779775441977299,5.213207380001554,1.0247673579268157
0.1554828,4.430783897184084,2.4336328845630226,2.606856104328352,0.7133204143633132,16.239382528837126,1.976799699173674,5.286009036192416,1.0175770984814518
0.1559483,4.426114344761442,2.4356887791423807,2.6199711523958373,0.7159967264930076,15.881044906806427,1.976962650516986,5.33050692243668,1.0172671548521002
0.1564138,4.419408970114868,2.4366672737979953,2.623249698920364,0.724023801686411,15.458064763955647,1.9745471782581654,5.3464811746241345,1.015846168080189
0.1568793,4.412491802259248,2.434290808836846,2.618147865217646,0.7401482944047015,14.923620749871342,1.9589198880046874,5.348677731336653,1.0067768495826348
0.1573448,4.414174224495385,2.429956365403226,2.607690032823162,0.7551809781339192,14.305329170712987,1.9276788377716487,5.344614066472852,0.9903961197256426
0.1578103,4.423049679264152,2.425957404683285,2.592953697617294,0.7590042074376476,13.686478209153918,1.9028192701071627,5.340660723572544,0.9731405701882937
0.1582759,4.428202934870163,2.423257038171153,2.5756941907599775,0.7546452523154507,13.123094096755564,1.8989091979368509,5.342139850974467,0.9610924983321655
0.1587414,4.425298096627469,2.4224054102682464,2.559485946663936,0.7502658345581201,12.603185437488118,1.8957616298779112,5.346156760725361,0.9562767862267523
0.1592069,4.414740945523622,2.4244564392973964,2.547412221404798,0.7505960123104609,12.081706619994208,1.877928871142799,5.347530100582452,0.9570722880195133
0.1596724,4.39735515642219,2.428675646440181,2.534350066265369,0.7562922392534968,11.531616529342582,1.8600276037174557,5.346974004978596,0.955978506793476
0.1601379,4.385976713044495,2.4316515218221864,2.508589821894057,0.763633947689679,10.96727778194552,1.8537108553679313,5.343028614731028,0.9362840797688797
0.1606034,4.407013329018864,2.4327471382178443,2.4729102985013083,0.7671340900872632,10.428440581483303,1.8533151608686775,5.328047385134694,0.8780506235086638
0.161069,4.469389110126625,2.4350229454967884,2.441987761328472,0.7639544251645054,9.950162523517465,1.8532132146442089,5.306231587177025,0.7756133404985749
0.1615345,4.553605523128438,2.4396431163432486,2.4188802831869487,0.7564256572210432,9.554196637627275,1.8530056447130245,5.2938632873846405,0.6540807898756965
0.162,4.636341966476247,2.4456950523204473,2.3968240207742344,0.7496313497024126,9.253250795670631,1.853355938880132,5.290719441106832,0.5621549949412995
0.1624655,4.704775219330683,2.452681474059363,2.3750393678281405,0.7456645383229047,9.045224634275138,1.8526779276703715,5.281979754091283,0.5252726393485907
0.162931,4.755527733124245,2.460447928326729,2.3588062718803147,0.7432544664225894,8.908997686548718,1.8452435724542238,5.26446082979084,0.520036134908864
0.1633966,4.79238079858818,2.468400664865214,2.349652169370425,0.7407452340698231,8.81647864896679,1.8287153989810012,5.251313111333795,0.5201823000625255
0.1638621,4.82213810074068,2.476087187493098,2.341307967145717,0.7375593436039467,8.749161796066847,1.8116869474084023,5.255945798326548,0.5201800062356158
0.1643276,4.849757480625397,2.4841420069454765,2.324763170987207,0.7348409541702147,8.706254214084197,1.8024284934952288,5.275349997080136,0.5195972776070249
0.1647931,4.877152712872769,2.4921020011634964,2.297602396603202,0.7370224946274727,8.696051452117873,1.7993359707985366,5.295898410185579,0.5143172727421347
0.1652586,4.905856804831419,2.496949379552686,2.2665313376686256,0.7564821573222005,8.707498155633232,1.7978693454748784,5.312225969667686,0.5042665292405356
0.1657241,4.939552588806877,2.4970505780434715,2.2401859326612352,0.8039814777592368,8.70232561681603,1.7950300172889035,5.327976718124169,0.4973978712118539
0.1661897,4.981070447450189,2.495136510470812,2.223551051645511,0.862277504676431,8.661345546640748,1.7874748002059306,5.346437024310004,0.49655951449382996
0.1666552,5.023436738249046,2.494517730327304,2.2160753593587073,0.8977218257454215,8.611822964375868,1.7742600157765305,5.365642901442767,0.4959359132113329
0.1671207,5.048288372011812,2.4953068430232093,2.2125211702423835,0.9041442730231768,8.585351359745,1.7598374868072733,5.379412753811223,0.4917761614742562
0.1675862,5.04686721389839,2.4959874840579563,2.2093224307111794,0.9044846535213548,8.583793449995957,1.7490057836891961,5.384520316503579,0.4845254637415515
0.1680517,5.032682901881269,2.495647680009909,2.2078551842777783,0.9112293783554949,8.591725206933285,1.742347226372933,5.382702015046878,0.4764601500147172
0.1685172,5.018121281707997,2.4947728531409408,2.2102626215472596,0.9175839927984661,8.595514929536547,1.7383106399200061,5.363900409955314,0.4703744140726513
0.1689828,5.003660868604203,2.495089994764428,2.216422912374184,0.9192173480618678,8.591431713625234,1.7357564374893064,5.286685413384906,0.46803757758964415
0.1694483,4.992136719541793,2.4997912810731004,2.2259232329754552,0.9191962278379802,8.582855542809599,1.734225907228592,5.124809554102042,0.46867177070107796
0.1699138,4.984124736959436,2.5111781663628396,2.23965011692509,0.922060981902214,8.57076631703789,1.733640100359401,4.927352293777418,0.4701376014192633
0.1703793,4.974625321779766,2.5265739216447165,2.256811889389737,0.9311696603985133,8.549047056445618,1.7339710954241268,4.758298610101184,0.47165865790608885
0.1708448,4.966768350691433,2.5427849726140224,2.272089286700737,0.9463065572633048,8.509942794232774,1.7348064035275896,4.6209437901063435,0.47360663039386847
0.1713103,4.968057288817196,2.5606448310996512,2.279991067444584,0.962036744008136,8.452227335534328,1.735510741841004,4.482624166779694,0.47582800556824734
0.1717759,4.976688892889369,2.582280347888814,2.279490607508046,0.9725112015207785,8.382529367155884,1.7359184691204805,4.3257646685000815,0.47717727546757294
0.1722414,4.985222397476127,2.6046699687174923,2.2718846246220754,0.9767076807387367,8.309917277906575,1.737105366644002,4.174803962391649,0.4763939762333028
0.1727069,4.990002302920733,2.6190952941600685,2.2582915262305354,0.977112114943905,8.239801837417483,1.7367281953605558,4.073687439419329,0.47256190661596387
0.1731724,4.991556430729286,2.6219221798175285,2.2403471473886762,0.9756301256876001,8.170816434232774,1.7203940434134881,4.036240215578393,0.465495236094039
0.1736379,4.991212586979888,2.6190771048617623,2.2206752015939584,0.9731719850063478,8.096923889882548,1.6773584823826613,4.036047016884996,0.45701770435551253
0.1741034,4.989912219287133,2.6195466255719055,2.2017376545914473,0.9746285434927386,8.013628517719443,1.6219103962054209,4.03950632424315,0.45090030348688215
0.174569,4.988376088454673,2.630798087840538,2.184878647293421,0.9859250640156078,7.9207647268487005,1.5752044933448408,4.03728772880854,0.4494604828504201
0.1750345,4.987126108495129,2.658006513581044,2.1706002012152457,0.999888356517422,7.8190159398434735,1.5458043218490214,4.036698382227676,0.44899541724804787
0.1755,4.986459193599888,2.7025818276234426,2.15942995115907,1.0031431776218551,7.706540299821834,1.5366418101879988,4.035814758044413,0.4397594795887023
0.1759655,4.986544587615538,2.7603079821261374,2.1521150536422975,0.9957615020205667,7.579435788097907,1.537441980830917,4.030305632357694,0.41490385110287026
0.176431,4.987536043269856,2.8226783847995756,2.1484824266180644,0.9861184821530009,7.434934755774152,1.5192131756067586,4.025912665370133,0.3818178322311045
0.1768966,4.990145332999807,2.8818239834210027,2.146833277969525,0.9785241561511244,7.27447334735227,1.4947775767761378,4.0289012538102575,0.3580408891978557
0.1773621,4.997388696401566,2.9343205599063253,2.145790276775697,0.9736550742866652,7.101597267396039,1.4957096461374848,4.037226721631663,0.350219397627384
0.1778276,5.015506664079446,2.980445857872743,2.1460062723690663,0.9708987541886654,6.9166292118268276,1.453092887220551,4.047221542404147,0.3498928567937004
0.1782931,5.046305942165813,3.0206228189092506,2.149722197572922,0.9688241732281375,6.717365430948642,1.3235988819885727,4.057221493840793,0.351102506883611
0.1787586,5.07566383024124,3.0529336485859355,2.1587202557885186,0.9661331448632228,6.5052360782578695,1.2095510365029363,4.062422995706566,0.35392579055792295
0.1792241,5.087304786603024,3.0745293870138237,2.171554123100004,0.9630778071739041,6.28789352969618,1.1784438171318916,4.0609773283852775,0.3563273053819611
0.1796897,5.087458117555111,3.0854975543985894,2.1843025893642136,0.9631984382610265,6.076490954309416,1.177927494258181,4.057585132974062,0.3511873250210045
0.1801552,5.09103578343823,3.089518228444696,2.1951303246336833,0.9713395194087805,5.879163729198662,1.177300579647215,4.057457265106403,0.332082777659931
0.1806207,5.098457097005755,3.0903491725129113,2.2062297026229274,0.9872608501491711,5.6943733158103615,1.1772980668236046,4.06464914177793,0.30804550009528614
0.1810862,5.103627048113765,3.089419134485995,2.2202646990983954,1.004538545345252,5.5115029485521525,1.177283636302088,4.090536942871412,0.2954673213671148
0.1815517,5.106015699177984,3.086919317740115,2.2343394914216335,1.0172463204608397,5.3231458167616825,1.1741981243100326,4.161070602948003,0.2930545507069552
0.1820172,5.1094781236639095,3.084383551632369,2.240685314113537,1.023916640385471,5.140763902743163,1.1539809316325251,4.292800392031934,0.2926310821876603
0.1824828,5.115086551310006,3.0839740269551204,2.235214229041001,1.0261622829702448,4.985349177100313,1.1212077858825036,4.4550258577011705,0.2913689779462852
0.1829483,5.120985372557731,3.083768821203251,2.22023791941164,1.0265859105477544,4.858158113721778,1.1047156206624194,4.5968419974335735,0.2890489926310033
0.1834138,5.12794967035021,3.0775605626945044,2.2022263250192493,1.026734827262883,4.729376658856539,1.1124701004986288,4.701366505181861,0.28801990326115107
0.1838793,5.138184839181495,3.059745831345591,2.1897180654385755,1.026694012961456,4.792804521173787,1.1305402282306027,4.7809166872309055,0.288511319695264
0.1843448,5.149670211491599,3.0272809340543545,2.186824665147309,1.0269138765233077,5.6850395314251765,1.1489621690679714,4.847570526995849,0.2888246824061255
0.1848103,5.157467540988449,2.9795440446580277,2.19107545361532,1.0280781130241234,7.346133315116409,1.161658944804165,4.905858097628176,0.29075561770959685
0.1852759,5.161041589084961,2.921252480657809,2.1978565748072794,1.0305035966304101,8.925972996470517,1.1654204641414379,4.956532102065346,0.29728690056017
0.1857414,5.162183536156341,2.865026451303363,2.2025084739670473,1.034545707733802,10.007197996113499,1.1664229977817364,5.002463248973654,0.30606154138139946
0.1862069,5.164558977870278,2.8255360877936337,2.201955050418726,1.040015954045178,10.698047307981561,1.1746106137929684,5.051121097918028,0.3119232362337446
0.1866724,5.170690346609693,2.8083661640755286,2.1977399623912675,1.0461486806825284,11.20310209145992,1.188547610088547,5.106082929243024,0.3141623482390014
0.1871379,5.173050918937216,2.806220466042767,2.194095489697978,1.0512164805151867,11.619741548511614,1.1984797349847598,5.1607508014572545,0.31732524179253013
0.1876034,5.164772570348241,2.805489293424881,2.193558163704706,1.053753118371494,11.958206408924019,1.2018339228707895,5.208101309694381,0.32431735759478447
0.188069,5.147278837551211,2.794970452207415,2.1948121819136865,1.0546913369399245,12.217758816745164,1.202091483233102,5.251997460577241,0.33323226432213093
0.1885345,5.122129297107499,2.7703935765931127,2.1942031295655418,1.0556882353895516,12.417059697126778,1.2010421470956507,5.298411679278736,0.3408445010475164
0.189,5.083493341822785,2.7329383244314687,2.191962546238526,1.0579566009476087,12.580642972598566,1.1988733529449611,5.346114894947558,0.34643498611856155
0.1894655,5.035844550399164,2.6838274222254115,2.1913051349714983,1.0622541063877435,12.72726773141063,1.1952831196139404,5.394735020111286,0.3519667883955606
0.189931,5.013156843397965,2.6209463886638975,2.192728248363956,1.0678550083033866,12.868536113317083,1.1911570008636712,5.4504907359965555,0.3566210156679843
0.1903966,5.036371062365971,2.541646317987691,2.194759967428674,1.0731318623760466,13.008414409087843,1.1884150408883771,5.5228171216921105,0.3584228362263389
0.1908621,5.075735448680821,2.4493790978012067,2.196690928246868,1.0763338384811645,13.14333096918919,1.1865495544633282,5.616493489346478,0.3585480525696815
0.1913276,5.0925733669044675,2.3557551058865025,2.1985226610142505,1.0756496696519733,13.266629651228273,1.1837603615032128,5.7240570160698665,0.35858744204238
0.1917931,5.083523150713826,2.2741754940532313,2.199838921029347,1.0703620140591308,13.372389673248147,1.1814389123486897,5.824662317066974,0.3589956938086119
0.1922586,5.069818483720327,2.2118452246514235,2.2018189470301612,1.0617297093862677,13.454946742265975,1.1779008164851499,5.892234986916615,0.36086269682011846
0.1927241,5.068275732001312,2.1676179669974305,2.211698551383253,1.052443219183493,13.512964284959816,1.1683520995524597,5.912362701191947,0.366811790703867
0.1931897,5.080325909093971,2.13630220001646,2.244837138769772,1.045815320159618,13.557840893658035,1.1581091242161479,5.893579864453148,0.3767277893485418
0.1936552,5.095681775197395,2.114064906997871,2.3156215166657215,1.0446414350842335,13.61510987943631,1.1551196188641575,5.861727143276235,0.386149912524438
0.1941207,5.09864774890943,2.0999892028211846,2.4194184976774187,1.0499735335539873,13.721669859165328,1.1577863876323746,5.841763148161791,0.3918850022149481
0.1945862,5.076412190657139,2.0937391420181726,2.5352500646962186,1.0607638995429804,13.902316761341643,1.161451826922972,5.8413578998739935,0.3933279402230946
0.1950517,5.024183068233274,2.093366033049803,2.649027101511182,1.0748460254532899,14.13074245840976,1.1592599218875463,5.852888482561162,0.39203481491068004
0.1955172,4.940639665854957,2.096062701485475,2.761657863175047,1.0907259784271217,14.348759367108265,1.155992640568034,5.86776909105687,0.3906385382148193
0.1959828,4.825619194523189,2.0995802966331443,2.8786759685673355,1.1080314206277746,14.521341966878351,1.1785147819282082,5.8826667546818445,0.39014591713138214
0.1964483,4.691042838350893,2.1026937948322257,3.0016943604237936,1.1258572160993132,14.644499555632324,1.1938080280025063,5.899246707164193,0.3904177983490067
0.1969138,4.567602886350208,2.1052762006498518,3.129352759716369,1.1410182384731862,14.721129365466737,1.137636879389532,5.934028856894547,0.3914611542777477
0.1973793,4.49543644486853,2.1077045772098617,3.2618956286063727,1.1498024209955144,14.752021648220056,1.0594502139882132,6.0059685133670735,0.3938977600878331
0.1978448,4.507134690495841,2.1098403345933123,3.4004262059798758,1.1521367469190695,14.750157349115254,1.0341321976755444,6.097279280579684,0.3980115169807088
0.1983103,4.608638768555037,2.1108917318611025,3.5433028778499063,1.151657209982218,14.755515083436793,1.0386418747447888,6.184914701373622,0.4028399845274086
0.1987759,4.7815817030690235,2.1102619173144306,3.688208252457257,1.1519418443926903,14.819425844836925,1.0445771904109205,6.3123146637737575,0.40696962264975095
0.1992414,5.007816607362293,2.1082835638006694,3.8345031763104234,1.1539421414151216,14.969247544211195,1.0432895635900048,6.573731935332361,0.40965903992301383
0.1997069,5.278542425942266,2.105919209476951,3.983493443281744,1.1568287144504772,15.20935332583938,1.0342769880160125,7.028826562285362,0.410973152257633
0.2001724,5.583457200150975,2.103817652672208,4.138905166801627,1.1602500062646912,15.562830980550565,1.0293170909833294,7.65396731879803,0.4112315242762192
0.2006379,5.913400816378193,2.101959360710339,4.305261731989851,1.1652510524884396,16.095420544662304,1.032111722433208,8.395031558250041,0.41087373312816544
0.2011034,6.279655938076953,2.100156422552059,4.485986158026186,1.1731290332105748,16.88798531322198,1.0395684466225072,9.255315760187456,0.41063944116757806
0.201569,6.693501835499925,2.0984168746184038,4.682557321169298,1.183910505628455,17.984815442117306,1.0520643913775696,10.314175805825553,0.41102187862404865
0.2020345,7.092079813570093,2.0967242612418193,4.895620837450999,1.1961780212769415,19.404250386423044,1.0725118886409968,11.626699179801772,0.4117672971622791
0.2025,7.356463118803306,2.0949397464532487,5.125318711801931,1.2079851346025925,21.200038865507313,1.1020247627760802,13.098461710681745,0.41238721896747244
0.2029655,7.478803469130835,2.0929335830888722,5.369135908946052,1.2195063467594514,23.418273744704155,1.1376858049307101,14.544465908506737,0.4129649350250653
0.203431,7.555367789767146,2.0905674238681815,5.622490516817573,1.239457023659227,25.932266895575783,1.1749091159956477,15.84513100655377,0.4143751283029886
0.2038966,7.637563897942368,2.087587060675593,5.88206018385882,1.288651833152902,28.406755777705182,1.2115382531639993,16.978413333630858,0.41717516876271077
0.2043621,7.64256070253531,2.083771879633033,6.147555610472562,1.3759612520372535,30.52730521540809,1.2466140604630869,17.95115109611254,0.42086705923597295
0.2048276,7.869797411289578,2.0792023900268446,6.419324338408537,1.480480254814922,32.202268241714926,1.2767302882048355,18.75253286548655,0.42485506518403465
0.2052931,9.555760871293275,2.074249906452735,6.693291639907298,1.5790919770338303,33.51115008373722,1.2987505312038663,19.369690809309624,0.4289758023749112
0.2057586,12.310040700610413,2.0693055484297154,6.95603569168978,1.665498536499499,34.55197891912182,1.3134074363734785,19.8182128889408,0.43284187875638436
0.2062241,14.414948107595006,2.0644800172949274,7.186501457176106,1.7384144117559401,35.37113593386639,1.323474031172657,20.136434116677833,0.43564695423680067
0.2066897,15.419947082284164,2.059610898915832,7.3620843960002205,1.7903120710907308,35.98605533769444,1.331152765649233,20.360230755647162,0.43725771979688427
0.2071552,15.815556809933854,2.0546247636492803,7.464595910722241,1.8143001226422257,36.42457121886593,1.3370178766920375,20.513941194878083,0.4383531160094105
0.2076207,16.004528258240313,2.0498885697559026,7.49579180111126,1.8176821731811739,36.728678759098365,1.3404821112368541,20.610228577400942,0.4393325149390195
0.2080862,16.112384194970495,2.045912229628457,7.489094327384842,1.8185307025342952,36.93547112676248,1.3416729818342144,20.64636315083228,0.44028334534358793
0.2085517,16.14838588773262,2.042418942897405,7.493967235969606,1.8287190055405425,37.06738498106615,1.3417380186353511,20.63798514778873,0.4411890290136205
0.2090172,16.137807209798027,2.0383411678384173,7.549424657414891,1.8463179869990292,37.13884975943883,1.341737291791349,20.759414571162242,0.4415475518657678
0.2094828,16.1214985798327,2.033059849264364,7.677756659566236,1.8618485911679594,37.166355657323976,1.3417523929702369,21.380751238711365,0.4412179238008026
0.2099483,16.112496889650643,2.0268393369944726,7.895927650155654,1.868630460118943,37.17028591590654,1.3420120776755995,22.60760875560348,0.4415903871801438
0.2104138,16.108696059086487,2.0201053063688628,8.222460914441761,1.869126794324453,37.16957961953087,1.344714582949543,24.022260957760214,0.4428447037581584
0.2108793,16.109916260038982,2.013262999477391,8.671143836434288,1.8696413289720362,37.17900725643546,1.3521813658436392,25.234262110199175,0.4430376588744177
0.2113448,16.118410261145126,2.0074128811375007,9.237994680832566,1.869247937857858,37.21157593176917,1.364744632837981,26.213812712321527,0.4426546773857113
0.2118103,16.13406424619098,2.0040981754602063,9.890996823360124,1.8612031939820373,37.2744325459611,1.3820479299973456,27.07951996482341,0.44276519791625724
0.2122759,16.15350912938037,2.003276858837942,10.570871290467156,1.8445389427182035,37.355234362268355,1.4045660846526304,27.884842177783526,0.4423995468306385
0.2127414,16.174692820586316,2.0030912299909724,11.20988477606219,1.830067922900707,37.42744518370971,1.4336457166294927,28.596399759552337,0.4420571996214333
0.2132069,16.19990497153467,2.0022962258826213,11.762235223123673,1.8321877160226305,37.480557321750226,1.471436725186086,29.177087051257196,0.4421286746571141
0.2136724,16.23225169501926,2.0010580130761366,12.220559414442917,1.8508628155709754,37.52942186405146,1.5195343468798153,29.63402067307096,0.4416790603198956
0.2141379,16.26646768802572,2.000294412985236,12.604235053055671,1.8724565451945543,37.60356790404258,1.576281458379708,29.99687313083786,0.44098627050505773
0.2146034,16.289629517459236,2.0005305888000224,12.935550527594476,1.890170009550574,37.740052922086086,1.636978856753089,30.29022052682943,0.4405075972877555
0.215069,16.297146356038223,2.0011407268084835,13.225714760815501,1.9070015874255937,37.96896055738168,1.698225158865543,30.530555938350233,0.43978663493558795
0.2155345,16.297479123070858,2.0005259630432666,13.476927730589306,1.9237503279889772,38.31298957770566,1.7605405172212343,30.732649341291342,0.4378828810490229
0.216,16.2979790709653,1.9945550299243258,13.691323882168804,1.937316008796606,38.81349505492646,1.8255308529459982,30.910994831404775,0.43485216216434963
0.2164655,16.29885026951984,1.979914509016676,13.87407386288993,1.9455278186504985,39.540721121326825,1.8915373537078866,31.0768963487701,0.43194450952220387
0.216931,16.29943135308703,1.9599599555623757,14.029838838914035,1.948119208355786,40.551502276803966,1.9539577339458856,31.235109835437214,0.4295625569129182
0.2173966,16.299021155481775,1.938945072989509,14.16043877269473,1.946311247734706,41.819304071430594,2.0098266380140473,31.38367728040424,0.4272871323064201
0.2178621,16.295982391839686,1.91543819335895,14.266399612979944,1.9430462558279242,43.22164335600623,2.0593883381937985,31.51793446020102,0.42496295904902753
0.2183276,16.29114095231803,1.8861916981220492,14.349083500692142,1.9412499250494832,44.61501066048278,2.1032724771756692,31.63379493906141,0.4229315952125125
0.2187931,16.287611236956185,1.854463254950383,14.411029455049414,1.9416637338954787,45.9136163868106,2.1407867865532757,31.726529470893546,0.42175732503203056
0.2192586,16.288029549057605,1.8310083573961147,14.455356160011453,1.9431708194635282,47.09851762998329,2.1715931803831174,31.78975867168687,0.42153866763600556
0.2197241,16.293584441900812,1.8220626390342893,14.485351523107443,1.9443401818753876,48.17499691085827,2.196978209494294,31.820989362213,0.4216310865284595
0.2201897,16.30305668490826,1.8217452964819587,14.503855601412818,1.9439528129683394,49.132718150384505,2.21815472110612,31.82843084946192,0.42157845798383353
0.2206552,16.31211786363349,1.8180226952997618,14.512882855616708,1.9399918296056238,49.942463361024046,2.234572508171577,31.82770346933529,0.4214291887706346
0.2211207,16.31620077164904,1.7994669184835068,14.514936379711486,1.9310846174535046,50.58506513980727,2.244906690580233,31.831436065321178,0.42129199740887147
0.2215862,16.316227165973633,1.7570289234854375,14.514583820413387,1.9216533176590846,51.07434052433495,2.2493734208067573,31.84514468669541,0.4212848541473475
0.2220517,16.320307647816417,1.6858106865226499,14.516612680867974,1.9184054206337935,51.445281700257276,2.250140400892417,31.870930312977652,0.4212863571867932
0.2225172,16.335553333443446,1.5882332413798002,14.522903396794156,1.9211126367079956,51.72480285050639,2.24941867903926,31.91233744627113,0.4211044382483081
0.2229828,16.3590312572455,1.4739499970687553,14.533473226190278,1.9254700476646407,51.920970882004326,2.2481416048769858,31.97566064687596,0.4214184388363262
0.2234483,16.382079665871608,1.3545902084144608,14.549382073054495,1.9291777552606262,52.04054171495747,2.247049151290921,32.064312438499314,0.42410856757887083
0.2239138,16.399619731960737,1.2370518990980746,14.572829894218595,1.9315583493231356,52.104889715653634,2.247431637987722,32.17377676302534,0.43009229563769436
0.2243793,16.410482115122583,1.1217264174310997,14.605427577094588,1.9326411391264051,52.139779544842014,2.249363898104582,32.29435660970254,0.4370798447522799
0.2248448,16.41517169385266,1.0087825384740214,14.648068649185586,1.9329939372544007,52.16050838534233,2.2512031904157666,32.41750274783692,0.44182401165922247
0.2253103,16.417590740945183,0.9065281618442065,14.702477841127159,1.9332723184926657,52.1714881370846,2.2518657794737287,32.53915494855178,0.44318186039110546
0.2257759,16.422380124235215,0.8305325702888148,14.77038043548404,1.9336033405084916,52.17417487525021,2.251855541526919,32.65806223092567,0.44261188555614883
0.2262414,16.42837708500075,0.7886484679944208,14.849152549923664,1.9325346298056723,52.17223204629875,2.2529311027880623,32.77307181602424,0.4424022654034123
0.2267069,16.431831559427597,0.771629791723603,14.930255793056336,1.9278397248932981,52.16988764748821,2.258396217025185,32.8813164511726,0.44360259387511114
0.2271724,16.432187832327763,0.7652580327286095,15.004668975345473,1.9195881593646387,52.17118887029662,2.2713967011518696,32.977652689304165,0.44616351685317307
0.2276379,16.429758000172956,0.7616786053682192,15.068461766088593,1.910604371091825,52.18230352328403,2.2905123129457268,33.05644677077302,0.44957035744146956
0.2281034,16.424776016754052,0.7579898604955686,15.122924832158654,1.9037009012962707,52.20997183169246,2.3093588241129126,33.114186786944344,0.45274515205247673
0.228569,16.419740752455596,0.7539889046087886,15.171791927532807,1.8999349093967586,52.25457378403752,2.323170531159649,33.15207015476559,0.45515148316366794
0.2290345,16.417350228651834,0.7515005030421039,15.218645768986974,1.8988143770139334,52.308633376311995,2.332278735786642,33.17743250218287,0.4573154546877399
0.2295,16.41612332710784,0.7511772358629568,15.26587573481738,1.8990506955285271,52.365354291372604,2.3388012224033545,33.19826158860387,0.45937338368713665
0.2299655,16.412657887437167,0.7518289732547025,15.314374385746044,1.8995598345562927,52.424801961856716,2.344415101202246,33.2162546059484,0.46028250762192013
0.230431,16.40664609501198,0.7529203820999854,15.36381914394856,1.900065502549098,52.468986903555745,2.3511308373831694,33.229112103557675,0.4599497432096925
0.2308966,16.40165370577494,0.7542864542382574,15.414519533295481,1.9007343374310857,52.429789027796794,2.3612902670198186,33.236032778981745,0.46165140675878497
0.2313621,16.403043422456697,0.7557288657651035,15.468192355858854,1.9017373267400546,52.27017684287153,2.3757432035718575,33.23835570679096,0.4652035951843012
0.2318276,16.41463003846728,0.7576282422711333,15.526213880365692,1.9028357817114367,52.06949470410941,2.393156644343198,33.23737865104029,0.46583826293593017
0.2322931,16.435863434510956,0.760401969199276,15.587860684327278,1.9033475264962483,51.9233677093283,2.41136713655261,33.23329877388698,0.463961058732605
0.2327586,16.459202806007166,0.7640197230703343,15.650536004835864,1.9028956592664483,51.84874111016129,2.4289078775555377,33.2259593014446,0.46422931067441897
0.2332241,16.475776123649016,0.7679430171154746,15.711435689842048,1.9018743550242856,51.819915753972786,2.445616044402734,33.21593900472322,0.4684554668638865
0.2336897,16.485235295324582,0.7711918311989651,15.768663429527932,1.901172574000893,51.81458594359345,2.462564694229139,33.205018254673824,0.4730684373318932
0.2341552,16.49198469781881,0.7727411745877885,15.820597516924694,1.9012745254554184,51.823944830905546,2.4814253228611576,33.1952545771358,0.473792242512306
0.2346207,16.498298185451425,0.7723054660217024,15.86529063224166,1.901735543084216,51.84722610940795,2.502923266198614,33.187494660140665,0.47023678640436006
0.2350862,16.50482672282127,0.7711988038726867,15.901642765167265,1.9018295663952907,51.88693102579267,2.5258359526520864,33.18137943765795,0.46379329124270685
0.2355517,16.513967986697654,0.7717257256203629,15.930622403599074,1.9008899741403802,51.94812009506319,2.5481930396724577,33.17654472587796,0.4553957955426939
0.2360172,16.526348064790447,0.774685022751974,15.955262119303182,1.8985550961356905,52.037250008958544,2.5688367216889647,33.17310319621487,0.44688897860029203
0.2364828,16.533568489641066,0.7787694759203404,15.979147038067829,1.8953843442752871,52.16246638227845,2.5872506621255464,33.17096857872026,0.44142165852665205
0.2369483,16.527227881257687,0.7819434635906062,16.003631239333693,1.8924030179590343,52.33797283329653,2.603034348917198,33.168903732192675,0.44005459844565264
0.2374138,16.51112321190295,0.7816217521083844,16.02630686222245,1.8903333835553051,52.58506741160873,2.616876042126747,33.16512820684762,0.4408308555009028
0.2378793,16.49686231161038,0.7764302608568643,16.043569737007893,1.8893401856591177,52.92163592160818,2.630190988476455,33.15994614188577,0.44192754566553544
0.2383448,16.491495833560865,0.768428958539682,16.054461108347766,1.88909381493001,53.35004347914721,2.6419998353171943,33.156744461142104,0.4422489188798438
0.2388103,16.493326811157512,0.7606795490397047,16.060361688178606,1.8891429933219597,53.86182421730772,2.6500958486590513,33.16007635360194,0.44042353690096175
0.2392759,16.49833651485221,0.7537467022717825,16.06211519423257,1.8889936015490814,54.449059947251186,2.6538605788611895,33.17279489127189,0.4354123070091579
0.2397414,16.50386966081349,0.746048032652781,16.058727102162536,1.887923146843514,55.09676180851625,2.654188632080196,33.192915837318935,0.42870890880553364
0.2402069,16.507337900987846,0.7363696291358816,16.048789108479085,1.8851443818423341,55.764758160129134,2.653146597349744,33.21352605883969,0.4239745213650955
0.2406724,16.50693221830671,0.7252018411647067,16.03306769686383,1.8802269349294076,56.391984141637984,2.651513182061521,33.227971734570175,0.42323327658951276
0.2411379,16.505093329090645,0.7136003270854144,16.014566000068882,1.8733847029794142,56.930242836732056,2.648480195355936,33.2346531942389,0.42568439881130077
0.2416034,16.506192656811155,0.7019428954421094,15.995862264321167,1.8653510743115826,57.36929497000447,2.6431266569154372,33.23607575973392,0.4296598287092948
0.242069,16.509845530901448,0.6905053631831211,15.977607649612805,1.856633625870725,57.7217560328378,2.6351324687798723,33.234847239329476,0.433757218560389
0.2425345,16.51210864042326,0.6800188272782757,15.958813927913,1.847139785872542,57.99664058316545,2.625126058594519,33.232116638706785,0.43672087151893246
0.243,16.509916534740032,0.6705166940909542,15.938126901796013,1.8372508403708272,58.197736400103636,2.6139964392791972,33.2290694470122,0.4378016668650113
0.2434655,16.500481412252547,0.6609639430164829,15.915216025601065,1.829073876054809,58.33452990525095,2.603408600627971,33.22810986176067,0.4371155043132598
0.243931,16.479182820964606,0.6508207715938373,15.890449730340872,1.8251406913096735,58.42271115332084,2.596203346154551,33.2319037996562,0.4351115712902468
0.2443966,16.442015886083812,0.6408828986896123,15.86409170095086,1.8254863348804642,58.475046627770496,2.5937358301459037,33.24224667337353,0.4322615164585102
0.2448621,16.39164090609553,0.6327899496871094,15.836136177174293,1.827623630354443,58.49520990238991,2.5941041307661745,33.2592875835292,0.42933151791542284
0.2453276,16.334888682594915,0.6273200735531835,15.80660472960874,1.8292171209227353,58.48253064358748,2.5941915551778827,33.27826523700615,0.42700582438980095
0.2457931,16.27209666630563,0.6235701666364767,15.775760192884402,1.8295994850394424,58.44163150965059,2.5922423760081417,33.28692846288105,0.4254131391755826
0.2462586,16.19690877642089,0.6202707255523127,15.743790943000405,1.8290546205298013,58.38169324650997,2.588682600233685,33.2717778839062,0.4244933799796746
0.2467241,16.105882056582736,0.6169385399378379,15.71011387361131,1.8276600030988335,58.304555400720545,2.5849849622552314,33.22803709459909,0.4241950518172231
0.2471897,15.998336798676307,0.6139452286052003,15.672863147286515,1.824980601835598,58.196659592891564,2.5817477650823504,33.15242232581941,0.42436564174140834
0.2476552,15.866299426837264,0.6116711703251114,15.629604988370405,1.82028297844864,58.03391797436252,2.5780687521543855,33.02222138081726,0.4246561036298872
0.2481207,15.701128405749158,0.6100098940558722,15.578654506253208,1.8132230428992462,57.793450094872476,2.5724081602779814,32.79203315094959,0.42462308576519603
0.2485862,15.528370184558895,0.6084742612756234,15.519518090300647,1.8044944857787109,57.44977216770042,2.563416395402803,32.42358839261954,0.4242392633551414
0.2490517,15.409527086525157,0.6062710707672023,15.452383000379621,1.794611317915944,56.95411151646989,2.5507490486788886,31.926861127264356,0.42379146702171766
0.2495172,15.360563660425866,0.6029820479876498,15.377891835552154,1.7811910332948149,56.244146531230555,2.5357608000882896,31.35809964526833,0.4231567208707419
0.2499828,15.338885308682878,0.5993501098752883,15.297522850687157,1.756532614395287,55.316912141592766,2.520766600504607,30.770650451294784,0.4216909782599407
0.2504483,15.31606489885846,0.5967834659827553,15.212874225622627,1.7083603547592425,54.291955578362284,2.5075455726337283,30.189016372101936,0.41905742300114524
0.2509138,15.333426828353621,0.5959706498957694,15.123151639700074,1.6303401149241534,53.3445047710065,2.4974474629885215,29.631614638428427,0.41556976103714477
0.2513793,15.243154542983564,0.5966112291194479,15.024460402328643,1.5318896216004148,52.57285512795884,2.4922111486548557,29.132192454440137,0.41155043960550974
0.2518448,14.278020765086513,0.5982848992339169,14.914672862477774,1.4275716422446005,51.97270320399955,2.4928274839259545,28.7246297794103,0.40686458716452684
0.2523103,12.020436167557396,0.6006211605533397,14.799254984595969,1.3227961726145858,51.50761165312311,2.4981788485299226,28.41684636286763,0.4012334728420908
0.2527759,9.430788817809606,0.6032364800799536,14.691547211356456,1.220616655860488,51.15954771356376,2.5067277878401124,28.192693958936815,0.39555814415896723
0.2532414,7.706442287527119,0.6059569100759101,14.607952618507797,1.1374967065464778,50.9245403427546,2.518804067425338,28.032876843736993,0.39137339743749494
0.2537069,6.856346128679161,0.6082801518336955,14.560108243109934,1.0950437269170026,50.79160555049451,2.5347514669217106,27.925747984522342,0.38906208189856156
0.2541724,6.3620837220538,0.6082881662376792,14.546505202352245,1.08811461286989,50.73991244914109,2.5495006944399563,27.866084436729565,0.3879372473659966
0.2546379,6.016394972843735,0.6035324841331567,14.550229465191302,1.086506830075569,50.748814904643744,2.5552472217910434,27.854181962702373,0.3870160254396307
0.2551034,5.846636243819055,0.5943201199120633,14.547648248217444,1.0692904757907047,50.80282407006143,2.554927620941051,27.8752545719825,0.3859444555939027
0.255569,5.816702450673707,0.5839867233805351,14.519773900421495,1.0385479947846386,50.88876253039576,2.5590440155082756,27.80063095778437,0.3857241936082049
0.2560345,5.829147060735189,0.5750211923107316,14.45400175407878,1.0102998365900187,50.99194842568543,2.5683554661655235,27.34426828387691,0.38651822480047615
0.2565,5.852739604671938,0.5672732231017104,14.337906550832184,0.9975974654087635,51.09685431635511,2.5758732503153463,26.35957411096026,0.38631866204436405
0.2569655,5.88497510763719,0.5595825900222849,14.155045581919367,0.9966975325885044,51.19094713707886,2.5777917582339644,25.09684751683279,0.38493649942499336
0.257431,5.90945649894594,0.5507411782446769,13.886887202122066,0.9956434389050766,51.26536370414826,2.574440310852484,23.89893850363025,0.3842628197229405
0.2578966,5.907269210466903,0.5391634119185443,13.519262953774302,0.9935591728924544,51.31172402401142,2.567549838688753,22.854988960385306,0.3843095401734517
0.2583621,5.874880759793383,0.5242977705382129,13.052313904696788,0.9935947083140957,51.32446389362252,2.558537312044101,21.88811019250964,0.3843783681510791
0.2588276,5.821302300019812,0.509390009910589,12.510824865720762,0.9871734031604646,51.311329055368184,2.54709810058272,20.95262478609526,0.38452346115479275
0.2592931,5.753160281953662,0.49921578793047666,11.943049838905466,0.9643827848007112,51.290986665195234,2.53134382723473,20.081481419608043,0.3846789803919883
0.2597586,5.671790841933236,0.49446146663252233,11.399263605930999,0.926603234557078,51.272317547330694,2.509462039587878,19.324699422670445,0.3850001588364861
0.2602241,5.583043783350288,0.4927948552161761,10.905616209745531,0.8814193505225016,51.2476861048461,2.480400530905751,18.69949187810921,0.3861660240855238
0.2606897,5.504195516183509,0.4924863270707896,10.459520619000177,0.8340030516500471,51.199342873304566,2.444623162560105,18.19606078025548,0.3880503254388299
0.2611552,5.455998393578652,0.49250660471232427,10.047421081377477,0.7852787564268616,51.10271197906228,2.4045027514027812,17.795220990121532,0.3893354726750824
0.2616207,5.443789542749551,0.49208461316159535,9.662928794241724,0.7356355737482532,50.93545645533864,2.3621052582147297,17.469059672914383,0.38957709399787754
0.2620862,5.448904400951351,0.49140178371905535,9.309246905034433,0.6886122030977067,50.67856733340409,2.317005854780146,17.18629823902215,0.3894860795919274
0.2625517,5.4499018669607,0.49141207991109,8.989626598562879,0.6494856454536115,50.297727170823784,2.2674674711974427,16.92560263045063,0.3895012387750756
0.2630172,5.4451761022584,0.49226722664711464,8.702143575556319,0.6201313418068194,49.734318221702075,2.2137875476104627,16.677686016053084,0.389576321101688
0.2634828,5.444559577571011,0.493153016513447,8.444698328466412,0.5979637304115129,48.94210959685392,2.1594782847041247,16.44051169690605,0.3895705437036494
0.2639483,5.453617727248194,0.4937156927571328,8.219808384008408,0.5797846333032276,47.93196182333261,2.108136875896424,16.215018265327412,0.389555946229479
0.2644138,5.465761631565312,0.49422978852115446,8.03181644963825,0.5647763232495033,46.766044645767465,2.0607511505734575,16.005562120833197,0.3895693361535371
0.2648793,5.469865723981966,0.4947301558507126,7.882004616596529,0.5535607655758927,45.526305755025675,2.016661396670019,15.82422858145766,0.3895709746362825
0.2653448,5.4656234922806,0.4949381280473499,7.768005337731291,0.5451048610180192,44.28103953940348,1.9759995700122786,15.690777923871998,0.38954361208814176
0.2658103,5.458722050346325,0.49488049236630915,7.685395373332411,0.5379413753593191,43.06210594865804,1.941060524110537,15.62187855635136,0.3892742392223761
0.2662759,5.4502483023315085,0.4948944691576134,7.62872653829848,0.5330223666701958,41.880753395168796,1.9136693855033273,15.610445623851074,0.38908129334359165
0.2667414,5.438842772004222,0.4949563400087071,7.593288968177533,0.5316585037431149,40.76541320467218,1.8927123905403636,15.624864870620675,0.3908980680891694
0.2672069,5.426658668385655,0.4948775569462427,7.57595725502421,0.5321532262427237,39.77252144963022,1.8776333387684054,15.635481922384578,0.39587312007039405
0.2676724,5.420022108631204,0.49456835091947265,7.572362733964841,0.5302465307722652,38.951933769745224,1.8706220764184478,15.628576678530157,0.4008099380824697
0.2681379,5.419951143170804,0.4943630224194058,7.574034286680637,0.5226025523644734,38.30993389823452,1.8734773652521248,15.600398971435506,0.4024651949584521
0.2686034,5.411251184706005,0.49500081136986984,7.572038175185838,0.5090672007632382,37.818266705922234,1.884458078300844,15.547614963334896,0.4024416820832124
0.269069,5.377740127133132,0.49677689965548655,7.562550674302878,0.49228371511140884,37.45227909513885,1.8978379690101788,15.460952644839917,0.40317718713845896
0.2695345,5.327248832800903,0.5000706853403353,7.545011337776929,0.47767208408822753,37.20657551827941,1.9078474159855554,15.327025088987325,0.40376647564255314
0.27,5.2785493752721,0.5051768189010915,7.517477187057321,0.47295355401125894,37.0727401985234,1.9124830792281267,15.13851009714619,0.40136905433765785
0.2704655,5.233964365204553,0.5116855055625439,7.476257758150945,0.48000473939845983,37.02071364020879,1.9125433296358245,14.902545035524609,0.3949867907476787
0.270931,5.187183300820331,0.518900912050952,7.417990724666611,0.49055460743163676,37.01558286850858,1.910165441469016,14.636203597404688,0.38709785698633287
0.2713966,5.141644231320827,0.5256571795842818,7.338986137305691,0.4975622900775651,37.037179457508564,1.9081600281322748,14.356229088448883,0.3804562578379989
0.2718621,5.105089542177497,0.5310827567193677,7.232831486157172,0.5021965350108104,37.07846670739202,1.9083401917969005,14.074807270578718,0.3756296081219286
0.2723276,5.078753490784224,0.5349948526523657,7.093765560515621,0.5076207610118437,37.13541267485066,1.910138433468727,13.799286138517793,0.37223904781962475
0.2727931,5.059590359020031,0.5375568851496377,6.925913611830868,0.5147849214567333,37.202179094381925,1.9105018570484138,13.53232428822343,0.3699477196148042
0.2732586,5.045023544743574,0.539379077457543,6.746452101259106,0.5214324740118287,37.27364137913986,1.9048465061102988,13.276750712200752,0.36802959848476313
0.2737241,5.035343479500844,0.5409962209980994,6.574904254436912,0.5237673496609861,37.34485305034309,1.889635838669315,13.042582456897629,0.36517137984730064
0.2741897,5.0326464294083095,0.5426608127844849,6.421191656435986,0.5231310282741519,37.40695112856923,1.8668279268783794,12.843944487268189,0.36087134148149724
0.2746552,5.033724349696503,0.544798434173768,6.285068106381051,0.5237922609663809,37.44966132202336,1.8449619487797535,12.689633556083077,0.35682072101462486
0.2751207,5.028293512787377,0.5473865400940393,6.161112413480422,0.5262890596107479,37.47058946700227,1.8307288510184194,12.581572573083733,0.3545304483256695
0.2755862,5.011434898569706,0.5496849201660498,6.041848200534719,0.5300780442941299,37.477949534092126,1.8214252201511332,12.517347588874147,0.3529561921489996
0.2760517,4.99327126821232,0.5512590461045406,5.920153527216365,0.5379356742469987,37.48086617205599,1.8107397398930778,12.48943291761977,0.35092981155423536
0.2765172,4.986751200223541,0.5521762171749597,5.792012040754421,0.5540517182686469,37.481171461905724,1.795769212763348,12.484460010099426,0.3500812730340642
0.2769828,4.994483435352552,0.5526390104802436,5.6563373882458965,0.5778738429142652,37.476494175284394,1.775913775229078,12.487644417046537,0.351650609365613
0.2774483,5.0079784107511145,0.5526413519621977,5.511049418751333,0.6020264607374616,37.466781068534104,1.7527625288976234,12.49076497525553,0.35178767337817574
0.2779138,5.008402150917069,0.5517491237044366,5.351012710198195,0.6182816619192336,37.45384258650727,1.7285517343995833,12.493123604559665,0.3485633282087681
0.2783793,4.975822391529524,0.5495955508226292,5.171753638525251,0.6240804613361518,37.43556494358611,1.7018212054937005,12.49501890275363,0.3447624020826499
0.2788448,4.9062694938725695,0.5460963640210243,4.974925177919134,0.6219530398089441,37.40418720674425,1.670986402040907,12.49495899980154,0.34097713003766855
0.2793103,4.819653941608834,0.5414755702114735,4.768335886347571,0.6154854881850852,37.35083849500512,1.6375293381537073,12.493674995093828,0.3352621387852139
0.2797759,4.743537411690966,0.5366775033264939,4.560145496752623,0.6080581527604392,37.27339052872819,1.6029502661879413,12.4934701653279,0.32655361648220993
0.2802414,4.688420912228376,0.5329382607337938,4.355446452754245,0.6017778316289498,37.180554521156125,1.5673393811977063,12.494074513481895,0.3169618275830492
0.2807069,4.647824293403392,0.5302059182280272,4.159807245626823,0.5967482142916299,37.08427205930496,1.5305965526947112,12.497180495197806,0.3081552532962678
0.2811724,4.613546119320821,0.526881376346508,3.9829303266752674,0.592973207096159,36.987841488631766,1.4926810508434525,12.505786471456867,0.3011460095013512
0.2816379,4.579233023614372,0.5224474624984498,3.8337954257160995,0.5906190864976761,36.88294189414928,1.453556561013644,12.518098434367772,0.2989223531652639
0.2821034,4.538653376077723,0.5178284759192248,3.7115816177098693,0.5896569615716046,36.75495638373537,1.414675275507247,12.529496540642704,0.3018103352363639
0.282569,4.493311982366939,0.5122697819506097,3.6045181668234823,0.5894659057981406,36.58877324213008,1.3781098270015824,12.53636564373814,0.3066528385133385
0.2830345,4.452785941025747,0.5048386888625594,3.4981800690270655,0.5894438624447494,36.36886942953945,1.3452187003916694,12.536712974521993,0.3111300660406602
0.2835,4.426264736524455,0.4964223148636035,3.387223389565777,0.5894533566193788,36.07284454524021,1.3152239190313655,12.530788356710824,0.3142755526723631
0.2839655,4.422173073348197,0.48814272698185407,3.282812157973506,0.5896419829710284,35.66881519490767,1.2867835852879266,12.520266229051948,0.31516729473577915
0.284431,4.4350056634369,0.4807267547416801,3.202469278180369,0.5917636006838957,35.12752436451912,1.2593408490364078,12.504147413916778,0.31396567336935677
0.2848966,4.444714346781461,0.47357329884462,3.151261990945134,0.5966303576521681,34.438247173627204,1.2331364785258332,12.477611945638847,0.31284869347606337
0.2853621,4.4391356477613435,0.46606140310234473,3.1218999578215203,0.6018363726079958,33.6035804608194,1.2163602237409805,12.435313163417645,0.31330158530829944
0.2858276,4.416122919893208,0.45878714172485313,3.106889936346203,0.6054037443673258,32.62194357583017,1.218729393184848,12.376451821670777,0.3138375785823904
0.2862931,4.380974765329583,0.4527564519351695,3.1018801185260116,0.6075761484111057,31.496750251932525,1.2345522946343936,12.311063276756759,0.3119575040190008
0.2867586,4.348569614867571,0.4487559500012842,3.102523369391929,0.6088998405114932,30.270547759592404,1.2517012295118068,12.256848302772331,0.30723936869809115
0.2872241,4.334897647444703,0.4467364010831757,3.1047228995871,0.6091992191195771,29.03041413894014,1.2674703171922075,12.225024859081628,0.3012603772271453
0.2876897,4.33675732360161,0.4461201055831328,3.1065743604621114,0.6084078466082758,27.864096999494365,1.2828869309975648,12.214442084372495,0.2951162592469046
0.2881552,4.3333084182525825,0.4461430839499403,3.1066221549946897,0.6072339014362359,26.823087384341278,1.2941810759862002,12.216876079768044,0.2888927152983531
0.2886207,4.316114486121805,0.4461221320543178,3.1025453503965985,0.6063052388777574,25.93202342568911,1.2963057186142228,12.222387497383943,0.2829735247176627
0.2890862,4.296500329898236,0.44554535502774684,3.0949959024621503,0.6054088598475388,25.21026856403546,1.2925824918375735,12.225284292142197,0.27904608450884344
0.2895517,4.28835553869607,0.445147020468983,3.0880540890787356,0.6026856645875928,24.66908569222878,1.2898130551241667,12.223101732843174,0.2778884138853357
0.2900172,4.297225648214875,0.4462304959983784,3.083039039013654,0.5987332363729867,24.29814280948109,1.2850968228872743,12.206940765224516,0.27789544322300463
0.2904828,4.318806966578569,0.4481038422197359,3.077476863676802,0.5973780474457447,24.067865337173952,1.2756189025468736,12.161305535245685,0.277633802981387
0.2909483,4.340908119944973,0.4493227373753757,3.068957055818735,0.5979927067957557,23.943275892594894,1.2653442353239008,12.072868764795823,0.2766022397857109
0.2914138,4.348221367716135,0.4497274248537791,3.057987532558336,0.5982785876169734,23.892235101355798,1.255258834950351,11.933990321490509,0.27461473606754644
0.2918793,4.332808949558033,0.4496782425669276,3.0462786200180347,0.5990093468570526,23.885416472875416,1.2472817589327827,11.742650608687361,0.272398193892656
0.2923448,4.3049726087079065,0.44939742415776124,3.033026079771739,0.6008927073034692,23.89490454913664,1.244880260184606,11.503885565763914,0.27135757617746603
0.2928103,4.28334822775562,0.44875758350939615,3.01448805586491,0.6018372831923106,23.895166956682232,1.245448640187386,11.22812041200346,0.27171993906193653
0.2932759,4.271663568321235,0.4478682351734161,2.9862708186788387,0.6006526954588416,23.865153704390718,1.245354402958276,10.925709583560552,0.2719428549549842
0.2937414,4.259056636356482,0.4479515561938312,2.9466549851352895,0.5990941906674223,23.789163658014687,1.2444593227036704,10.606301101517921,0.2721104619791589
0.2942069,4.241697891499535,0.44920619482500324,2.897872125180043,0.5980585775184574,23.65663006182898,1.2437712974759167,10.283829776464145,0.2739741506816008
0.2946724,4.226060572469182,0.45023575657011744,2.843040992589065,0.5975553605181227,23.4624474685374,1.2436233337033042,9.975137466489088,0.2758088073762045
0.2951379,4.212749019565223,0.4506184527930546,2.7832337326118264,0.5976627165460288,23.20658369759817,1.2439745033773002,9.690504618639025,0.27599570316854805
0.2956034,4.194335092417114,0.4509869941980128,2.719510925175384,0.5982734749905613,22.892009440646625,1.2450258550593252,9.434248140419987,0.27564171456155767
0.296069,4.159713261587021,0.4521189138985301,2.65186332444781,0.5990503370007211,22.523398826401724,1.2459928159732534,9.21929715516185,0.27665998512986
0.2965345,4.100657791103022,0.4542043721414294,2.5743752980099224,0.5992646900772145,22.10817570990392,1.2450183772459262,9.068893700315973,0.28126223296338104
0.297,4.021191249053905,0.4562469664981005,2.479606399812567,0.5989050953527384,21.657477654146536,1.2412020352038673,8.992998113253819,0.28733839210984286
0.2974655,3.926967783509273,0.4574431245804752,2.3711368031305398,0.6001643977612529,21.18335393585929,1.2337444769125132,8.972075459212736,0.2905295078977366
0.297931,3.814953260344579,0.45774120343791325,2.2683787391528294,0.6040252377861959,20.694344425286733,1.2201277555482524,8.97433155904558,0.2903633009256897
0.2983966,3.6904616426672594,0.4571859201387466,2.1903817111783908,0.6074950809504033,20.19565987001795,1.199001671625398,8.980198344139373,0.28844630373482244
0.2988621,3.5769919046246907,0.4555604006840461,2.1383564751611415,0.6087549696295553,19.694079861557647,1.1724462802509796,8.98576586848095,0.28634873740174743
0.2993276,3.4983448648130038,0.45225349728969194,2.1023104625792888,0.6090584992212622,19.2009186012175,1.142153897196147,8.992766647051551,0.28594181081340864
0.2997931,3.459832979639401,0.44700344971843264,2.074524135354156,0.6092648747206595,18.728209410862117,1.1055700679347902,8.998723743893883,0.2879703316291426
0.3002586,3.449647832528555,0.43988948201830513,2.052344543305754,0.6096826582258144,18.281044809613466,1.0608626060498831,8.992433678159113,0.29145238925249295
0.3007241,3.455970512042957,0.43148944433505576,2.0338935271360215,0.6108689127409331,17.8536761703276,1.022670435816518,8.961082148596777,0.29569417430802836
0.3011897,3.474603603262309,0.423465582124572,2.0147614008384283,0.6133223036582941,17.434175917332908,1.0169502205478116,8.906817325326898,0.3016236744616537
0.3016552,3.500666541240914,0.41687375599380583,1.9897469909782621,0.6183486056146068,17.016712196589342,1.033296457329922,8.846545823919353,0.3102340319007908
0.3021207,3.518271531688149,0.4110036164228892,1.95581789880946,0.6276028795756963,16.610169993878372,1.0328627921058973,8.7918791589301,0.3201973221340008
0.3025862,3.5050520707527193,0.4048343765425795,1.9127713020009596,0.6392407086799677,16.230508190733755,1.0110896814530013,8.743875628401504,0.32869833866274245
0.3030517,3.453445188052168,0.3984727958273108,1.8631846899547693,0.6482505527161244,15.887412350174204,0.9914413792192058,8.702546344780524,0.33345727894019594
0.3035172,3.376497982197367,0.39259717937929717,1.8121877213386959,0.651955458834047,15.58142619731344,0.9867737684989226,8.665199032674293,0.3341955020998589
0.3039828,3.293895108506907,0.38735686266446795,1.7646884501715583,0.6519724667563975,15.308923545753888,1.0004207139370043,8.614024028873645,0.33494608202503723
0.3044483,3.222233807157207,0.38254261910335785,1.7222364091002345,0.6541036651026715,15.0680295493403,1.0369049274937485,8.515188272353305,0.3408124742663519
0.3049138,3.170701377621848,0.3782884222296356,1.683956789888252,0.6717316734225656,14.862259550375882,1.0905204514810327,8.33345352094606,0.3509999776370203
0.3053793,3.141809007702968,0.37502949976102545,1.6492216525399037,0.720860752559306,14.699076533033196,1.138687826251039,8.0738244226105,0.36029958061328643
0.3058448,3.1237668565364674,0.37287868052071393,1.6178571341249286,0.7948425602362351,14.583277507231227,1.1654832923305074,7.808303247252281,0.36509404285450625
0.3063103,3.0904047131583434,0.3712167937694145,1.588903169451086,0.8616363980716302,14.510730783953912,1.1755182685997567,7.606896999819924,0.3655678376707118
0.3067759,3.03725757928406,0.3689335232662705,1.5608512943832702,0.8989097827434641,14.469132812724222,1.179634210695823,7.465193959986105,0.3645015522563272
0.3072414,2.9894915842149525,0.36546553709169205,1.533178446594358,0.9110699454787131,14.445130030212963,1.1841864339151413,7.334603343304639,0.3648642662654035
0.3077069,2.963617449919593,0.360882984300315,1.5079184345452086,0.9130735674374507,14.430459657116087,1.1931822159429595,7.184661658968591,0.3670386632223177
0.3081724,2.95502207360788,0.356095198907106,1.4889860109215296,0.9132356596367683,14.422867003800855,1.2073649885039899,7.024115567059037,0.36912769311405236
0.3086379,2.9549079171660395,0.35321066717151095,1.4781365295323212,0.9133918740540117,14.420420032598255,1.2222518097741175,6.869776100646805,0.37030765394570403
0.3091034,2.9586111905837384,0.3533295615437416,1.473025605610437,0.9146095156804316,14.41710218531546,1.232956946034163,6.720573405476882,0.37107534416976984
0.309569,2.9620636895690176,0.3555749989112911,1.470437363004867,0.9179706256790453,14.39650367669936,1.238461725419299,6.5761633108761,0.3717612889408518
0.3100345,2.9591122586797525,0.3588004858014192,1.469073926946236,0.9226082638246185,14.30122588690895,1.240434828072311,6.445424043497107,0.3721306819799709
0.3105,2.9494173809738173,0.36214313246204993,1.4695629474694878,0.9256533139834275,14.07314326043225,1.2409326099223648,6.330694617366034,0.37205594676976594
0.3109655,2.944905190979833,0.3643942348427799,1.472835781179279,0.9259291580423639,13.759413966945619,1.2421397775371632,6.2224904180906915,0.3727835226758161
0.311431,2.9522756085709836,0.36471034194627855,1.478601239106311,0.9261113340313765,13.469895361939304,1.246641107897142,6.10736180499033,0.3754139843500079
0.3118966,2.9588093797674095,0.3643988253310656,1.4858351264791962,0.9282612832874994,13.257695944607164,1.2526486458780135,5.972589475722742,0.3783079590744467
0.3123621,2.94983884661754,0.365033019875398,1.495472186398785,0.929932777247616,13.116694010593644,1.2536921540720907,5.81859808183052,0.37946935480380367
0.3128276,2.927448857559283,0.3655461487142024,1.5118861678341549,0.9299452737935353,13.032853591589674,1.2511822627186693,5.683339385683475,0.3794244866756788
0.3132931,2.9095216845624208,0.36542530023390923,1.5398784977621633,0.9346058942501321,12.995699603915536,1.2538832776523927,5.611214474635138,0.3774974791413029
0.3137586,2.9122912598651762,0.36577426858448275,1.5810517407470213,0.9485124741606236,12.988273478010385,1.262157751743631,5.595369983339423,0.3723514560737265
0.3142241,2.9315568010826776,0.36596149914223297,1.6310246882524744,0.9624802863748005,12.990421717896245,1.2676236674220214,5.6020699419482805,0.3678505890210668
0.3146897,2.9489194985669527,0.3655110920670085,1.6795848015618804,0.9650489731778641,12.986373902993641,1.264203791823904,5.614976262961546,0.3673076988446125
0.3151552,2.9506038569925375,0.36565915409905614,1.7162503120899244,0.9672130766136933,12.96383226292311,1.2526928545554645,5.632862015072409,0.36817428600225105
0.3156207,2.9324721264453917,0.3664619371270434,1.736937309457669,1.0048071906794425,12.914029073326153,1.2417927612337465,5.656122612588986,0.3681454161499139
0.3160862,2.8987363575930556,0.36641084665015594,1.7449501701163883,1.1049029191386772,12.83687305414044,1.2428428252870292,5.6820117734133175,0.3688001861206633
0.3165517,2.8653493412831414,0.3640516714237134,1.7450115622965396,1.254760062879372,12.73933356365167,1.254745317995832,5.706613163541891,0.3726792282511421
0.3170172,2.8590377703874346,0.3585187976788391,1.7385116401036904,1.4142116603883075,12.625651750239319,1.2640343478010183,5.72805270842199,0.37879301652953196
0.3174828,2.894766276016891,0.3501090945723725,1.7249104036250567,1.5462295236202872,12.493777782309682,1.2657732930592167,5.748026803825775,0.3841463535769861
0.3179483,2.9524758434209137,0.3407370495047018,1.7061763459660242,1.6371041376556765,12.340688684088038,1.2657429661772828,5.766713889580809,0.3879250552253121
0.3184138,2.9962131795425635,0.33239150183657296,1.6875679911623247,1.6972621362384237,12.167834063467414,1.2658284016915753,5.776027194729812,0.3907725667523349
0.3188793,3.0123918633143556,0.3260176715827029,1.6732443361899254,1.7444044944152124,11.978454348730203,1.264091923276741,5.766785587006161,0.3925899172043143
0.3193448,3.0129242486259313,0.3223282184005367,1.6639720089876824,1.787575390919693,11.76999752595797,1.2616068138464256,5.742331961429438,0.3927860065597034
0.3198103,3.015117461572158,0.32097294951863975,1.6592418252332142,1.8225141670409517,11.534318750481988,1.2615870989388076,5.715397827997437,0.39194973111669024
0.3202759,3.030718910539071,0.31986739662625097,1.6596434920214047,1.8426683807720972,11.267421245233482,1.264092524178713,5.692572230958198,0.39126304746128615
0.3207414,3.0654798552402456,0.3173881374453822,1.6670099203531286,1.851387389080281,10.976603886159474,1.265726613743303,5.668946042862529,0.3912048250118945
0.3212069,3.117817244540153,0.31329945485151584,1.6825285804714065,1.8555951773150596,10.67469539624874,1.264535181189279,5.63081348142879,0.3911750404903067
0.3216724,3.1763706259659146,0.30859690926674777,1.7047658684608038,1.8583840568292196,10.368643683027472,1.2617180448206409,5.556663107335645,0.3903921248487489
0.3221379,3.2291427958882486,0.30550539817908584,1.7297162769868177,1.858207712141241,10.057399488108967,1.2681515599236126,5.4270410769719994,0.38979272796649267
0.3226034,3.2718330476232023,0.3043863484624145,1.7531021815027878,1.8565428601266203,9.739282405165804,1.2965375939177097,5.245018672237857,0.3890685032739964
0.323069,3.3033555767178617,0.3025877329732615,1.7731145986154269,1.8754273804475887,9.41854544433289,1.3307418147965557,5.046026454930887,0.3896615571086341
0.3235345,3.320202951334065,0.29910160265967944,1.7914476819492986,1.9496480170080366,9.106005515079312,1.3443575609363099,4.875594069426745,0.3955686933800324
0.324,3.3209882336851155,0.295748227834041,1.811533693617644,2.084505433240884,8.81505069014777,1.3411651675488683,4.753137571305771,0.4024903227161257
0.3244655,3.3130380465555866,0.2936589928847709,1.834795562456492,2.236637458654991,8.556233956158195,1.341104605065922,4.670926967505242,0.4040795584231584
0.324931,3.3050730701793563,0.29253969780487665,1.8588371772370205,2.35175794527475,8.33355684231633,1.3542103573938746,4.623639644864729,0.402090022108419
0.3253966,3.299744049199936,0.29185747364089454,1.8806183376754457,2.410461492029347,8.1441881037575,1.3780039732965317,4.619294494866086,0.3999306344273841
0.3258621,3.296211089536163,0.29095053809625077,1.900050297605362,2.430188737303133,7.980879834520483,1.4008507278053177,4.656223928016411,0.39775525966393827
0.3263276,3.293453859508804,0.2889367940863172,1.9190379457442026,2.4347323968601784,7.836049565078658,1.4099290674454192,4.71006766733891,0.39462186049720815
0.3267931,3.2934842730893656,0.28530872449106925,1.9384376836892383,2.4357697729772405,7.705748232974295,1.4098717731683654,4.752528780069438,0.3914583581905653
0.3272586,3.307074423391159,0.2813855571174817,1.9566725668984768,2.4365339199906813,7.589147646171088,1.4240801699925345,4.764145133676488,0.39189480748038397
0.3277241,3.3446392202993898,0.28030966501960874,1.971507176741369,2.437775562645507,7.485651196228731,1.4594720510384116,4.742150414720089,0.3976788586417585
0.3281897,3.395738637220898,0.2817153925255968,1.9823757645268403,2.4394146407776343,7.395028771145726,1.4929177740788862,4.701379606215328,0.40486883033150833
0.3286552,3.441403192169576,0.281148923428223,1.9896247247405505,2.4411325355534625,7.318288773250541,1.503578430352811,4.6582098376095535,0.4072102392678998
0.3291207,3.4717073653635744,0.27873817153223673,1.9929694277324113,2.442987950979214,7.256438999098284,1.5028040197770196,4.6163463987071465,0.40373828100884557
0.3295862,3.4824805224631383,0.2773910082956488,1.9919408613503442,2.445378250628326,7.20733533690309,1.5224229172976886,4.56893832364954,0.4008353055625097
0.3300517,3.47870333428161,0.2768341326480589,1.9867258921615925,2.4485938894737247,7.164185150765023,1.5664962602390995,4.51294337619465,0.4023508833038171
0.3305172,3.467790706969811,0.27564731037775664,1.9784013917120449,2.452072708191161,7.1194168208042905,1.60466454782229,4.4537295212465295,0.4049072406418187
0.3309828,3.451892367041947,0.2745047754186223,1.9691793405783347,2.4541806646160222,7.070319186124559,1.6225614950298421,4.400295978411384,0.40575209441869026
0.3314483,3.4334659843436706,0.2815738053059592,1.9615495271438947,2.454393532412927,7.020838107536183,1.630476035059987,4.360547843562957,0.40571491262698056
0.3319138,3.4184644852747312,0.30603245436869647,1.9561093882017537,2.45420985300363,6.977382074517108,1.6358808258799182,4.333347206588378,0.4062140744339904
0.3323793,3.41331665607253,0.34350733009791,1.9514913197996573,2.4558403443188532,6.943039772448863,1.6384329730382015,4.3125978533517895,0.40785455193234177
0.3328448,3.4159317213713436,0.3815619909993269,1.9465265579641493,2.461398788040203,6.917541986854155,1.6331665133204338,4.294862438632837,0.4106037160506724
0.3333103,3.4209822908234466,0.4138562925006654,1.9417085555783105,2.470389101338622,6.900893898531344,1.620574744478612,4.278920220295459,0.41450929722416313
0.3337759,3.4288443644459092,0.4406657665843509,1.9383937690583881,2.4788797583911224,6.8932108678023285,1.6076967781399771,4.262856775363065,0.4197909010888524
0.3342414,3.4401725129923033,0.46208289640602546,1.9366700849029634,2.4835668552538945,6.891890942965532,1.5953355997274852,4.236605380466557,0.42583151302968075
0.3347069,3.4532806717321334,0.4762860703142761,1.9349996614815366,2.48441017159173,6.892688841521016,1.585602012056593,4.200022063798012,0.43065052322608843
0.3351724,3.4666769404295557,0.4832140211222753,1.9314121224127092,2.484532467244028,6.892814072248672,1.5843187136499737,4.185989216739906,0.4326410524584186
0.3356379,3.4782457822798136,0.48588481073356427,1.925074326680696,2.4905257694016596,6.891232925831786,1.5870153712698447,4.221632628979178,0.4321425671774422
0.3361034,3.4833399523700446,0.48677018701040714,1.9165893605856188,2.5089711045526486,6.887536484620043,1.5858547329513422,4.287004509876712,0.4307867790526771
0.336569,3.4768579984090726,0.48648498896478276,1.9068072342127633,2.5353538312158688,6.881773232629576,1.5833736027012504,4.345102261701482,0.4297908007266175
0.3370345,3.4584139735881507,0.48542086777108434,1.8964226102083437,2.555076550749115,6.875263461566132,1.5831968765962858,4.380153583976019,0.42921774846075855
0.3375,3.4331470350564186,0.4843599417046218,1.8859090301109822,2.562323340175374,6.869659335007248,1.5861660433028053,4.396063518202821,0.4288245521487419
0.3379655,3.4057862866676203,0.48421234953555037,1.8754073742452173,2.562820805591163,6.863859239969414,1.59756584742956,4.401753392546947,0.42860944668518514
0.338431,3.3757101348043634,0.4854207477129949,1.8644546304877434,2.561488778034095,6.853175540519951,1.614994851377937,4.4034334996498705,0.42883952837251627
0.3388966,3.338395202179977,0.48725518993616374,1.85131981906621,2.5597367084279594,6.83273465506218,1.6272003338635537,4.40337251236067,0.4299720687488564
0.3393621,3.2921398711912304,0.4887951175825115,1.8346963431716095,2.558474256135283,6.801512429235501,1.631507458734514,4.402025684021645,0.43221121394537065
0.3398276,3.246308919543186,0.4897548883656188,1.8176437797823481,2.5580727063497033,6.761127880692534,1.632309125603257,4.399990354539388,0.4351337595311968
0.3402931,3.2177004603358483,0.48974698168836334,1.8064997256014348,2.5581167524413857,6.710257228847897,1.6321781886618445,4.399312118745279,0.43720081312901743
0.3407586,3.210559845333668,0.4893827206032275,1.8029252569249494,2.5596537550022607,6.6425257296592894,1.6322767339588773,4.404649543891911,0.437364779687397
0.3412241,3.2117805149955916,0.4896203549743162,1.802771041417201,2.5633565475616504,6.551181745340369,1.6339316852167254,4.421112332076484,0.43778704985133365
0.3416897,3.211447808066966,0.4899068181175895,1.8030235322974522,2.5674659012774517,6.435758115791591,1.6366137186418168,4.4473644885889545,0.4397901314382505
0.3421552,3.20862129652781,0.4896669138192561,1.802429962844173,2.570801674273662,6.301045298397177,1.637680223345109,4.470473920530606,0.4409275697944085
0.3426207,3.204833136885493,0.48864285492311094,1.8004149317504297,2.5739271081441673,6.1482448955765125,1.636014047298932,4.472138507708358,0.4396131736052952
0.3430862,3.204097066271727,0.4867941563055471,1.7986865761782471,2.5776657357200974,5.9699337304871625,1.6333166164889457,4.446240282592492,0.4369162110628911
0.3435517,3.2037961156467807,0.4850898034314261,1.7984236777595715,2.581746147877391,5.755228984508051,1.6345368402221445,4.408240370867716,0.4341515047621709
0.3440172,3.1969235515230907,0.4839422911051934,1.7986027350589677,2.5848524577933194,5.5003143211092675,1.6484772888746335,4.37850117416108,0.43259158842153406
0.3444828,3.1853757757202215,0.48274026871648085,1.798476776244316,2.5865712572401427,5.212139150496839,1.6807928920840005,4.361016109833975,0.43254300990874317
0.3449483,3.1732411863448773,0.48122040761894147,1.7981657067014347,2.588000168367845,4.90325018914686,1.7246012033520788,4.349058770562838,0.43364298876854823
0.3454138,3.1581614384428907,0.4798884676835545,1.797755565702467,2.589882400717318,4.587036931147332,1.7654716873290357,4.33688041164291,0.43644101473000074
0.3458793,3.134309503070775,0.4793386408908208,1.7968658323678803,2.5917573717641686,4.274438202229796,1.7924092532475715,4.319413975409067,0.4395275301120199
0.3463448,3.100521182715631,0.4792639918343503,1.7944991636618834,2.5929744993064654,3.968847258416182,1.80255042530989,4.2971970963080555,0.4400805186190022
0.3468103,3.064503646240153,0.4792921457783601,1.7894970695008159,2.5934504627651336,3.6668262687755178,1.8031280049401366,4.276804922741871,0.4380086623631419
0.3472759,3.0323974882727684,0.479583611888452,1.7817997044982108,2.5934982394614186,3.375720423563849,1.8034255949081333,4.263760277015122,0.4353871257139985
0.3477414,3.0021070859176526,0.47996439312018646,1.7731685481111834,2.59330640902645,3.1341782295832976,1.8018015183968565,4.264239261705001,0.43378666011158107
0.3482069,2.971402735909107,0.4801021548630747,1.765707827837539,2.5926352045819687,2.9900619308807825,1.7956069966606851,4.2822346594856855,0.4329884521514378
0.3486724,2.9470859641510474,0.4799778832672839,1.7602291200984204,2.590995726244,2.9430434442236577,1.7908785786152834,4.309681750063731,0.4313004360596799
0.3491379,2.938296014832716,0.4796608679558416,1.7567908604867757,2.5886205679138814,2.9477198391491397,1.790125489767792,4.3258044700089,0.42808659664290444
0.3496034,2.939280677915103,0.47934103845948584,1.7556154685212413,2.5866053656456702,2.9667553956115733,1.7899700740610198,4.310147686517879,0.42534819010318764
0.350069,2.9381885216009,0.4792146984526859,1.756678343180509,2.58566530281953,2.986900239603733,1.7881967938345493,4.2661562380020905,0.42476176292040146
0.3505345,2.9337595724010703,0.4792377464124983,1.7593023536144459,2.585644616196938,3.0063027172093526,1.7813039393945715,4.228035224992286,0.4249317402067413
0.351,2.9274189139367692,0.4792824121660408,1.7625783455559942,2.5851930934303096,3.02307693017798,1.762540447594953,4.223155710282322,0.4249050090996166
0.3514655,2.9150812802508157,0.4792828837445467,1.765862099992911,2.5807455691452135,3.0313010727316665,1.7307166367275504,4.236738477153826,0.4281788221455751
0.351931,2.889415381505111,0.4793505483434059,1.7691427032407627,2.567556014390454,3.025159455579863,1.6978550581584884,4.231558742980785,0.43876001844651846
