,Time,Rectus Femoris right,Rectus Femoris left,Hamstrings right,Hamstrings left,TibilaisÂ Anterior right,TibilaisÂ Anterior left,Gastrocnemius right,Gastrocnemius left
0,0.0,-0.0459907,-0.0619364,-0.2056153,-0.0525368,0.0595865,0.0105745,-0.0005035,-0.0204776
1,0.0004655,-0.0464942,-0.096849,-0.199237,-0.0515297,0.0421302,0.0488441,-0.0125887,-0.0092317
2,0.000931,-0.0407874,-0.1582818,-0.170367,-0.0518654,0.0075532,0.0961776,-0.030045,0.0018463
3,0.0013966,-0.0330663,-0.2281071,-0.1339437,-0.0515297,-0.0243381,0.1508965,-0.0609293,0.0119173
4,0.0018621,-0.0293736,-0.2767834,-0.1012131,-0.0501869,-0.0391089,0.2158541,-0.0874495,0.0166171
5,0.0023276,-0.0293736,-0.2915541,-0.0753643,-0.0480049,-0.0538796,0.300618,-0.087953,0.008896
6,0.0027931,-0.0317235,-0.2818189,-0.0464942,-0.0464942,-0.0795605,0.4021668,-0.0619364,-0.0023499
7,0.0032586,-0.0407874,-0.2254215,-0.0045319,-0.0513619,-0.0931563,0.4996872,-0.0193027,-0.012253
8,0.0037241,-0.0513619,-0.1312581,0.0397803,-0.0605936,-0.0840925,0.5772335,0.0226596,-0.0354162
9,0.0041897,-0.057908,-0.0471656,0.0656291,-0.0693217,-0.0716716,0.6376593,0.04448,-0.0810712
10,0.0046552,-0.0565652,0.0115816,0.0703288,-0.0753643,-0.0636149,0.6876783,0.0394446,-0.1220264
11,0.0051207,-0.0466621,0.0480049,0.0629435,-0.0750286,-0.0592508,0.7266194,0.0209812,-0.1297475
12,0.0055862,-0.0354162,0.024506,0.0553902,-0.068986,-0.0495155,0.7447471,0.0018463,-0.1089342
13,0.0060517,-0.0236667,-0.0552224,0.0574044,-0.0605936,-0.0256809,0.7328298,-0.0142672,-0.0703288
14,0.0065172,-0.0077211,-0.1344472,0.070161,-0.051194,-0.0023499,0.6977493,-0.0219883,-0.0182956
15,0.0069828,0.0125887,-0.1978943,0.079057,-0.0424659,0.0031891,0.6571298,-0.0213169,0.043473
16,0.0074483,0.0320592,-0.2418708,0.0686503,-0.0379339,-0.0035248,0.6094606,-0.0152743,0.1042344
17,0.0079138,0.0471656,-0.2623484,0.0468299,-0.0431373,-0.0008392,0.5463493,-0.0062104,0.1505608
18,0.0083793,0.0572366,-0.2541238,0.0213169,-0.0572366,0.0132601,0.4624247,-0.0062104,0.1770809
19,0.0088448,0.0616007,-0.2178683,-0.002182,-0.0699931,0.0193027,0.3734646,-0.017792,0.1831235
20,0.0093103,0.0639506,-0.1592889,-0.0276951,-0.0693217,0.0011749,0.3002823,-0.0310521,0.1720455
21,0.0097759,0.0607614,-0.0941634,-0.064622,-0.0562295,-0.0270237,0.2334783,-0.0352483,0.1515679
22,0.0102414,0.0498512,-0.0448157,-0.1084306,-0.0387732,-0.0471656,0.1542535,-0.0357519,0.1240406
23,0.0107069,0.040116,-0.0142672,-0.142504,-0.0226596,-0.0528725,0.0710002,-0.0399481,0.0904707
24,0.0111724,0.0391089,0.0028534,-0.1535821,-0.0099031,-0.0344091,-0.0041962,-0.0436408,0.0565652
25,0.0116379,0.0381018,0.0115816,-0.1485466,0.0001678,0.0025177,-0.0792248,-0.0414588,0.023331
26,0.0121034,0.0285344,0.0203098,-0.1431754,0.0085603,0.0307164,-0.1542535,-0.0391089,-0.0087282
27,0.012569,0.0129244,0.0276951,-0.1344472,0.0139315,0.0327306,-0.2247501,-0.0391089,-0.0404517
28,0.0130345,-0.0072175,0.0327306,-0.1129625,0.023331,0.0172885,-0.2952468,-0.0330663,-0.0728466
29,0.0135,-0.0310521,0.0414588,-0.0835889,0.0360876,-0.0011749,-0.3644007,-0.0196384,-0.1055772
30,0.0139655,-0.0565652,0.0481727,-0.0508583,0.0493477,-0.0149386,-0.4231479,-0.005539,-0.1331044
31,0.014431,-0.0820783,0.0454871,-0.0256809,0.0595865,-0.0028534,-0.4671244,0.0052033,-0.1549248
32,0.0148966,-0.1008774,0.0411231,-0.0162814,0.0636149,0.0364233,-0.5003586,0.0166171,-0.1784237
33,0.0153621,-0.1129625,0.0486763,-0.0109102,0.0632792,0.0787213,-0.5265431,0.0219883,-0.2076295
34,0.0158276,-0.1237049,0.0763714,0.0045319,0.0609293,0.0897993,-0.5473564,0.0162814,-0.2317998
35,0.0162931,-0.1378042,0.1079271,0.026688,0.0565652,0.0592508,-0.5604486,0.0038605,-0.240528
36,0.0167586,-0.1552605,0.1287404,0.0387732,0.0505226,0.0119173,-0.574548,-0.0046998,-0.2324712
37,0.0172241,-0.1715419,0.1844663,0.0313878,0.0451514,-0.0384375,-0.5993896,-0.0082246,-0.2183719
38,0.0176897,-0.1774166,0.2522774,0.0172885,0.0394446,-0.0715038,-0.6332952,-0.0092317,-0.2042725
39,0.0181552,-0.1683528,0.2824903,0.0099031,0.0307164,-0.064622,-0.6618296,-0.012253,-0.1883268
40,0.0186207,-0.1445182,0.2751049,0.0125887,0.0206455,-0.0287022,-0.6789502,-0.0132601,-0.1713741
41,0.0190862,-0.1151446,0.2495918,0.0179599,0.0099031,0.0005035,-0.6903639,-0.0105745,-0.1596246
42,0.0195517,-0.0847639,0.2106508,0.0182956,-0.0010071,0.0075532,-0.6992599,-0.0063783,-0.1539178
43,0.0200172,-0.0535439,0.1775845,0.0146029,-0.0099031,-0.0082246,-0.7004349,-0.0028534,-0.1490501
44,0.0204828,-0.0216526,0.1649958,0.0105745,-0.01561,-0.0480049,-0.6863355,-0.0015106,-0.1367971
45,0.0209483,0.0099031,0.114641,-0.0048676,-0.018967,-0.0981918,-0.6670329,-0.0052033,-0.1163195
46,0.0214138,0.0369268,0.0125887,-0.0271916,-0.0213169,-0.1263905,-0.6618296,-0.0068818,-0.0914778
47,0.0218793,0.0562295,-0.047837,-0.0446479,-0.023331,-0.1250477,-0.6682078,-0.0062104,-0.0621042
48,0.0223448,0.0659648,-0.0337377,-0.0552224,-0.0243381,-0.1183337,-0.6648508,-0.005539,-0.026688
49,0.0228103,0.0666361,-0.0018463,-0.0641184,-0.0260166,-0.1193408,-0.6406806,-0.0068818,0.011078
50,0.0232759,0.0642863,0.0092317,-0.0652934,-0.0303807,-0.1270619,-0.6057679,-0.0129244,0.0441444
51,0.0237414,0.0647898,-0.0057069,-0.0527047,-0.0357519,-0.1420005,-0.5648127,-0.0229953,0.0683146
52,0.0242069,0.0693217,-0.0297093,-0.0307164,-0.0387732,-0.1505608,-0.5107652,-0.0305486,0.090135
53,0.0246724,0.0777142,-0.0223239,-0.0085603,-0.0417945,-0.13579,-0.4394293,-0.0307164,0.1116197
54,0.0251379,0.0871138,0.0182956,0.0031891,-0.0488441,-0.0981918,-0.3630579,-0.0250095,0.1284047
55,0.0256034,0.0894636,0.0629435,0.0105745,-0.0562295,-0.036759,-0.3120317,-0.0263523,0.1381399
56,0.026069,0.0785534,0.0897993,0.0240024,-0.0605936,0.0441444,-0.3127031,-0.0323949,0.1354543
57,0.0265345,0.0562295,0.0978561,0.0454871,-0.0605936,0.1287404,-0.3546654,-0.0350805,0.1299153
58,0.027,0.0260166,0.1077592,0.0636149,-0.0589151,0.207126,-0.3936065,-0.0303807,0.1295796
59,0.0274655,-0.008896,0.1139696,0.0647898,-0.0565652,0.2579843,-0.3931029,-0.021149,0.1367971
60,0.027931,-0.0468299,0.0998703,0.0488441,-0.0525368,0.2603342,-0.3563439,-0.0095674,0.1482109
61,0.0283966,-0.0820783,0.0740215,0.0204776,-0.0488441,0.2170291,-0.3086748,-0.0001678,0.156939
62,0.0288621,-0.1106126,0.0642863,-0.0135958,-0.0485084,0.1549248,-0.2722515,0.0065461,0.1579461
63,0.0293276,-0.1317617,0.0837568,-0.0340734,-0.0505226,0.0981918,-0.2519417,0.0117494,0.1582818
64,0.0297931,-0.142504,0.1104448,-0.0287022,-0.0522011,0.043473,-0.2321355,0.01561,0.1789273
65,0.0302586,-0.1465324,0.1134661,-0.0028534,-0.0532082,-0.0031891,-0.1989014,0.0199741,0.2042725
66,0.0307241,-0.1445182,0.082414,0.0293736,-0.0538796,-0.0374304,-0.1596246,0.0231632,0.2116579
67,0.0311897,-0.139147,0.0320592,0.0481727,-0.0525368,-0.0814069,-0.1218585,0.0226596,0.2042725
68,0.0316552,-0.1297475,-0.0068818,0.0428016,-0.051194,-0.1331044,-0.0908064,0.0172885,0.1995727
69,0.0321207,-0.1190051,-0.0285344,0.0236667,-0.0518654,-0.1519036,-0.0740215,0.0112459,0.2089723
70,0.0325862,-0.1116197,-0.0491798,0.0058747,-0.0515297,-0.1226978,-0.0641184,0.0072175,0.2307927
71,0.0330517,-0.1072557,-0.061265,-0.0095674,-0.047837,-0.0753643,-0.0347448,0.005539,0.254963
72,0.0335172,-0.1065843,-0.0471656,-0.0313878,-0.0428016,-0.0498512,0.0008392,0.0028534,0.265034
73,0.0339828,-0.1038987,-0.01561,-0.0632792,-0.0426337,-0.0493477,0.012253,-0.0028534,0.2552987
74,0.0344483,-0.0963455,0.0182956,-0.0975204,-0.0458228,-0.0542153,0.036759,-0.0093996,0.235996
75,0.0349138,-0.0874495,0.057908,-0.1263905,-0.0448157,-0.0663005,0.0991989,-0.0135958,0.2109865
76,0.0353793,-0.0780499,0.1059129,-0.1398184,-0.040116,-0.0847639,0.164828,-0.0149386,0.1821164
77,0.0358448,-0.0669718,0.1502251,-0.1431754,-0.0357519,-0.0842603,0.2086366,-0.0137636,0.1555962
78,0.0363103,-0.0495155,0.1690242,-0.1408255,-0.0344091,-0.0424659,0.2411994,-0.012253,0.131426
79,0.0367759,-0.0265202,0.1566033,-0.1294118,-0.0340734,0.0172885,0.2670481,-0.0135958,0.1129625
80,0.0372414,-0.0016785,0.1300832,-0.1097734,-0.0323949,0.0548867,0.2784619,-0.0186313,0.1109483
81,0.0377069,0.0231632,0.1042344,-0.0834211,-0.0297093,0.0760357,0.2789654,-0.0251774,0.1243763
82,0.0381724,0.0459907,0.0903029,-0.061265,-0.0270237,0.1099413,0.2730907,-0.0328985,0.1441825
83,0.0386379,0.0652934,0.0869459,-0.0595865,-0.0270237,0.1495537,0.2596628,-0.0421302,0.1660029
84,0.0391034,0.0817426,0.0891279,-0.0780499,-0.026688,0.1629816,0.2375067,-0.051194,0.1910124
85,0.039569,0.0958419,0.0936599,-0.0928206,-0.0256809,0.1522393,0.2099794,-0.0599222,0.219379
86,0.0400345,0.1089342,0.1015488,-0.0847639,-0.0240024,0.1287404,0.1802701,-0.0673075,0.2453956
87,0.0405,0.121355,0.1216907,-0.0688182,-0.0206455,0.0849317,0.1534142,-0.0713359,0.2610056
88,0.0409655,0.1305867,0.1488823,-0.0649577,-0.0169528,0.0411231,0.131426,-0.0706645,0.2586557
89,0.041431,0.1352865,0.170367,-0.0740215,-0.0129244,0.0068818,0.1132982,-0.066804,0.2361639
90,0.0418966,0.139147,0.1824521,-0.0760357,-0.008896,-0.0391089,0.0973526,-0.0619364,0.2052796
91,0.0423621,0.1522393,0.1777523,-0.0619364,-0.0062104,-0.0995346,0.0837568,-0.0558938,0.1831235
92,0.0428276,0.1770809,0.1626459,-0.0441444,-0.0035248,-0.1529107,0.0797284,-0.0458228,0.1755703
93,0.0432931,0.2076295,0.1505608,-0.0260166,-0.0005035,-0.1858091,0.0874495,-0.0310521,0.1762417
94,0.0437586,0.2324712,0.1515679,0.0015106,0.0018463,-0.2076295,0.0975204,-0.0171206,0.1767453
95,0.0442241,0.2452277,0.1535821,0.033402,0.0058747,-0.2170291,0.1008774,-0.0082246,0.1649958
96,0.0446897,0.2499275,0.1493858,0.051194,0.0105745,-0.194873,0.0971847,-0.0050355,0.1414969
97,0.0451552,0.251606,0.1414969,0.0501869,0.0149386,-0.1512322,0.0861067,-0.0052033,0.1151446
98,0.0456207,0.2442206,0.1310903,0.0461585,0.0171206,-0.1122911,0.0743572,-0.005539,0.1003738
99,0.0460862,0.219379,0.1193408,0.0547189,0.0186313,-0.0622721,0.066804,-0.0073854,0.0981918
100,0.0465517,0.1782559,0.1072557,0.0773785,0.0206455,0.026688,0.0599222,-0.0112459,0.0965133
101,0.0470172,0.1292439,0.094667,0.0938277,0.023331,0.1260548,0.054551,-0.018967,0.0876173
102,0.0474828,0.0803998,0.0810712,0.0793927,0.024506,0.1851377,0.0515297,-0.0290379,0.0767071
103,0.0479483,0.0350805,0.0676432,0.0419623,0.0226596,0.2009155,0.0493477,-0.0340734,0.0676432
104,0.0484138,-0.0062104,0.0558938,0.0008392,0.0218204,0.1910124,0.0448157,-0.0344091,0.0555581
105,0.0488793,-0.0424659,0.0480049,-0.0310521,0.0223239,0.1468681,0.0354162,-0.036759,0.040116
106,0.0493448,-0.0746929,0.0451514,-0.049012,0.023331,0.0726787,0.0229953,-0.0431373,0.0213169
107,0.0498103,-0.10692,0.0461585,-0.0589151,0.0226596,-0.0109102,0.0152743,-0.047837,-0.002182
108,0.0502759,-0.1441825,0.0488441,-0.0636149,0.0216526,-0.082414,0.018967,-0.04448,-0.0297093
109,0.0507414,-0.1871519,0.0522011,-0.0676432,0.0206455,-0.1210193,0.0298772,-0.0394446,-0.0602579
110,0.0512069,-0.2331426,0.0548867,-0.0626078,0.0203098,-0.1210193,0.0386053,-0.0404517,-0.0911421
111,0.0516724,-0.2771191,0.0562295,-0.0337377,0.0219883,-0.0897993,0.0468299,-0.0411231,-0.1183337
112,0.0521379,-0.3130388,0.0582437,0.0125887,0.0253452,-0.0520333,0.0619364,-0.033402,-0.1398184
113,0.0526034,-0.3351949,0.0585794,0.0542153,0.030045,-0.0417945,0.0830854,-0.0186313,-0.1616388
114,0.053069,-0.3405661,0.0575723,0.0760357,0.0317235,-0.0619364,0.0941634,-0.0068818,-0.1864805
115,0.0535345,-0.3320058,0.0582437,0.0728466,0.0310521,-0.0948348,0.0861067,-0.0015106,-0.2123293
116,0.054,-0.3093462,0.0602579,0.0609293,0.0292058,-0.1171588,0.0686503,0.0015106,-0.2391852
117,0.0544655,-0.2710765,0.0589151,0.0602579,0.0280308,-0.1196765,0.0599222,0.0058747,-0.2646983
118,0.054931,-0.2212253,0.0528725,0.0716716,0.0283665,-0.112459,0.0642863,0.008896,-0.2865187
119,0.0553966,-0.1693599,0.0426337,0.0809033,0.0273594,-0.0881209,0.076875,0.0085603,-0.3049821
120,0.0558621,-0.1260548,0.0303807,0.0636149,0.0243381,-0.0350805,0.0869459,0.0132601,-0.3226062
121,0.0563276,-0.093492,0.0179599,0.0164492,0.0172885,0.0223239,0.0951705,0.0263523,-0.3402304
122,0.0567931,-0.064622,0.0078889,-0.0370947,0.0078889,0.0616007,0.1065843,0.04448,-0.3563439
123,0.0572586,-0.0337377,0.0028534,-0.0743572,0.0011749,0.0803998,0.1205158,0.061265,-0.3709468
124,0.0577241,-0.0036927,0.002182,-0.0931563,-0.0015106,0.0720073,0.1341115,0.0750286,-0.3831998
125,0.0581897,0.0179599,-0.0018463,-0.1028916,-0.002182,0.0475013,0.1455253,0.0911421,-0.39411
126,0.0586552,0.033402,-0.0112459,-0.1143053,-0.0028534,0.043473,0.1485466,0.1151446,-0.4025025
127,0.0591207,0.0491798,-0.021149,-0.1433433,-0.0036927,0.0767071,0.1495537,0.1431754,-0.4088808
128,0.0595862,0.0637827,-0.0297093,-0.1935302,-0.0052033,0.1361257,0.1562676,0.170367,-0.4145876
129,0.0600517,0.0755322,-0.0397803,-0.2380102,-0.0072175,0.1878233,0.1663386,0.1930266,-0.4177768
130,0.0605172,0.0854353,-0.0525368,-0.2534524,-0.0095674,0.1935302,0.1730526,0.2096437,-0.4191196
131,0.0609828,0.0958419,-0.0652934,-0.2274357,-0.0142672,0.1320974,0.1707027,0.2208896,-0.4177768
132,0.0614483,0.1059129,-0.0755322,-0.1733883,-0.0196384,0.0344091,0.1596246,0.2299535,-0.4127413
133,0.0619138,0.1132982,-0.0847639,-0.117998,-0.0229953,-0.0375982,0.1435111,0.2381781,-0.4040131
134,0.0623793,0.117998,-0.096849,-0.0762036,-0.0243381,-0.06009,0.1287404,0.2452277,-0.3946136
135,0.0628448,0.1220264,-0.110277,-0.0360876,-0.0223239,-0.0485084,0.1265583,0.2492561,-0.3868925
136,0.0633103,0.1260548,-0.1245441,0.0193027,-0.0219883,-0.0119173,0.139147,0.2474098,-0.3821927
137,0.0637759,0.1257191,-0.1398184,0.0783856,-0.0236667,0.0532082,0.1589532,0.2398566,-0.3801785
138,0.0642414,0.1226978,-0.1438468,0.114641,-0.0243381,0.0797284,0.1774166,0.2272679,-0.3748074
139,0.0647069,0.1193408,-0.1237049,0.1085985,-0.0243381,0.0273594,0.1807736,0.2103151,-0.3655756
140,0.0651724,0.1173266,-0.1082628,0.0654612,-0.0229953,-0.0325628,0.1535821,0.1898375,-0.3546654
141,0.0656379,0.1132982,-0.1169909,0.0085603,-0.0229953,-0.0475013,0.1055772,0.1695277,-0.3412375
142,0.0661034,0.1079271,-0.1420005,-0.0417945,-0.023331,-0.0181277,0.0632792,0.1488823,-0.3264668
143,0.066569,0.1030594,-0.1693599,-0.0708324,-0.0229953,0.0146029,0.0495155,0.1260548,-0.3127031
144,0.0670345,0.0988632,-0.194873,-0.0763714,-0.0229953,0.0125887,0.0602579,0.100206,-0.3036393
145,0.0675,0.0921492,-0.2197147,-0.0691539,-0.0236667,-0.0229953,0.0721752,0.0750286,-0.2969253
146,0.0679655,0.0837568,-0.240528,-0.0585794,-0.0236667,-0.0585794,0.0715038,0.0525368,-0.2898756
147,0.068431,0.0753643,-0.2566415,-0.0454871,-0.0246738,-0.0736858,0.066804,0.0313878,-0.2811475
148,0.0688966,0.0710002,-0.2714122,-0.0307164,-0.0256809,-0.0699931,0.0632792,0.0132601,-0.2700694
149,0.0693621,0.0696574,-0.2875257,-0.0105745,-0.0246738,-0.0485084,0.0629435,-0.0038605,-0.2559701
150,0.0698276,0.0703288,-0.2989395,0.0112459,-0.0229953,-0.0068818,0.0642863,-0.0219883,-0.240528
151,0.0702931,0.0696574,-0.3011215,0.0347448,-0.0213169,0.0347448,0.0605936,-0.0428016,-0.2250858
152,0.0707586,0.0659648,-0.2969253,0.056733,-0.0203098,0.0459907,0.0515297,-0.061265,-0.2099794
153,0.0712241,0.0602579,-0.2942397,0.0669718,-0.0203098,0.0231632,0.0426337,-0.0736858,-0.1953765
154,0.0716897,0.0535439,-0.2928969,0.0636149,-0.0182956,0.0068818,0.0328985,-0.0847639,-0.178088
155,0.0721552,0.0498512,-0.2925612,0.0548867,-0.0162814,0.0152743,0.026688,-0.0988632,-0.1579461
156,0.0726207,0.0475013,-0.295079,0.0473335,-0.0179599,0.0285344,0.0260166,-0.1186694,-0.1378042
157,0.0730862,0.0438087,-0.2986038,0.043473,-0.0198062,0.033402,0.0213169,-0.1406577,-0.1223621
158,0.0735517,0.0387732,-0.2996109,0.0327306,-0.0203098,0.0387732,0.0082246,-0.1559319,-0.1129625
159,0.0740172,0.0323949,-0.3009537,0.0132601,-0.0209812,0.0522011,-0.0162814,-0.1666743,-0.1054093
160,0.0744828,0.0246738,-0.3086748,0.006714,-0.0238346,0.0570687,-0.0525368,-0.1760739,-0.0955062
161,0.0749483,0.0152743,-0.3226062,0.0240024,-0.0256809,0.0505226,-0.0874495,-0.1829557,-0.0827497
162,0.0754138,0.0082246,-0.3372091,0.0414588,-0.0253452,0.033402,-0.0995346,-0.188159,-0.0678111
163,0.0758793,0.0031891,-0.3456016,0.0411231,-0.0236667,0.003357,-0.0793927,-0.193698,-0.0520333
164,0.0763448,-0.0031891,-0.3466087,0.0285344,-0.0219883,-0.0216526,-0.0458228,-0.2005798,-0.0370947
165,0.0768103,-0.0099031,-0.3422446,0.01561,-0.0209812,-0.0216526,-0.0166171,-0.2056153,-0.024506
166,0.0772759,-0.0149386,-0.3365377,0.0068818,-0.0208133,-0.0078889,-0.002182,-0.2069581,-0.012253
167,0.0777414,-0.0186313,-0.3308309,-0.005539,-0.0203098,-0.0031891,-0.0015106,-0.202594,0.0025177
168,0.0782069,-0.0209812,-0.3236133,-0.0303807,-0.0204776,-0.0203098,-0.0125887,-0.1952087,0.0172885
169,0.0786724,-0.023331,-0.3120317,-0.061265,-0.0196384,-0.0320592,-0.0397803,-0.1864805,0.0285344
170,0.0791379,-0.0280308,-0.297261,-0.082414,-0.0179599,-0.0258488,-0.079057,-0.1754025,0.0374304
171,0.0796034,-0.0313878,-0.2808118,-0.0871138,-0.0176242,-0.0223239,-0.110277,-0.1663386,0.0481727
172,0.080069,-0.0303807,-0.2663767,-0.0803998,-0.017792,-0.0359197,-0.1196765,-0.1609674,0.0585794
173,0.0805345,-0.0246738,-0.2536202,-0.0713359,-0.0162814,-0.0659648,-0.110277,-0.1555962,0.0652934
174,0.081,-0.0164492,-0.2422065,-0.0594186,-0.0146029,-0.0894636,-0.0834211,-0.1493858,0.0688182
175,0.0814655,-0.0075532,-0.2314641,-0.0441444,-0.012253,-0.0862745,-0.0493477,-0.1441825,0.0703288
176,0.081931,0.0011749,-0.2232395,-0.0290379,-0.010071,-0.0733501,-0.035584,-0.1404898,0.0726787
177,0.0823966,0.008896,-0.2150149,-0.0135958,-0.0095674,-0.056733,-0.0475013,-0.1381399,0.0763714
178,0.0828621,0.0167849,-0.2015869,-0.0025177,-0.0082246,-0.0075532,-0.0619364,-0.1398184,0.0800641
179,0.0833276,0.0243381,-0.1844663,0.0005035,-0.0048676,0.0602579,-0.0659648,-0.1421683,0.0844282
180,0.0837931,0.0293736,-0.1686885,-0.0109102,-0.0015106,0.0676432,-0.0642863,-0.1451896,0.0889601
181,0.0842586,0.0330663,-0.1505608,-0.0404517,-0.0005035,0.0085603,-0.0681468,-0.1440146,0.0911421
182,0.0847241,0.0360876,-0.1263905,-0.0820783,-0.0028534,-0.0518654,-0.0803998,-0.1351186,0.0911421
183,0.0851897,0.0411231,-0.1012131,-0.1223621,-0.0041962,-0.0908064,-0.093492,-0.1225299,0.0884565
184,0.0856552,0.04448,-0.0800641,-0.1488823,-0.0041962,-0.1441825,-0.0990311,-0.1109483,0.0840925
185,0.0861207,0.0461585,-0.0626078,-0.1562676,-0.0030213,-0.2091402,-0.0931563,-0.1018845,0.0819104
186,0.0865862,0.0491798,-0.0471656,-0.1421683,-0.002182,-0.244892,-0.079057,-0.0948348,0.0810712
187,0.0870517,0.0553902,-0.0288701,-0.1148089,-0.0023499,-0.2239109,-0.0663005,-0.0881209,0.0817426
188,0.0875172,0.0585794,-0.008896,-0.0928206,-0.0038605,-0.1431754,-0.0597543,-0.0793927,0.0837568
189,0.0879828,0.0570687,0.0104067,-0.0803998,-0.005539,-0.0468299,-0.0626078,-0.0706645,0.0830854
190,0.0884483,0.0542153,0.0293736,-0.0728466,-0.0031891,0.0104067,-0.0733501,-0.0659648,0.0800641
191,0.0889138,0.0522011,0.0495155,-0.0708324,0.0005035,0.0320592,-0.0820783,-0.0663005,0.0760357
192,0.0893793,0.0522011,0.0656291,-0.0783856,0.0035248,0.0461585,-0.0800641,-0.0686503,0.0726787
193,0.0898448,0.0522011,0.0788891,-0.0877852,0.0048676,0.0454871,-0.0703288,-0.0693217,0.068986
194,0.0903103,0.0525368,0.0911421,-0.0931563,0.0045319,0.0179599,-0.0585794,-0.0656291,0.0664683
195,0.0907759,0.0562295,0.1028916,-0.1018845,0.002182,-0.0229953,-0.0518654,-0.0585794,0.0663005
196,0.0912414,0.0589151,0.1117876,-0.1203479,0.0001678,-0.047837,-0.0552224,-0.051194,0.0663005
197,0.0917069,0.0582437,0.1190051,-0.1344472,0.0005035,-0.0417945,-0.0669718,-0.0461585,0.0663005
198,0.0921724,0.0555581,0.1233692,-0.1272297,0.0018463,-0.0149386,-0.0746929,-0.0461585,0.0669718
199,0.0926379,0.0508583,0.124712,-0.1013809,0.0011749,0.0149386,-0.064622,-0.0498512,0.0686503
200,0.0931034,0.0461585,0.1257191,-0.0743572,-0.0008392,0.0535439,-0.0417945,-0.0525368,0.0710002
201,0.093569,0.0421302,0.1277333,-0.0605936,-0.0041962,0.0998703,-0.0276951,-0.0535439,0.0710002
202,0.0940345,0.040116,0.1294118,-0.0535439,-0.0077211,0.1126268,-0.0283665,-0.0558938,0.0656291
203,0.0945,0.040116,0.1334401,-0.0451514,-0.0082246,0.0763714,-0.0364233,-0.0605936,0.057908
204,0.0949655,0.0411231,0.1404898,-0.0352483,-0.005539,0.0287022,-0.04448,-0.064622,0.0528725
205,0.095431,0.0419623,0.1478752,-0.030045,-0.0020142,0.0109102,-0.051194,-0.0659648,0.0505226
206,0.0958966,0.0431373,0.1535821,-0.023331,-0.0001678,0.0273594,-0.0500191,-0.0649577,0.0473335
207,0.0963621,0.0454871,0.1582818,-0.0209812,-0.0003357,0.0569009,-0.0381018,-0.0679789,0.0426337
208,0.0968276,0.0491798,0.1586175,-0.0276951,-0.0018463,0.0642863,-0.0229953,-0.0763714,0.0374304
209,0.0972931,0.0540475,0.1542535,-0.0313878,-0.002182,0.0273594,-0.0115816,-0.0867781,0.0345769
210,0.0977586,0.0602579,0.1522393,-0.0223239,-0.002182,-0.0276951,-0.0005035,-0.0955062,0.0340734
211,0.0982241,0.0673075,0.1576104,-0.0041962,-0.0015106,-0.0693217,0.0119173,-0.1032273,0.0347448
212,0.0986897,0.0713359,0.1660029,0.0184634,-0.0001678,-0.0849317,0.0172885,-0.1109483,0.036759
213,0.0991552,0.0716716,0.170367,0.0384375,0.0015106,-0.0864424,0.0132601,-0.1166552,0.0374304
214,0.0996207,0.0740215,0.1710384,0.0505226,0.0028534,-0.0720073,0.0052033,-0.1206836,0.0381018
215,0.1000862,0.0750286,0.170367,0.0555581,0.0038605,-0.0421302,-0.0001678,-0.1253834,0.0384375
216,0.1005517,0.0757,0.1723812,0.0520333,0.0052033,-0.0129244,-0.0023499,-0.1277333,0.0384375
217,0.1010172,0.0800641,0.1784237,0.0340734,0.0052033,-0.0068818,-0.005539,-0.1285725,0.0384375
218,0.1014828,0.0877852,0.1831235,0.0052033,0.0035248,-0.0431373,-0.0085603,-0.1307546,0.0370947
219,0.1019483,0.0944991,0.1834592,-0.0229953,0.0011749,-0.0887922,-0.008896,-0.1326009,0.0357519
220,0.1024138,0.0971847,0.1819486,-0.0417945,-0.0001678,-0.0908064,-0.0077211,-0.1326009,0.0352483
221,0.1028793,0.0978561,0.1809415,-0.0498512,0.0005035,-0.0352483,-0.0082246,-0.1310903,0.0340734
222,0.1033448,0.0965133,0.1811093,-0.0518654,0.0011749,0.0374304,-0.0095674,-0.1294118,0.0320592
223,0.1038103,0.0948348,0.1811093,-0.051194,0.0005035,0.0710002,-0.0137636,-0.1277333,0.0317235
224,0.1042759,0.0911421,0.1804379,-0.0495155,-0.0001678,0.0599222,-0.018967,-0.121355,0.0354162
225,0.1047414,0.0864424,0.1797665,-0.0459907,-0.0011749,0.033402,-0.0196384,-0.1116197,0.0407874
226,0.1052069,0.0822461,0.1770809,-0.043473,-0.002182,0.0139315,-0.0137636,-0.100206,0.0441444
227,0.1056724,0.0770428,0.1730526,-0.0424659,-0.0028534,0.0092317,-0.005539,-0.090135,0.0436408
228,0.1061379,0.0703288,0.1649958,-0.0407874,-0.0025177,-0.0068818,0.0008392,-0.0787213,0.0360876
229,0.1066034,0.0641184,0.1576104,-0.0381018,-0.0015106,-0.0471656,0.0031891,-0.0649577,0.0298772
230,0.107069,0.061265,0.1554284,-0.0345769,-0.0030213,-0.0861067,0.0058747,-0.0505226,0.0347448
231,0.1075345,0.0575723,0.1552605,-0.0337377,-0.0043641,-0.103563,0.0117494,-0.0417945,0.0488441
232,0.108,0.051194,0.1535821,-0.0384375,-0.0052033,-0.1263905,0.0149386,-0.0381018,0.0538796
233,0.1084655,0.0454871,0.1502251,-0.0448157,-0.0072175,-0.1681849,0.0105745,-0.0357519,0.0419623
234,0.108931,0.0411231,0.1438468,-0.047837,-0.0102388,-0.2106508,0.0018463,-0.0330663,0.0226596
235,0.1093966,0.0360876,0.1347829,-0.047837,-0.0115816,-0.2485847,-0.0041962,-0.0280308,0.0099031
236,0.1098621,0.0297093,0.1240406,-0.0481727,-0.0119173,-0.2730907,-0.0041962,-0.0206455,0.0082246
237,0.1103276,0.0260166,0.1132982,-0.0441444,-0.012253,-0.276112,-0.0015106,-0.0109102,0.0146029
238,0.1107931,0.0261845,0.1055772,-0.0384375,-0.0129244,-0.2554665,0.002182,-0.0015106,0.0219883
239,0.1112586,0.0276951,0.1015488,-0.0340734,-0.0152743,-0.2002441,0.0041962,0.0072175,0.023331
240,0.1117241,0.0307164,0.1022202,-0.0394446,-0.0199741,-0.1279011,-0.0015106,0.0166171,0.0146029
241,0.1121897,0.0354162,0.1038987,-0.061265,-0.0243381,-0.057908,-0.01561,0.0273594,0.0025177
242,0.1126552,0.0374304,0.0911421,-0.0783856,-0.0283665,-0.0125887,-0.0347448,0.0377661,0.0011749
243,0.1131207,0.040116,0.054551,-0.0746929,-0.0297093,-0.0209812,-0.0527047,0.0466621,0.0112459
244,0.1135862,0.0488441,0.0097353,-0.0575723,-0.030045,-0.0654612,-0.0706645,0.0532082,0.0172885
245,0.1140517,0.0656291,-0.0250095,-0.043473,-0.0297093,-0.103563,-0.0881209,0.0572366,0.0052033
246,0.1145172,0.0882887,-0.0485084,-0.0372625,-0.0256809,-0.1183337,-0.1022202,0.0616007,-0.0186313
247,0.1149828,0.1065843,-0.0614328,-0.0330663,-0.0198062,-0.1099413,-0.1099413,0.0659648,-0.0340734
248,0.1154483,0.1139696,-0.0673075,-0.0276951,-0.0162814,-0.085771,-0.10692,0.0676432,-0.0310521
249,0.1159138,0.1126268,-0.0661326,-0.0196384,-0.0142672,-0.0767071,-0.093492,0.0679789,-0.017792
250,0.1163793,0.1082628,-0.0548867,0.0011749,-0.0102388,-0.1000381,-0.0743572,0.0683146,-0.0146029
251,0.1168448,0.1052415,-0.0337377,0.0397803,-0.0070497,-0.1379721,-0.0538796,0.0669718,-0.0248417
252,0.1173103,0.1055772,-0.0129244,0.0817426,-0.0062104,-0.1646601,-0.0345769,0.0656291,-0.040116
253,0.1177759,0.1126268,0.002182,0.0943313,-0.005539,-0.1707027,-0.0216526,0.0676432,-0.0525368
254,0.1182414,0.1270619,0.0152743,0.0495155,-0.005539,-0.1559319,-0.0216526,0.0748608,-0.057908
255,0.1187069,0.1428397,0.0280308,-0.0317235,-0.0062104,-0.1290761,-0.0313878,0.0871138,-0.0498512
256,0.1191724,0.1529107,0.0360876,-0.0834211,-0.0072175,-0.0891279,-0.0433051,0.1012131,-0.0307164
257,0.1196379,0.1515679,0.0387732,-0.0802319,-0.0075532,-0.0243381,-0.0505226,0.1106126,-0.0140993
258,0.1201034,0.1374685,0.0386053,-0.0505226,-0.0048676,0.0424659,-0.0503548,0.1136339,-0.0030213
259,0.120569,0.1166552,0.0292058,-0.0283665,-0.0036927,0.0881209,-0.0391089,0.1132982,0.0105745
260,0.1210345,0.0908064,0.0112459,-0.0135958,-0.0052033,0.124712,-0.0240024,0.1134661,0.0240024
261,0.1215,0.0599222,-0.0038605,-0.0001678,-0.0085603,0.1485466,-0.0157778,0.1159838,0.0276951
262,0.1219655,0.026688,-0.0102388,0.0065461,-0.0125887,0.1539178,-0.01561,0.117998,0.0219883
263,0.122431,-0.0001678,-0.0075532,0.0043641,-0.0151064,0.1656672,-0.0162814,0.1153124,0.0162814
264,0.1228966,-0.0198062,-0.0001678,-0.003357,-0.0154421,0.2046082,-0.0182956,0.1077592,0.0099031
265,0.1233621,-0.0392767,0.0097353,-0.0068818,-0.0146029,0.2428779,-0.0270237,0.1008774,0.0052033
266,0.1238276,-0.0639506,0.0186313,-0.0045319,-0.0142672,0.2331426,-0.0417945,0.0995346,0.0082246
267,0.1242931,-0.0914778,0.0240024,0.0003357,-0.0149386,0.1891661,-0.0547189,0.1038987,0.0186313
268,0.1247586,-0.1171588,0.0240024,0.0043641,-0.0162814,0.1623102,-0.0572366,0.110277,0.030045
269,0.1252241,-0.1404898,0.0203098,0.0038605,-0.0162814,0.1663386,-0.0518654,0.1159838,0.0347448
270,0.1256897,-0.1554284,0.01561,0.0031891,-0.0169528,0.1797665,-0.0448157,0.1240406,0.0317235
271,0.1261552,-0.1695277,0.0119173,0.0097353,-0.0203098,0.1905089,-0.0386053,0.13579,0.0243381
272,0.1266207,-0.1891661,0.0125887,0.0219883,-0.0234989,0.1968872,-0.0317235,0.1488823,0.0166171
273,0.1270862,-0.2098116,0.0146029,0.0337377,-0.0238346,0.199237,-0.0246738,0.1609674,0.0119173
274,0.1275517,-0.223743,0.0119173,0.0454871,-0.0223239,0.1967193,-0.0209812,0.1683528,0.0132601
275,0.1280172,-0.2331426,0.0045319,0.0569009,-0.0206455,0.1942016,-0.017792,0.1750668,0.0159457
276,0.1284828,-0.2378424,-0.0028534,0.0619364,-0.0191348,0.194873,-0.0125887,0.1854734,0.0172885
277,0.1289483,-0.233814,-0.0115816,0.0592508,-0.018967,0.1935302,-0.0142672,0.1978943,0.0182956
278,0.1294138,-0.219379,-0.0196384,0.0535439,-0.0216526,0.184802,-0.026688,0.2079652,0.0198062
279,0.1298793,-0.1895018,-0.0251774,0.0459907,-0.0229953,0.173724,-0.0352483,0.2166934,0.023331
280,0.1303448,-0.1455253,-0.0251774,0.0360876,-0.0216526,0.1663386,-0.0360876,0.2287785,0.0240024
281,0.1308103,-0.0985275,-0.0246738,0.0243381,-0.021149,0.1623102,-0.0345769,0.2469062,0.0199741
282,0.1312759,-0.0562295,-0.0271916,0.0117494,-0.0206455,0.1576104,-0.0337377,0.2714122,0.0125887
283,0.1317414,-0.0243381,-0.0392767,0.0011749,-0.0194705,0.149218,-0.033402,0.2989395,0.0070497
284,0.1322069,-0.0041962,-0.0897993,-0.0035248,-0.018967,0.1331044,-0.0337377,0.3204242,0.0038605
285,0.1326724,0.0078889,-0.1451896,0.0028534,-0.0186313,0.1099413,-0.0330663,0.3368734,0.0045319
286,0.1331379,0.0172885,-0.1552605,0.0146029,-0.0172885,0.0914778,-0.0323949,0.3509728,0.005539
287,0.1336034,0.0283665,-0.1290761,0.018967,-0.0146029,0.085771,-0.0357519,0.3628901,0.0065461
288,0.134069,0.0372625,-0.0988632,0.0149386,-0.0135958,0.0911421,-0.0441444,0.3684291,0.0075532
289,0.1345345,0.0428016,-0.0800641,0.0124208,-0.0139315,0.0991989,-0.0498512,0.3657435,0.0092317
290,0.135,0.0468299,-0.0733501,0.0092317,-0.0164492,0.10692,-0.0518654,0.3650721,0.0078889
291,0.1354655,0.0485084,-0.072343,0.0025177,-0.0182956,0.1178302,-0.051194,0.3768215,0.0052033
292,0.135931,0.0488441,-0.0780499,-0.0159457,-0.0193027,0.1344472,-0.047837,0.4006561,0.0025177
293,0.1363966,0.0500191,-0.1032273,-0.040116,-0.018967,0.1493858,-0.0417945,0.434226,0.0025177
294,0.1368621,0.0538796,-0.1237049,-0.0485084,-0.0199741,0.1233692,-0.0344091,0.4751812,0.0038605
295,0.1373276,0.0585794,-0.1186694,-0.0303807,-0.0218204,0.0337377,-0.0283665,0.5168078,-0.002182
296,0.1377931,0.0622721,-0.0995346,-0.002182,-0.0234989,-0.0854353,-0.0216526,0.5429923,-0.0172885
297,0.1382586,0.063447,-0.0820783,0.0099031,-0.0250095,-0.1841306,-0.0048676,0.5476921,-0.0323949
298,0.1387241,0.0642863,-0.0686503,0.0018463,-0.0256809,-0.2588235,0.0231632,0.5376211,-0.0417945
299,0.1391897,0.0656291,-0.0553902,-0.01561,-0.0270237,-0.3298238,0.0495155,0.5137865,-0.0451514
300,0.1396552,0.0679789,-0.0419623,-0.027863,-0.0276951,-0.3914244,0.063447,0.4745098,-0.0411231
301,0.1401207,0.0699931,-0.0307164,-0.0263523,-0.0260166,-0.4271763,0.0594186,0.4281834,-0.0280308
302,0.1405862,0.0693217,-0.0240024,-0.0166171,-0.0236667,-0.4392615,0.0448157,0.3929351,-0.0082246
303,0.1410517,0.0669718,-0.0439765,-0.0102388,-0.0236667,-0.4382544,0.0293736,0.3882353,0.0072175
304,0.1415172,0.0626078,-0.0788891,-0.0149386,-0.0236667,-0.4399329,0.0129244,0.4174411,0.0105745
305,0.1419828,0.0575723,-0.0908064,-0.0303807,-0.0231632,-0.4354009,-0.0035248,0.4671244,0.0003357
306,0.1424483,0.0505226,-0.0770428,-0.0659648,-0.0246738,-0.4112306,-0.0176242,0.5225147,-0.0176242
307,0.1429138,0.043473,-0.0558938,-0.1176623,-0.0243381,-0.3680934,-0.0310521,0.5698482,-0.0359197
308,0.1433793,0.0381018,-0.0448157,-0.1566033,-0.0203098,-0.3110246,-0.043473,0.5980468,-0.0582437
309,0.1438448,0.0347448,-0.04448,-0.16701,-0.0176242,-0.2740978,-0.047837,0.6044251,-0.0844282
310,0.1443103,0.0320592,-0.0448157,-0.1626459,-0.0193027,-0.2808118,-0.0424659,0.59234,-0.1077592
311,0.1447759,0.0290379,-0.0417945,-0.1507286,-0.0216526,-0.3043107,-0.0350805,0.567834,-0.1200122
312,0.1452414,0.0260166,-0.0325628,-0.1294118,-0.023331,-0.31841,-0.0297093,0.5372854,-0.1223621
313,0.1457069,0.0240024,-0.0209812,-0.1064164,-0.0236667,-0.3068284,-0.0216526,0.4993515,-0.1216907
314,0.1461724,0.023331,-0.0072175,-0.0981918,-0.0226596,-0.2526131,-0.0011749,0.4535286,-0.1163195
315,0.1466379,0.0240024,0.0078889,-0.114641,-0.0198062,-0.1324331,0.0293736,0.3976349,-0.1005417
316,0.1471034,0.0253452,0.0198062,-0.1388113,-0.0172885,0.0656291,0.0569009,0.3298238,-0.0783856
317,0.147569,0.0287022,0.0246738,-0.1337758,-0.0176242,0.2925612,0.0694896,0.2522774,-0.0599222
318,0.1480345,0.0330663,0.0248417,-0.0918135,-0.0182956,0.4261692,0.0641184,0.16701,-0.0468299
319,0.1485,0.0357519,0.0213169,-0.0471656,-0.0179599,0.4117342,0.0466621,0.0780499,-0.0397803
320,0.1489655,0.0374304,0.0167849,-0.0283665,-0.0169528,0.3029679,0.0270237,-0.0075532,-0.0364233
321,0.149431,0.040116,0.0146029,-0.0330663,-0.0149386,0.1589532,0.0159457,-0.0867781,-0.0313878
322,0.1498966,0.0426337,0.0135958,-0.0438087,-0.0135958,0.0166171,0.0129244,-0.1599603,-0.0229953
323,0.1503621,0.04448,0.0129244,-0.0498512,-0.0135958,-0.0882887,0.0129244,-0.2272679,-0.0132601
324,0.1508276,0.0475013,0.0132601,-0.0532082,-0.0129244,-0.1522393,0.0119173,-0.2892042,-0.0077211
325,0.1512931,0.0516976,0.0139315,-0.0592508,-0.0129244,-0.1928588,0.0115816,-0.3479515,-0.0072175
326,0.1517586,0.0575723,0.0112459,-0.0679789,-0.014435,-0.2177005,0.0119173,-0.4033417,-0.0085603
327,0.1522241,0.0656291,0.0038605,-0.0783856,-0.0154421,-0.2317998,0.0129244,-0.4568856,-0.011078
328,0.1526897,0.072343,-0.0036927,-0.0896315,-0.0166171,-0.2415351,0.0146029,-0.5100938,-0.0140993
329,0.1531552,0.0750286,-0.0075532,-0.1032273,-0.0179599,-0.2502632,0.0159457,-0.5619593,-0.017792
330,0.1536207,0.0730144,-0.0082246,-0.1203479,-0.0193027,-0.2640269,0.0142672,-0.6097963,-0.023331
331,0.1540862,0.0699931,-0.0062104,-0.142504,-0.0193027,-0.2784619,0.0073854,-0.6534371,-0.0283665
332,0.1545517,0.0730144,-0.0046998,-0.1660029,-0.0182956,-0.2841688,0.0005035,-0.6930495,-0.0303807
333,0.1550172,0.0797284,-0.0048676,-0.188159,-0.0164492,-0.2771191,-0.0018463,-0.7288014,-0.0318914
334,0.1554828,0.0871138,-0.0065461,-0.209308,-0.014435,-0.2569772,-0.0011749,-0.7591821,-0.0337377
335,0.1559483,0.0936599,-0.0105745,-0.2302892,-0.0119173,-0.2220645,0.0011749,-0.7818418,-0.0364233
336,0.1564138,0.096849,-0.0129244,-0.2505989,-0.0102388,-0.1841306,0.0075532,-0.7957733,-0.0377661
337,0.1568793,0.0965133,-0.0125887,-0.2690623,-0.0092317,-0.1534142,0.0166171,-0.8026551,-0.0377661
338,0.1573448,0.0948348,-0.0102388,-0.2868544,-0.0068818,-0.1290761,0.026688,-0.8031586,-0.0370947
339,0.1578103,0.0938277,-0.0082246,-0.3049821,-0.0058747,-0.1122911,0.0302129,-0.7920806,-0.0364233
340,0.1582759,0.0911421,-0.0058747,-0.31841,-0.0062104,-0.1183337,0.0253452,-0.7705959,-0.0360876
341,0.1587414,0.0864424,-0.0052033,-0.3288167,-0.005539,-0.1347829,0.0219883,-0.7400473,-0.036759
342,0.1592069,0.0827497,-0.0072175,-0.3360342,-0.0043641,-0.1431754,0.0251774,-0.7064775,-0.0384375
343,0.1596724,0.0810712,-0.0115816,-0.3375448,-0.0041962,-0.1294118,0.0290379,-0.6717327,-0.0381018
344,0.1601379,0.079057,-0.0149386,-0.3365377,-0.0068818,-0.0887922,0.030045,-0.6354772,-0.0360876
345,0.1606034,0.0760357,-0.0149386,-0.33402,-0.0102388,-0.0265202,0.0307164,-0.6010681,-0.0327306
346,0.161069,0.0730144,-0.0135958,-0.3291524,-0.0152743,0.0448157,0.033402,-0.5690089,-0.0310521
347,0.1615345,0.0710002,-0.0102388,-0.3197528,-0.0182956,0.1122911,0.030045,-0.5349355,-0.0290379
348,0.162,0.0659648,-0.0072175,-0.3056535,-0.0162814,0.1656672,0.0219883,-0.4946517,-0.0263523
349,0.1624655,0.0527047,-0.0041962,-0.2881971,-0.0130922,0.2052796,0.0213169,-0.448661,-0.023331
350,0.162931,0.0323949,-0.0008392,-0.2734264,-0.0112459,0.2428779,0.0305486,-0.4003204,-0.0209812
351,0.1633966,0.0105745,0.0005035,-0.2670481,-0.008896,0.297261,0.043473,-0.3546654,-0.0196384
352,0.1638621,-0.0115816,-0.0018463,-0.2653696,-0.0068818,0.3503014,0.057908,-0.3224384,-0.0176242
353,0.1643276,-0.0290379,-0.0075532,-0.2586557,-0.0045319,0.3738003,0.0696574,-0.3123674,-0.0164492
354,0.1647931,-0.0414588,-0.0135958,-0.2408637,-0.0031891,0.3717861,0.0748608,-0.3257954,-0.0162814
355,0.1652586,-0.0488441,-0.0191348,-0.2130007,-0.0035248,0.3627222,0.0830854,-0.3492943,-0.0159457
356,0.1657241,-0.0552224,-0.0228275,-0.1801022,-0.0068818,0.3650721,0.093492,-0.3647364,-0.018967
357,0.1661897,-0.0609293,-0.0260166,-0.1418326,-0.0095674,0.3884031,0.0889601,-0.3650721,-0.0263523
358,0.1666552,-0.0639506,-0.0292058,-0.1008774,-0.0077211,0.4248264,0.0663005,-0.353994,-0.033402
359,0.1671207,-0.0681468,-0.0303807,-0.0565652,-0.0028534,0.4651102,0.0407874,-0.3422446,-0.0391089
360,0.1675862,-0.0793927,-0.0270237,-0.0109102,0.0018463,0.5047227,0.0238346,-0.3351949,-0.0498512
361,0.1680517,-0.093492,-0.0226596,0.033402,0.002182,0.5443351,0.0179599,-0.3288167,-0.0626078
362,0.1685172,-0.1075914,-0.0203098,0.0746929,-0.0015106,0.582269,0.0293736,-0.3165637,-0.0673075
363,0.1689828,-0.1210193,-0.018967,0.1139696,-0.0035248,0.6175174,0.0656291,-0.3002823,-0.0605936
364,0.1694483,-0.1317617,-0.0169528,0.1512322,-0.0031891,0.6567941,0.1149767,-0.2848402,-0.0525368
365,0.1699138,-0.1398184,-0.01561,0.1824521,-0.0035248,0.6846571,0.1431754,-0.2704051,-0.0493477
366,0.1703793,-0.1386435,-0.0129244,0.209308,-0.0035248,0.6784466,0.1431754,-0.2566415,-0.0488441
367,0.1708448,-0.1210193,-0.008896,0.2348211,-0.0035248,0.6433661,0.1388113,-0.2469062,-0.047837
368,0.1713103,-0.090135,-0.005539,0.25832,-0.0075532,0.6077821,0.1629816,-0.2344854,-0.0471656
369,0.1717759,-0.0639506,-0.002182,0.2784619,-0.0115816,0.5819333,0.2203861,-0.2138399,-0.0485084
370,0.1722414,-0.0540475,0.0005035,0.2945754,-0.0135958,0.5517205,0.2438849,-0.1844663,-0.0518654
371,0.1727069,-0.0560616,0.0010071,0.3076677,-0.0146029,0.5053941,0.1905089,-0.1488823,-0.0491798
372,0.1731724,-0.0592508,-0.0001678,0.3205921,-0.0149386,0.4367437,0.1203479,-0.1092699,-0.0381018
373,0.1736379,-0.0585794,0.002182,0.3348592,-0.0162814,0.3543297,0.093492,-0.0642863,-0.0283665
374,0.1741034,-0.0538796,0.0063783,0.3489586,-0.0179599,0.2762799,0.1018845,-0.0102388,-0.0219883
375,0.174569,-0.0471656,0.0092317,0.3603723,-0.0186313,0.2079652,0.1027237,0.0451514,-0.0169528
376,0.1750345,-0.0421302,0.0105745,0.3684291,-0.0171206,0.1505608,0.085771,0.0944991,-0.0135958
377,0.1755,-0.0397803,0.0119173,0.3727932,-0.0157778,0.0938277,0.0669718,0.1327687,-0.0135958
378,0.1759655,-0.040116,0.014435,0.3724575,-0.0149386,0.0303807,0.0495155,0.1542535,-0.0169528
379,0.176431,-0.0381018,0.0159457,0.3704433,-0.0142672,-0.0317235,0.0265202,0.156939,-0.0246738
380,0.1768966,-0.0305486,0.0152743,0.3677577,-0.0129244,-0.085771,-0.0008392,0.1438468,-0.0344091
381,0.1773621,-0.0221561,0.0151064,0.3627222,-0.0107424,-0.1347829,-0.0273594,0.1320974,-0.0431373
382,0.1778276,-0.0171206,0.0172885,0.353994,-0.0095674,-0.1989014,-0.0522011,0.1284047,-0.0491798
383,0.1782931,-0.0139315,0.018967,0.3435874,-0.0095674,-0.2922255,-0.0726787,0.1206836,-0.0532082
384,0.1787586,-0.0068818,0.0193027,0.3338521,-0.0095674,-0.403006,-0.0897993,0.1025559,-0.0538796
385,0.1792241,0.0030213,0.0176242,0.3231098,-0.0082246,-0.5178149,-0.1049058,0.082414,-0.0528725
386,0.1796897,0.0125887,0.0166171,0.3120317,-0.0072175,-0.6158389,-0.1176623,0.0814069,-0.0522011
387,0.1801552,0.0199741,0.0166171,0.3004501,-0.005539,-0.680293,-0.128069,0.1096056,-0.0505226
388,0.1806207,0.0256809,0.01561,0.286183,-0.0041962,-0.715877,-0.1364614,0.1453574,-0.0488441
389,0.1810862,0.0298772,0.0146029,0.2710765,-0.0025177,-0.7511254,-0.1438468,0.1649958,-0.0486763
390,0.1815517,0.0344091,0.0151064,0.2599985,-0.0003357,-0.7974517,-0.1592889,0.1728847,-0.047837
391,0.1820172,0.0394446,0.0151064,0.2509346,0.0011749,-0.8476387,-0.1846342,0.1750668,-0.0485084
392,0.1824828,0.0428016,0.0119173,0.2401923,0.0018463,-0.8944686,-0.2086366,0.173724,-0.0498512
393,0.1829483,0.0448157,0.0045319,0.2267643,0.0018463,-0.9240101,-0.2230716,0.1905089,-0.0528725
394,0.1834138,0.0495155,-0.0045319,0.2099794,-0.0008392,-0.9273671,-0.2301213,0.2398566,-0.057908
395,0.1838793,0.06009,-0.0115816,0.1918517,-0.0045319,-0.9151141,-0.2314641,0.3153887,-0.0610971
396,0.1843448,0.0710002,-0.0152743,0.1789273,-0.0078889,-0.8995041,-0.2311284,0.3976349,-0.0629435
397,0.1848103,0.079057,-0.0179599,0.1690242,-0.0099031,-0.8783551,-0.2324712,0.4704814,-0.0649577
398,0.1852759,0.0862745,-0.0209812,0.160296,-0.0099031,-0.8474708,-0.2364996,0.5248646,-0.0659648
399,0.1857414,0.0928206,-0.0256809,0.1475395,-0.0095674,-0.8118868,-0.2432136,0.5570916,-0.0663005
400,0.1862069,0.0983597,-0.0315557,0.1290761,-0.008896,-0.7840238,-0.2509346,0.5661555,-0.0663005
401,0.1866724,0.1018845,-0.0357519,0.1099413,-0.0082246,-0.7553216,-0.2554665,0.56112,-0.0666361
402,0.1871379,0.1032273,-0.0370947,0.0958419,-0.0068818,-0.7098344,-0.2569772,0.5508812,-0.0656291
403,0.1876034,0.1055772,-0.0381018,0.0849317,-0.005539,-0.6450446,-0.2593271,0.5307393,-0.064622
404,0.188069,0.1106126,-0.040116,0.0750286,-0.0058747,-0.5718624,-0.261677,0.4912947,-0.064622
405,0.1885345,0.1139696,-0.0404517,0.0649577,-0.0062104,-0.504387,-0.265034,0.4348974,-0.0649577
406,0.189,0.1126268,-0.0396124,0.0558938,-0.0060426,-0.4463111,-0.2687266,0.3751431,-0.0639506
407,0.1894655,0.1079271,-0.0404517,0.0464942,-0.005539,-0.3761501,-0.2690623,0.3271382,-0.0595865
408,0.189931,0.1005417,-0.0428016,0.0381018,-0.0045319,-0.2673838,-0.2640269,0.2964218,-0.0522011
409,0.1903966,0.0921492,-0.0458228,0.0290379,-0.0043641,-0.1366293,-0.2546273,0.2757763,-0.0473335
410,0.1908621,0.0807355,-0.0481727,0.0179599,-0.0048676,-0.008896,-0.2450599,0.2532845,-0.0454871
411,0.1913276,0.0696574,-0.0498512,0.0065461,-0.0075532,0.1347829,-0.237171,0.2314641,-0.04448
412,0.1917931,0.0636149,-0.0488441,-0.0062104,-0.0095674,0.285008,-0.230457,0.2150149,-0.043473
413,0.1922586,0.061265,-0.0446479,-0.018967,-0.0095674,0.418616,-0.2217288,0.1994049,-0.0428016
414,0.1927241,0.0595865,-0.0404517,-0.0323949,-0.0082246,0.5287251,-0.2128328,0.1844663,-0.0426337
415,0.1931897,0.0553902,-0.0391089,-0.0451514,-0.005539,0.6161746,-0.2044404,0.1727169,-0.0412909
416,0.1936552,0.049012,-0.0381018,-0.0562295,-0.0008392,0.6873426,-0.1985657,0.1616388,-0.0384375
417,0.1941207,0.042298,-0.0347448,-0.0649577,0.0036927,0.7252766,-0.1921874,0.1475395,-0.0342412
418,0.1945862,0.0357519,-0.0330663,-0.0730144,0.0045319,0.7044633,-0.1807736,0.1292439,-0.0276951
419,0.1950517,0.0293736,-0.0330663,-0.0830854,0.0030213,0.6470588,-0.1629816,0.1055772,-0.0219883
420,0.1955172,0.0236667,-0.03122,-0.093492,0.0038605,0.6020752,-0.1461967,0.0770428,-0.0209812
421,0.1959828,0.0179599,-0.0283665,-0.1025559,0.0036927,0.5829404,-0.1331044,0.0458228,-0.0236667
422,0.1964483,0.0119173,-0.024506,-0.1109483,0.0008392,0.5537346,-0.1233692,0.01561,-0.0253452
423,0.1969138,0.0078889,-0.0182956,-0.1169909,-0.0028534,0.504387,-0.1153124,-0.0119173,-0.0246738
424,0.1973793,0.0038605,-0.0130922,-0.1225299,-0.0082246,0.4493324,-0.1059129,-0.0354162,-0.0223239
425,0.1978448,0.0005035,-0.0087282,-0.1292439,-0.0130922,0.4050202,-0.093492,-0.056733,-0.0196384
426,0.1983103,-0.0008392,-0.0043641,-0.1374685,-0.0172885,0.3845426,-0.0788891,-0.0773785,-0.0171206
427,0.1987759,-0.0001678,-0.0015106,-0.1441825,-0.0203098,0.3754788,-0.0639506,-0.0948348,-0.0139315
428,0.1992414,0.0015106,-0.002182,-0.1475395,-0.0223239,0.3588617,-0.0518654,-0.1065843,-0.012253
429,0.1997069,0.0025177,-0.0028534,-0.149218,-0.0243381,0.3110246,-0.0411231,-0.1136339,-0.0135958
430,0.2001724,0.0035248,-0.0025177,-0.1485466,-0.0273594,0.2066224,-0.0310521,-0.1225299,-0.0149386
431,0.2006379,0.0045319,-0.0025177,-0.1473716,-0.0323949,0.0627756,-0.0209812,-0.1371328,-0.01561
432,0.2011034,0.0048676,-0.0025177,-0.1478752,-0.0372625,-0.0840925,-0.0129244,-0.1586175,-0.0142672
433,0.201569,0.0045319,-0.0001678,-0.1478752,-0.0421302,-0.207126,-0.0045319,-0.1824521,-0.0115816
434,0.2020345,0.002182,0.0038605,-0.1472038,-0.0438087,-0.3127031,0.0045319,-0.2062867,-0.0105745
435,0.2025,-0.0030213,0.0072175,-0.1451896,-0.0438087,-0.4077058,0.012253,-0.2210575,-0.0087282
436,0.2029655,-0.0085603,0.0099031,-0.1411612,-0.0441444,-0.4776989,0.0184634,-0.2314641,-0.0072175
437,0.203431,-0.012253,0.0129244,-0.1351186,-0.0464942,-0.5092546,0.0246738,-0.2479133,-0.0068818
438,0.2038966,-0.01561,0.01561,-0.1279011,-0.0491798,-0.5253681,0.0313878,-0.2690623,-0.0082246
439,0.2043621,-0.0179599,0.0172885,-0.119173,-0.0495155,-0.5463493,0.0359197,-0.2892042,-0.0102388
440,0.2048276,-0.018967,0.0166171,-0.1143053,-0.0498512,-0.5486992,0.0409552,-0.303975,-0.0095674
441,0.2052931,-0.0218204,0.0152743,-0.1129625,-0.0505226,-0.5144579,0.04448,-0.3143816,-0.0072175
442,0.2057586,-0.0297093,0.0142672,-0.1111162,-0.051194,-0.4755169,0.0431373,-0.3254597,-0.0048676
443,0.2062241,-0.0438087,0.01561,-0.1070878,-0.0505226,-0.452018,0.0421302,-0.336202,-0.0028534
444,0.2066897,-0.0663005,0.0172885,-0.0998703,-0.0485084,-0.4214694,0.0441444,-0.3419089,-0.0023499
445,0.2071552,-0.0929885,0.0199741,-0.0914778,-0.043473,-0.364065,0.0471656,-0.3432517,-0.0035248
446,0.2076207,-0.1143053,0.0243381,-0.0874495,-0.036759,-0.2868544,0.0508583,-0.3422446,-0.0052033
447,0.2080862,-0.124712,0.026688,-0.0899672,-0.030045,-0.2066224,0.0555581,-0.3466087,-0.0065461
448,0.2085517,-0.1270619,0.030045,-0.094667,-0.023331,-0.1310903,0.0616007,-0.3550011,-0.0045319
449,0.2090172,-0.1243763,0.033402,-0.0990311,-0.0186313,-0.051194,0.0713359,-0.353994,-0.0001678
450,0.2094828,-0.1183337,0.0340734,-0.1028916,-0.0166171,0.0325628,0.0797284,-0.346273,0.0018463
451,0.2099483,-0.1062486,0.0347448,-0.1049058,-0.0159457,0.1136339,0.0842603,-0.3499657,-0.0001678
452,0.2104138,-0.0887922,0.0347448,-0.1082628,-0.0135958,0.1851377,0.0847639,-0.3734646,-0.0041962
453,0.2108793,-0.0693217,0.0344091,-0.1153124,-0.011078,0.2495918,0.0842603,-0.403006,-0.005539
454,0.2113448,-0.054551,0.0340734,-0.1270619,-0.0085603,0.3100175,0.0814069,-0.4177768,-0.0052033
455,0.2118103,-0.0458228,0.0330663,-0.1451896,-0.0082246,0.3660792,0.0773785,-0.4083772,-0.0052033
456,0.2122759,-0.0394446,0.030045,-0.1599603,-0.0072175,0.4117342,0.0733501,-0.3795071,-0.0058747
457,0.2127414,-0.0323949,0.0293736,-0.1606317,-0.0058747,0.4436255,0.0710002,-0.3409018,-0.0077211
458,0.2132069,-0.0236667,0.0303807,-0.1532464,-0.0041962,0.4684672,0.0661326,-0.3022965,-0.0099031
459,0.2136724,-0.0159457,0.0320592,-0.1451896,-0.0018463,0.4879377,0.0585794,-0.2704051,-0.0125887
460,0.2141379,-0.0085603,0.0327306,-0.1364614,-0.0001678,0.4993515,0.0500191,-0.2519417,-0.0142672
461,0.2146034,-0.0001678,0.0327306,-0.1206836,0.0018463,0.5003586,0.0433051,-0.2487526,-0.0152743
462,0.215069,0.008896,0.0313878,-0.1017166,0.0045319,0.4938125,0.0391089,-0.2563058,-0.0157778
463,0.2155345,0.0166171,0.0285344,-0.0897993,0.005539,0.4771954,0.036759,-0.2636912,-0.01561
464,0.216,0.0203098,0.018967,-0.0887922,0.0031891,0.4513466,0.0374304,-0.2623484,-0.0146029
465,0.2164655,0.0226596,0.0099031,-0.0884565,-0.0008392,0.4254978,0.0446479,-0.2485847,-0.0169528
466,0.216931,0.0273594,0.0092317,-0.0793927,-0.0038605,0.4036774,0.0520333,-0.2250858,-0.018967
467,0.2173966,0.0360876,0.012253,-0.0629435,-0.0041962,0.3795071,0.0548867,-0.1962158,-0.0203098
468,0.2178621,0.0468299,0.0162814,-0.0485084,-0.0041962,0.3469444,0.0515297,-0.1660029,-0.0204776
469,0.2183276,0.0555581,0.0226596,-0.043473,-0.0041962,0.3046464,0.0414588,-0.1468681,-0.0209812
470,0.2187931,0.064622,0.0275273,-0.0461585,-0.002182,0.2593271,0.0310521,-0.1428397,-0.0223239
471,0.2192586,0.0767071,0.0270237,-0.0498512,-0.0001678,0.2234073,0.0261845,-0.1379721,-0.0243381
472,0.2197241,0.0884565,0.0213169,-0.0505226,0.0018463,0.2077974,0.0240024,-0.1169909,-0.0270237
473,0.2201897,0.0955062,0.0159457,-0.0493477,0.002182,0.2180362,0.0223239,-0.0807355,-0.0303807
474,0.2206552,0.093492,0.0132601,-0.0453193,0.0025177,0.2348211,0.0221561,-0.0421302,-0.0323949
475,0.2211207,0.0854353,0.0125887,-0.0404517,0.0035248,0.248249,0.0246738,-0.0099031,-0.0330663
476,0.2215862,0.0777142,0.0112459,-0.0392767,0.0025177,0.2579843,0.0251774,0.0129244,-0.0340734
477,0.2220517,0.072343,0.008896,-0.0451514,0.0001678,0.2532845,0.0172885,0.0307164,-0.0374304
478,0.2225172,0.0706645,0.0075532,-0.051194,-0.0020142,0.2317998,0.0011749,0.0488441,-0.0417945
479,0.2229828,0.0733501,0.0062104,-0.0508583,-0.0031891,0.1997406,-0.01561,0.0616007,-0.0411231
480,0.2234483,0.0800641,0.0025177,-0.0454871,-0.0045319,0.165835,-0.0256809,0.0622721,-0.0384375
481,0.2239138,0.0884565,-0.0008392,-0.0421302,-0.0068818,0.1253834,-0.0260166,0.0582437,-0.036759
482,0.2243793,0.0924849,-0.0001678,-0.0438087,-0.0109102,0.0770428,-0.018967,0.0605936,-0.0350805
483,0.2248448,0.0911421,0.0001678,-0.04448,-0.0132601,0.0280308,-0.0062104,0.0763714,-0.0330663
484,0.2253103,0.0911421,-0.0016785,-0.04448,-0.0125887,-0.0142672,0.008896,0.0978561,-0.0323949
485,0.2257759,0.0916457,-0.0046998,-0.04448,-0.0119173,-0.0518654,0.0179599,0.1059129,-0.0323949
486,0.2262414,0.0904707,-0.0070497,-0.0448157,-0.0112459,-0.0847639,0.0213169,0.0991989,-0.0350805
487,0.2267069,0.0839246,-0.0104067,-0.0461585,-0.0099031,-0.1149767,0.0243381,0.0929885,-0.0370947
488,0.2271724,0.0743572,-0.01561,-0.0471656,-0.0109102,-0.1438468,0.030045,0.0965133,-0.0381018
489,0.2276379,0.0710002,-0.0236667,-0.0454871,-0.014435,-0.1599603,0.0370947,0.1065843,-0.0387732
490,0.2281034,0.0777142,-0.0318914,-0.0417945,-0.0169528,-0.1529107,0.0438087,0.1143053,-0.0406195
491,0.228569,0.0871138,-0.0354162,-0.0364233,-0.0179599,-0.1317617,0.0493477,0.1173266,-0.0412909
492,0.2290345,0.093492,-0.0360876,-0.0307164,-0.0176242,-0.1082628,0.0522011,0.1183337,-0.0397803
493,0.2295,0.0958419,-0.036759,-0.0276951,-0.017792,-0.0871138,0.0500191,0.1183337,-0.0374304
494,0.2299655,0.0923171,-0.0369268,-0.0283665,-0.018967,-0.0713359,0.0391089,0.1178302,-0.0384375
495,0.230431,0.0837568,-0.036759,-0.0290379,-0.0196384,-0.0219883,0.0209812,0.1153124,-0.0419623
496,0.2308966,0.073518,-0.0372625,-0.0303807,-0.0209812,0.0834211,0.0025177,0.1153124,-0.0448157
497,0.2313621,0.0676432,-0.0350805,-0.0370947,-0.0203098,0.1609674,-0.0082246,0.1211872,-0.0461585
498,0.2318276,0.0676432,-0.0283665,-0.0471656,-0.017792,0.1515679,-0.0092317,0.1290761,-0.0475013
499,0.2322931,0.0693217,-0.0216526,-0.0540475,-0.01561,0.0958419,-0.005539,0.1386435,-0.0464942
500,0.2327586,0.0609293,-0.0176242,-0.0565652,-0.0142672,0.0616007,-0.0025177,0.1495537,-0.0441444
501,0.2332241,0.0411231,-0.0162814,-0.0538796,-0.0125887,0.0649577,-0.0015106,0.1607996,-0.0424659
502,0.2336897,0.0199741,-0.0146029,-0.043473,-0.0112459,0.0803998,-0.0001678,0.1722133,-0.0421302
503,0.2341552,-0.0023499,-0.0129244,-0.0297093,-0.0109102,0.0736858,0.0031891,0.1851377,-0.0417945
504,0.2346207,-0.023331,-0.0115816,-0.0176242,-0.0104067,0.0310521,0.0085603,0.1999084,-0.0404517
505,0.2350862,-0.0421302,-0.0115816,-0.0095674,-0.0102388,-0.0223239,0.0075532,0.2128328,-0.0404517
506,0.2355517,-0.0619364,-0.0135958,-0.0095674,-0.0112459,-0.0594186,-0.0041962,0.2180362,-0.0412909
507,0.2360172,-0.0807355,-0.0152743,-0.0166171,-0.0112459,-0.0773785,-0.0176242,0.2103151,-0.0406195
508,0.2364828,-0.085771,-0.01561,-0.0250095,-0.0095674,-0.0780499,-0.0253452,0.185977,-0.036759
509,0.2369483,-0.0659648,-0.01561,-0.0303807,-0.008896,-0.0616007,-0.023331,0.142504,-0.033402
510,0.2374138,-0.0246738,-0.0162814,-0.0327306,-0.0095674,-0.0404517,-0.0172885,0.0951705,-0.030045
511,0.2378793,0.0182956,-0.0176242,-0.0354162,-0.008896,-0.023331,-0.0176242,0.0746929,-0.0287022
512,0.2383448,0.0381018,-0.018967,-0.0377661,-0.0068818,-0.0119173,-0.0236667,0.0864424,-0.0313878
513,0.2388103,0.0290379,-0.0223239,-0.0384375,-0.0068818,-0.012253,-0.0270237,0.1099413,-0.0337377
514,0.2392759,0.0041962,-0.0258488,-0.0372625,-0.0077211,-0.0258488,-0.027863,0.131426,-0.0342412
515,0.2397414,-0.0229953,-0.0283665,-0.0357519,-0.0085603,-0.0451514,-0.0305486,0.1566033,-0.0340734
516,0.2402069,-0.0446479,-0.0310521,-0.0340734,-0.008896,-0.0605936,-0.0397803,0.1851377,-0.0337377
517,0.2406724,-0.0594186,-0.0354162,-0.033402,-0.0085603,-0.0676432,-0.0508583,0.207126,-0.0337377
518,0.2411379,-0.0713359,-0.0404517,-0.0323949,-0.0082246,-0.0686503,-0.0552224,0.2046082,-0.0325628
519,0.2416034,-0.0797284,-0.0417945,-0.0327306,-0.0083925,-0.0673075,-0.0553902,0.1748989,-0.0310521
520,0.242069,-0.0800641,-0.0417945,-0.0347448,-0.0109102,-0.0659648,-0.0585794,0.1253834,-0.0297093
521,0.2425345,-0.0740215,-0.0419623,-0.0384375,-0.0130922,-0.0585794,-0.0642863,0.068986,-0.0297093
522,0.243,-0.0622721,-0.0438087,-0.0391089,-0.0129244,-0.0475013,-0.0694896,0.0330663,-0.0297093
523,0.2434655,-0.04448,-0.0458228,-0.0352483,-0.0115816,-0.0404517,-0.0746929,0.024506,-0.0290379
524,0.243931,-0.024506,-0.0458228,-0.0303807,-0.0105745,-0.0384375,-0.0780499,0.0330663,-0.0253452
525,0.2443966,-0.0075532,-0.0448157,-0.0263523,-0.0095674,-0.0397803,-0.0767071,0.0501869,-0.0203098
526,0.2448621,0.0030213,-0.04448,-0.0256809,-0.0087282,-0.0404517,-0.0696574,0.0632792,-0.0182956
527,0.2453276,0.0112459,-0.0458228,-0.0287022,-0.008896,-0.0391089,-0.061265,0.0683146,-0.0193027
528,0.2457931,0.0213169,-0.0469978,-0.0330663,-0.0082246,-0.0374304,-0.0585794,0.066804,-0.0206455
529,0.2462586,0.0320592,-0.0454871,-0.0347448,-0.0068818,-0.0357519,-0.0632792,0.0642863,-0.0219883
530,0.2467241,0.036759,-0.043473,-0.0330663,-0.0043641,-0.0357519,-0.0713359,0.0659648,-0.0213169
531,0.2471897,0.0407874,-0.0417945,-0.0310521,-0.0005035,-0.0360876,-0.0780499,0.0674754,-0.0206455
532,0.2476552,0.047837,-0.0394446,-0.0303807,0.002182,-0.0372625,-0.0849317,0.0649577,-0.0226596
533,0.2481207,0.0605936,-0.0381018,-0.0283665,0.0028534,-0.0384375,-0.0877852,0.0609293,-0.0256809
534,0.2485862,0.0743572,-0.0394446,-0.0263523,0.0018463,-0.0387732,-0.0861067,0.057908,-0.0283665
535,0.2490517,0.0850996,-0.0397803,-0.026688,0.0011749,-0.0392767,-0.0834211,0.0548867,-0.0290379
536,0.2495172,0.0896315,-0.0404517,-0.0270237,-0.0010071,-0.0438087,-0.0775463,0.0520333,-0.0270237
537,0.2499828,0.0876173,-0.0417945,-0.0246738,-0.0048676,-0.0528725,-0.0693217,0.0471656,-0.0273594
538,0.2504483,0.0850996,-0.0424659,-0.0216526,-0.008896,-0.0594186,-0.0622721,0.0421302,-0.0290379
539,0.2509138,0.0854353,-0.04448,-0.0203098,-0.012253,-0.0626078,-0.0569009,0.0407874,-0.0310521
540,0.2513793,0.0866102,-0.0458228,-0.0209812,-0.0124208,-0.0656291,-0.0495155,0.0454871,-0.0290379
541,0.2518448,0.0856031,-0.04448,-0.0204776,-0.0105745,-0.0730144,-0.0384375,0.0540475,-0.0253452
542,0.2523103,0.0849317,-0.0429694,-0.0186313,-0.0077211,-0.0854353,-0.0290379,0.0562295,-0.0219883
543,0.2527759,0.0864424,-0.0417945,-0.01561,-0.0035248,-0.0983597,-0.0226596,0.0475013,-0.0216526
544,0.2532414,0.0877852,-0.0411231,-0.012253,0.0018463,-0.1097734,-0.0182956,0.0384375,-0.0243381
545,0.2537069,0.085771,-0.0411231,-0.0075532,0.0045319,-0.1223621,-0.0176242,0.0344091,-0.0276951
546,0.2541724,0.0803998,-0.0406195,-0.0065461,0.0025177,-0.1347829,-0.0186313,0.03122,-0.0290379
547,0.2546379,0.0750286,-0.0387732,-0.0102388,-0.002182,-0.1445182,-0.0184634,0.0327306,-0.0297093
548,0.2551034,0.0699931,-0.0377661,-0.0151064,-0.0065461,-0.1529107,-0.0176242,0.0446479,-0.0303807
549,0.255569,0.0595865,-0.0397803,-0.0169528,-0.012253,-0.1587854,-0.0162814,0.0595865,-0.0297093
550,0.2560345,0.0448157,-0.0417945,-0.0146029,-0.0182956,-0.1607996,-0.0115816,0.0683146,-0.0276951
551,0.2565,0.0344091,-0.0424659,-0.0142672,-0.0209812,-0.1616388,-0.0011749,0.0793927,-0.0250095
552,0.2569655,0.033402,-0.0433051,-0.0193027,-0.0206455,-0.163653,0.0135958,0.0914778,-0.0219883
553,0.257431,0.0421302,-0.043473,-0.0250095,-0.0219883,-0.1693599,0.0260166,0.0931563,-0.018967
554,0.2578966,0.0538796,-0.0424659,-0.0293736,-0.0260166,-0.1767453,0.0287022,0.0830854,-0.0193027
555,0.2583621,0.0656291,-0.0407874,-0.0307164,-0.030045,-0.1856413,0.0219883,0.0688182,-0.0191348
556,0.2588276,0.0773785,-0.0414588,-0.0283665,-0.0330663,-0.1962158,0.0172885,0.0575723,-0.0169528
557,0.2592931,0.0867781,-0.0419623,-0.0216526,-0.0337377,-0.2032654,0.0172885,0.0481727,-0.0152743
558,0.2597586,0.0931563,-0.0424659,-0.0119173,-0.0357519,-0.202594,0.0159457,0.040116,-0.0162814
559,0.2602241,0.0978561,-0.0417945,-0.0065461,-0.0382696,-0.1965515,0.0115816,0.0428016,-0.0186313
560,0.2606897,0.0955062,-0.0411231,-0.0068818,-0.0396124,-0.1888304,0.0070497,0.0622721,-0.0199741
561,0.2611552,0.0837568,-0.0404517,-0.0057069,-0.0411231,-0.1831235,0.0077211,0.0803998,-0.0223239
562,0.2616207,0.0669718,-0.040116,-0.0028534,-0.0397803,-0.1790951,0.0142672,0.0814069,-0.0243381
563,0.2620862,0.0481727,-0.0381018,-0.0058747,-0.0359197,-0.1723812,0.0213169,0.0688182,-0.0255131
564,0.2625517,0.0317235,-0.0340734,-0.0129244,-0.0318914,-0.1646601,0.0240024,0.0641184,-0.0256809
565,0.2630172,0.0203098,-0.0318914,-0.0182956,-0.030045,-0.1529107,0.0229953,0.0746929,-0.0270237
566,0.2634828,0.0142672,-0.0323949,-0.0226596,-0.0287022,-0.1362936,0.0209812,0.0891279,-0.0270237
567,0.2639483,0.0125887,-0.0323949,-0.0310521,-0.0263523,-0.1205158,0.0206455,0.1005417,-0.0263523
568,0.2644138,0.0132601,-0.0303807,-0.0377661,-0.0240024,-0.1119554,0.0209812,0.1092699,-0.0261845
569,0.2648793,0.0159457,-0.0290379,-0.0364233,-0.0223239,-0.1116197,0.0209812,0.1028916,-0.0251774
570,0.2653448,0.0142672,-0.0276951,-0.0290379,-0.0209812,-0.1132982,0.0206455,0.0696574,-0.0236667
571,0.2658103,-0.0001678,-0.026688,-0.0199741,-0.0223239,-0.1119554,0.023331,0.0310521,-0.0216526
572,0.2662759,-0.0186313,-0.0263523,-0.0115816,-0.0270237,-0.1089342,0.0307164,-0.002182,-0.0193027
573,0.2667414,-0.0276951,-0.0283665,-0.005539,-0.0307164,-0.1096056,0.0387732,-0.0399481,-0.0199741
574,0.2672069,-0.0270237,-0.0290379,-0.0038605,-0.0276951,-0.1178302,0.0396124,-0.0820783,-0.0218204
575,0.2676724,-0.0263523,-0.0273594,-0.0035248,-0.0196384,-0.1290761,0.033402,-0.1126268,-0.0219883
576,0.2681379,-0.0248417,-0.0256809,-0.0028534,-0.014435,-0.1346151,0.0280308,-0.1210193,-0.0213169
577,0.2686034,-0.0182956,-0.0229953,-0.0005035,-0.0140993,-0.128069,0.0263523,-0.0956741,-0.0209812
578,0.269069,-0.0132601,-0.0203098,0.0035248,-0.0182956,-0.1096056,0.0273594,-0.0431373,-0.0218204
579,0.2695345,-0.0236667,-0.0176242,0.0050355,-0.0223239,-0.0894636,0.0258488,0.0065461,-0.0243381
580,0.27,-0.043473,-0.01561,0.0005035,-0.0253452,-0.0770428,0.023331,0.0407874,-0.0253452
581,0.2704655,-0.0565652,-0.0159457,-0.0102388,-0.0243381,-0.0743572,0.0196384,0.073518,-0.0246738
582,0.270931,-0.0659648,-0.0179599,-0.0219883,-0.0209812,-0.0775463,0.0152743,0.1005417,-0.023331
583,0.2713966,-0.0777142,-0.0191348,-0.0285344,-0.0184634,-0.0847639,0.0115816,0.1022202,-0.0219883
584,0.2718621,-0.0827497,-0.0182956,-0.0260166,-0.0152743,-0.0916457,0.0099031,0.0884565,-0.0219883
585,0.2723276,-0.0733501,-0.0176242,-0.0182956,-0.0105745,-0.090135,0.0105745,0.0787213,-0.0229953
586,0.2727931,-0.0629435,-0.01561,-0.0139315,-0.0075532,-0.0797284,0.0099031,0.0696574,-0.0224918
587,0.2732586,-0.064622,-0.0135958,-0.012253,-0.0082246,-0.0679789,0.0043641,0.0555581,-0.0229953
588,0.2737241,-0.0708324,-0.012253,-0.008896,-0.005539,-0.0592508,-0.0035248,0.0411231,-0.0250095
589,0.2741897,-0.0720073,-0.0095674,-0.0083925,-0.0015106,-0.051194,-0.0082246,0.0297093,-0.0265202
590,0.2746552,-0.0659648,-0.005539,-0.0135958,-0.0001678,-0.0384375,-0.0085603,0.0105745,-0.0270237
591,0.2751207,-0.0569009,-0.0023499,-0.0203098,-0.002182,-0.0203098,-0.0068818,-0.0176242,-0.0265202
592,0.2755862,-0.04448,-0.0001678,-0.0270237,-0.0028534,-0.0041962,-0.0063783,-0.0471656,-0.0256809
593,0.2760517,-0.0193027,0.0031891,-0.0317235,-0.002182,0.0035248,-0.0045319,-0.0716716,-0.0243381
594,0.2765172,0.0129244,0.0062104,-0.0344091,-0.0043641,0.0072175,-0.0028534,-0.0822461,-0.023331
595,0.2769828,0.0360876,0.0085603,-0.0364233,-0.0085603,0.0119173,-0.0008392,-0.0708324,-0.0231632
596,0.2774483,0.0508583,0.0105745,-0.0397803,-0.0090639,0.0193027,-0.0016785,-0.0397803,-0.0229953
597,0.2779138,0.0652934,0.0119173,-0.0417945,-0.0045319,0.0251774,-0.0082246,0.0031891,-0.0229953
598,0.2783793,0.0770428,0.0112459,-0.0357519,0.0045319,0.0263523,-0.01561,0.0458228,-0.0243381
599,0.2788448,0.0867781,0.0102388,-0.0229953,0.0119173,0.0204776,-0.0213169,0.0819104,-0.026688
600,0.2793103,0.0938277,0.0085603,-0.0112459,0.0105745,0.0129244,-0.0273594,0.1025559,-0.0273594
601,0.2797759,0.0971847,0.0068818,-0.0082246,0.0078889,0.0090639,-0.0354162,0.0919814,-0.0248417
602,0.2802414,0.0944991,0.005539,-0.0115816,0.0159457,0.0085603,-0.0431373,0.0491798,-0.0229953
603,0.2807069,0.0827497,0.0043641,-0.0149386,0.0283665,0.0078889,-0.0471656,-0.0203098,-0.0243381
604,0.2811724,0.0683146,0.0025177,-0.01561,0.0370947,0.0062104,-0.0471656,-0.0928206,-0.0283665
605,0.2816379,0.0649577,0.0015106,-0.0171206,0.0428016,0.0078889,-0.04448,-0.121355,-0.0293736
606,0.2821034,0.0844282,0.0005035,-0.0229953,0.0491798,0.0152743,-0.036759,-0.100206,-0.0297093
607,0.282569,0.117998,-0.0015106,-0.0297093,0.0532082,0.0253452,-0.0240024,-0.0699931,-0.0303807
608,0.2830345,0.1448539,-0.0041962,-0.035584,0.0471656,0.0288701,-0.0105745,-0.0599222,-0.0317235
609,0.2835,0.1478752,-0.0062104,-0.0426337,0.0330663,0.0253452,-0.0005035,-0.0621042,-0.0323949
610,0.2839655,0.1294118,-0.0068818,-0.0468299,0.0213169,0.0184634,0.0072175,-0.056733,-0.0317235
611,0.284431,0.1084306,-0.0072175,-0.0468299,0.0146029,0.0119173,0.011078,-0.0412909,-0.0290379
612,0.2848966,0.0891279,-0.0075532,-0.04448,0.0062104,0.0085603,0.0105745,-0.0344091,-0.0290379
613,0.2853621,0.0528725,-0.0075532,-0.0377661,-0.0085603,0.0105745,0.0075532,-0.0458228,-0.0323949
614,0.2858276,-0.1911803,-0.0070497,-0.0287022,-0.0285344,0.0193027,0.0035248,-0.0605936,-0.0347448
615,0.2862931,-0.5020371,-0.0082246,-0.0263523,-0.0451514,0.0292058,-0.002182,-0.0780499,-0.0337377
616,0.2867586,-0.4113985,-0.0068818,-0.0270237,-0.0532082,0.0364233,-0.0095674,-0.1005417,-0.0303807
617,0.2872241,-0.0810712,-0.0035248,-0.0283665,-0.0560616,0.0438087,-0.0176242,-0.1122911,-0.0276951
618,0.2876897,0.0616007,-0.0001678,-0.0303807,-0.0572366,0.0508583,-0.0265202,-0.0981918,-0.0270237
619,0.2881552,-0.0908064,0.0028534,-0.0330663,-0.056733,0.0384375,-0.0323949,-0.0703288,-0.0280308
620,0.2886207,-0.2474098,0.0045319,-0.0330663,-0.056733,0.0090639,-0.0364233,-0.0498512,-0.0270237
621,0.2890862,-0.2559701,0.0052033,-0.0350805,-0.0627756,-0.0451514,-0.0407874,-0.04448,-0.0263523
622,0.2895517,-0.190341,0.0065461,-0.0448157,-0.0743572,-0.1277333,-0.0431373,-0.0488441,-0.0270237
623,0.2900172,-0.1250477,0.008896,-0.0552224,-0.0867781,-0.2663767,-0.0404517,-0.0558938,-0.0283665
624,0.2904828,-0.0728466,0.0119173,-0.057908,-0.0948348,-0.5428244,-0.03122,-0.061265,-0.0297093
625,0.2909483,-0.0303807,0.0149386,-0.0518654,-0.096849,-1.0119631,-0.0159457,-0.0639506,-0.0287022
626,0.2914138,0.0045319,0.0172885,-0.04448,-0.0931563,-1.5799649,-0.0003357,-0.0602579,-0.026688
627,0.2918793,0.0387732,0.0186313,-0.0431373,-0.0854353,-2.0694133,0.008896,-0.0535439,-0.0258488
628,0.2923448,0.0696574,0.0199741,-0.0449836,-0.0740215,-2.418204,0.0063783,-0.0491798,-0.0287022
629,0.2928103,0.0914778,0.0186313,-0.04448,-0.0624399,-2.6870985,-0.0035248,-0.0421302,-0.0307164
630,0.2932759,0.1018845,0.0171206,-0.0424659,-0.0498512,-2.9079881,-0.012253,-0.0352483,-0.030045
631,0.2937414,0.1059129,0.0172885,-0.0438087,-0.0337377,-3.0348821,-0.0149386,-0.03122,-0.0290379
632,0.2942069,0.1065843,0.0193027,-0.0473335,-0.0152743,-3.0540169,-0.0102388,-0.0229953,-0.03122
633,0.2946724,0.1070878,0.0209812,-0.0486763,-0.0018463,-3.0063478,-0.0031891,-0.0119173,-0.0337377
634,0.2951379,0.1139696,0.0213169,-0.0506905,0.0058747,-2.9227588,0.0038605,-0.0139315,-0.0350805
635,0.2956034,0.1226978,0.0204776,-0.0528725,0.0132601,-2.8050965,0.0058747,-0.0391089,-0.0350805
636,0.296069,0.1220264,0.0196384,-0.0518654,0.0159457,-2.6468147,-0.0008392,-0.0713359,-0.0330663
637,0.2965345,0.1025559,0.018967,-0.047837,0.0119173,-2.4531167,-0.01561,-0.0814069,-0.0310521
638,0.297,0.061265,0.0179599,-0.0451514,0.0078889,-2.2365911,-0.0364233,-0.0558938,-0.0310521
639,0.2974655,0.0072175,0.0179599,-0.0464942,0.0082246,-2.0069734,-0.0525368,-0.0068818,-0.0317235
640,0.297931,-0.0350805,0.0179599,-0.0501869,0.0078889,-1.7708095,-0.0599222,0.0386053,-0.0323949
641,0.2983966,-0.0404517,0.0159457,-0.0565652,0.0058747,-1.5329671,-0.0595865,0.0605936,-0.0323949
642,0.2988621,-0.0068818,0.0139315,-0.0599222,0.0008392,-1.292607,-0.054551,0.0609293,-0.0317235
643,0.2993276,-0.1294118,0.0139315,-0.0555581,-0.0105745,-1.0468757,-0.0475013,0.0481727,-0.0323949
644,0.2997931,-0.2928969,0.0151064,-0.0451514,-0.0231632,-0.8011444,-0.0391089,0.0287022,-0.0320592
645,0.3002586,-0.2039368,0.0169528,-0.0350805,-0.0297093,-0.5661555,-0.0297093,0.0048676,-0.0307164
646,0.3007241,0.04448,0.0172885,-0.0323949,-0.0303807,-0.3442588,-0.0240024,-0.0320592,-0.0307164
647,0.3011897,0.2442206,0.0157778,-0.0394446,-0.0283665,-0.1307546,-0.0265202,-0.0829175,-0.0337377
648,0.3016552,0.3487907,0.0140993,-0.0491798,-0.0253452,0.0837568,-0.033402,-0.1290761,-0.0360876
649,0.3021207,0.4026703,0.012253,-0.0592508,-0.0179599,0.3012894,-0.0391089,-0.1621424,-0.0357519
650,0.3025862,0.4422827,0.0082246,-0.0699931,-0.0082246,0.5174792,-0.0438087,-0.1950408,-0.0357519
651,0.3030517,0.46981,0.005539,-0.0800641,-0.0011749,0.7289693,-0.0451514,-0.2212253,-0.0357519
652,0.3035172,0.479881,0.0052033,-0.090135,0.0010071,0.9384451,-0.0411231,-0.216022,-0.0340734
653,0.3039828,0.4805524,0.0035248,-0.1055772,0.0030213,1.1526207,-0.0327306,-0.181445,-0.0310521
654,0.3044483,0.4825666,-0.0008392,-0.1270619,0.0062104,1.3654536,-0.0250095,-0.1418326,-0.0280308
655,0.3049138,0.4835737,-0.005539,-0.1532464,0.0078889,1.5628443,-0.0182956,-0.1153124,-0.0270237
656,0.3053793,0.4688029,-0.0105745,-0.1868162,0.0052033,1.7447929,-0.0135958,-0.0981918,-0.0287022
657,0.3058448,0.4325475,-0.0162814,-0.2244144,-0.0001678,1.9062638,-0.0169528,-0.0867781,-0.0320592
658,0.3063103,0.4056916,-0.0213169,-0.2633555,-0.0016785,2.0536355,-0.0236667,-0.0760357,-0.033402
659,0.3067759,0.4140841,-0.0253452,-0.3016251,0.0048676,2.1993286,-0.0276951,-0.0636149,-0.0325628
660,0.3072414,0.4424506,-0.0297093,-0.3392233,0.0162814,2.3430076,-0.0276951,-0.0525368,-0.0307164
661,0.3077069,0.4510109,-0.0327306,-0.3761501,0.0246738,2.4772869,-0.0258488,-0.0441444,-0.0276951
662,0.3081724,0.4174411,-0.0330663,-0.4098878,0.0260166,2.5793393,-0.0243381,-0.0364233,-0.0243381
663,0.3086379,0.3647364,-0.0339055,-0.4392615,0.023331,2.6206302,-0.0186313,-0.0234989,-0.0229953
664,0.3091034,0.3298238,-0.0360876,-0.4612497,0.0196384,2.6213016,-0.0085603,-0.0018463,-0.0228275
665,0.309569,0.3185779,-0.0370947,-0.4741741,0.0146029,2.6357366,0.0005035,0.0193027,-0.0213169
666,0.3100345,0.3143816,-0.0359197,-0.4795453,0.0112459,2.6810559,0.0065461,0.0344091,-0.0193027
667,0.3105,0.3033036,-0.035584,-0.4815595,0.0085603,2.7290608,0.011078,0.0495155,-0.0196384
668,0.3109655,0.2791333,-0.0344091,-0.479881,0.0072175,2.7612879,0.0105745,0.0773785,-0.0216526
669,0.311431,0.2411994,-0.0323949,-0.4735027,0.0075532,2.7774014,0.0070497,0.1203479,-0.0243381
670,0.3118966,0.1965515,-0.0307164,-0.4615854,0.0092317,2.7727016,0.0018463,0.1723812,-0.0253452
671,0.3123621,0.1510643,-0.0290379,-0.4456397,0.0114137,2.7351034,-0.0038605,0.2207218,-0.0250095
672,0.3128276,0.1005417,-0.0256809,-0.4226444,0.0146029,2.6599069,-0.005539,0.2613413,-0.0243381
673,0.3132931,0.0451514,-0.0243381,-0.3902495,0.0164492,2.5638972,-0.0062104,0.2955825,-0.023331
674,0.3137586,-0.0095674,-0.0226596,-0.3506371,0.0129244,2.4578164,-0.0129244,0.3252918,-0.0229953
675,0.3142241,-0.0552224,-0.0196384,-0.3086748,0.0036927,2.3315938,-0.0236667,0.357351,-0.0238346
676,0.3146897,-0.10692,-0.0159457,-0.272755,-0.0062104,2.1832151,-0.0263523,0.3899138,-0.0229953
677,0.3151552,-0.1829557,-0.0129244,-0.2458991,-0.0102388,2.034165,-0.0203098,0.4187839,-0.0203098
678,0.3156207,-0.269398,-0.0075532,-0.2198825,-0.0072175,1.9012284,-0.0104067,0.4468147,-0.0184634
679,0.3160862,-0.3388876,-0.0010071,-0.1901732,-0.0028534,1.778027,-0.0031891,0.4768597,-0.0179599
680,0.3165517,-0.3865568,0.0048676,-0.1592889,-0.0018463,1.6521401,-0.0023499,0.5080797,-0.0182956
681,0.3170172,-0.4206302,0.0085603,-0.1317617,-0.0041962,1.5165179,-0.0058747,0.5372854,-0.018967
682,0.3174828,-0.4416114,0.0092317,-0.1067521,-0.0102388,1.3654536,-0.0117494,0.5607843,-0.018967
683,0.3179483,-0.4540322,0.0105745,-0.0810712,-0.0182956,1.1908904,-0.017792,0.5762264,-0.0182956
684,0.3184138,-0.4795453,0.0129244,-0.0522011,-0.0246738,0.9857786,-0.0206455,0.582269,-0.0182956
685,0.3188793,-0.5258717,0.0142672,-0.0196384,-0.0251774,0.750454,-0.0196384,0.5831083,-0.0172885
686,0.3193448,-0.5607843,0.0166171,0.0199741,-0.0186313,0.50103,-0.0169528,0.5772335,-0.0169528
687,0.3198103,-0.557763,0.0193027,0.0622721,-0.011078,0.2568093,-0.0146029,0.5570916,-0.0166171
688,0.3202759,-0.5305715,0.0206455,0.0971847,-0.0095674,0.0179599,-0.0115816,0.5241932,-0.0149386
689,0.3207414,-0.5023728,0.0216526,0.1260548,-0.0109102,-0.2042725,-0.0082246,0.483238,-0.0115816
690,0.3212069,-0.4761883,0.0243381,0.1542535,-0.0082246,-0.3976349,-0.0083925,0.437583,-0.0099031
691,0.3216724,-0.4439612,0.0246738,0.1837949,-0.002182,-0.5604486,-0.012253,0.3910887,-0.0102388
692,0.3221379,-0.4033417,0.0240024,0.2099794,0.0016785,-0.6970779,-0.0182956,0.3439231,-0.0119173
693,0.3226034,-0.364065,0.0226596,0.2321355,0.0038605,-0.8192721,-0.0256809,0.293904,-0.0159457
694,0.323069,-0.3365377,0.0206455,0.2574807,0.0020142,-0.9438163,-0.0320592,0.2391852,-0.0196384
695,0.3235345,-0.3261311,0.0179599,0.2858473,-0.0035248,-1.0284123,-0.0364233,0.1837949,-0.0224918
696,0.324,-0.3291524,0.0146029,0.3100175,-0.0075532,-1.0495613,-0.0387732,0.1354543,-0.0261845
697,0.3244655,-0.3348592,0.0105745,0.3259632,-0.0092317,-1.0754101,-0.0386053,0.0908064,-0.0283665
698,0.324931,-0.3331807,0.0078889,0.3385519,-0.0105745,-1.1187152,-0.0377661,0.0491798,-0.0276951
699,0.3253966,-0.3231098,0.0052033,0.3516442,-0.0112459,-1.1274434,-0.0354162,0.0135958,-0.0273594
700,0.3258621,-0.3118639,0.0018463,0.3620508,-0.008896,-1.07776,-0.0287022,-0.0196384,-0.0283665
701,0.3263276,-0.3029679,-0.0001678,0.3721218,-0.0035248,-1.0052491,-0.0226596,-0.0495155,-0.0310521
702,0.3267931,-0.2949111,-0.0016785,0.3831998,-0.0031891,-0.9428092,-0.0243381,-0.0770428,-0.0340734
703,0.3272586,-0.2855116,-0.0050355,0.3946136,-0.0077211,-0.880705,-0.0303807,-0.1065843,-0.036759
704,0.3277241,-0.2683909,-0.0082246,0.4026703,-0.0112459,-0.7992981,-0.0337377,-0.1367971,-0.0370947
705,0.3281897,-0.2391852,-0.011078,0.4066987,-0.0090639,-0.7011063,-0.0330663,-0.1619745,-0.0364233
706,0.3286552,-0.2062867,-0.0135958,0.4092164,-0.0090639,-0.5990539,-0.0305486,-0.1801022,-0.0364233
707,0.3291207,-0.1713741,-0.0149386,0.4140841,-0.0172885,-0.50103,-0.0293736,-0.1950408,-0.0369268
708,0.3295862,-0.1351186,-0.0162814,0.4201266,-0.0280308,-0.4110628,-0.0297093,-0.2116579,-0.036759
709,0.3300517,-0.1025559,-0.0172885,0.424155,-0.0364233,-0.3301595,-0.0297093,-0.2218967,-0.0357519
710,0.3305172,-0.0740215,-0.0159457,0.4261692,-0.0421302,-0.2657053,-0.0330663,-0.2195468,-0.0374304
711,0.3309828,-0.0471656,-0.0146029,0.4268406,-0.0458228,-0.2281071,-0.0391089,-0.2062867,-0.0392767
712,0.3314483,-0.023331,-0.0159457,0.4248264,-0.0481727,-0.2083009,-0.043473,-0.1901732,-0.0394446
713,0.3319138,-0.0045319,-0.0169528,0.4228122,-0.047837,-0.1958801,-0.04448,-0.1802701,-0.0381018
714,0.3323793,0.012253,-0.0179599,0.4201266,-0.0458228,-0.1824521,-0.0454871,-0.1801022,-0.0359197
715,0.3328448,0.026688,-0.0179599,0.4167697,-0.0451514,-0.1693599,-0.0501869,-0.1790951,-0.0354162
716,0.3333103,0.0340734,-0.0176242,0.4093843,-0.0458228,-0.1621424,-0.0535439,-0.1660029,-0.0350805
717,0.3337759,0.033402,-0.0162814,0.3979706,-0.0480049,-0.1586175,-0.0508583,-0.144686,-0.0347448
718,0.3342414,0.0273594,-0.0085603,0.3858854,-0.0542153,-0.1520714,-0.0464942,-0.139147,-0.0347448
719,0.3347069,0.0196384,-0.0015106,0.3722896,-0.0602579,-0.1399863,-0.0438087,-0.1559319,-0.0337377
720,0.3351724,0.0226596,-0.0011749,0.3576867,-0.0616007,-0.1284047,-0.0394446,-0.1844663,-0.0330663
721,0.3356379,0.0426337,-0.0058747,0.3449302,-0.0592508,-0.1257191,-0.0303807,-0.2096437,-0.0323949
722,0.3361034,0.0710002,-0.0092317,0.3311666,-0.0553902,-0.1331044,-0.0203098,-0.2202182,-0.0323949
723,0.336569,0.093492,-0.0085603,0.3132067,-0.0505226,-0.1310903,-0.0109102,-0.2163577,-0.0344091
724,0.3370345,0.1030594,-0.0075532,0.2930648,-0.0431373,-0.1116197,-0.0025177,-0.2015869,-0.0364233
725,0.3375,0.1052415,-0.0083925,0.2737621,-0.0347448,-0.0797284,0.0028534,-0.1779202,-0.036759
726,0.3379655,0.1085985,-0.0117494,0.2596628,-0.0276951,-0.0498512,0.0036927,-0.1461967,-0.0374304
727,0.338431,0.1193408,-0.0157778,0.2529488,-0.0221561,-0.0293736,-0.0001678,-0.1263905,-0.0384375
728,0.3388966,0.1346151,-0.0186313,0.2469062,-0.0203098,-0.0068818,-0.0058747,-0.1527428,-0.0384375
729,0.3393621,0.1455253,-0.021149,0.2368353,-0.0216526,0.0365911,-0.0135958,-0.2187076,-0.0360876
730,0.3398276,0.1482109,-0.0236667,0.2254215,-0.0224918,0.1032273,-0.0184634,-0.2781262,-0.0323949
731,0.3402931,0.1460288,-0.0253452,0.2116579,-0.0206455,0.1764096,-0.0176242,-0.3081712,-0.0290379
732,0.3407586,0.1404898,-0.0256809,0.1942016,-0.0209812,0.2469062,-0.0112459,-0.3083391,-0.0263523
733,0.3412241,0.131426,-0.0256809,0.1747311,-0.0246738,0.3180743,-0.0065461,-0.2809796,-0.0250095
734,0.3416897,0.1198444,-0.0258488,0.1549248,-0.0280308,0.3902495,-0.0072175,-0.2341497,-0.0229953
735,0.3421552,0.1126268,-0.0263523,0.1364614,-0.0276951,0.4580606,-0.0097353,-0.1874876,-0.0216526
736,0.3426207,0.1116197,-0.0290379,0.1193408,-0.0270237,0.5208362,-0.012253,-0.1555962,-0.0213169
737,0.3430862,0.1139696,-0.0337377,0.1059129,-0.0265202,0.5832761,-0.0169528,-0.144686,-0.0236667
738,0.3435517,0.1183337,-0.0370947,0.0955062,-0.0236667,0.6484016,-0.0246738,-0.1475395,-0.0270237
739,0.3440172,0.121355,-0.0399481,0.0844282,-0.0216526,0.7135271,-0.0305486,-0.1566033,-0.0310521
740,0.3444828,0.1216907,-0.0419623,0.072343,-0.0219883,0.7769741,-0.0283665,-0.1717098,-0.0323949
741,0.3449483,0.1230335,-0.0428016,0.0575723,-0.0229953,0.8397498,-0.0196384,-0.2024262,-0.0330663
742,0.3454138,0.1233692,-0.0414588,0.040116,-0.023331,0.8948043,-0.0072175,-0.2432136,-0.0340734
743,0.3458793,0.115816,-0.0421302,0.021149,-0.0216526,0.9436484,0.0041962,-0.2633555,-0.0330663
744,0.3463448,0.1022202,-0.0441444,0.0038605,-0.0196384,0.9881285,0.008896,-0.2628519,-0.0325628
745,0.3468103,0.0951705,-0.04448,-0.0112459,-0.0179599,1.0263981,0.0062104,-0.2677195,-0.033402
746,0.3472759,0.0931563,-0.0419623,-0.0236667,-0.0152743,1.0638285,-0.0001678,-0.2740978,-0.0323949
747,0.3477414,0.0830854,-0.0384375,-0.0344091,-0.012253,1.1049516,-0.0035248,-0.2653696,-0.0290379
748,0.3482069,0.0624399,-0.0374304,-0.0431373,-0.0099031,1.1469139,-0.0045319,-0.2408637,-0.0263523
749,0.3486724,0.0374304,-0.0381018,-0.051194,-0.0077211,1.1814908,-0.0082246,-0.2207218,-0.0243381
750,0.3491379,0.0146029,-0.0387732,-0.0602579,-0.0065461,1.2016327,-0.0125887,-0.216022,-0.0236667
751,0.3496034,-0.0028534,-0.0391089,-0.0726787,-0.0063783,1.2073396,-0.0146029,-0.2180362,-0.023331
752,0.350069,-0.0159457,-0.0394446,-0.0861067,-0.005539,1.2014649,-0.0132601,-0.2133364,-0.0240024
753,0.3505345,-0.0297093,-0.0397803,-0.0975204,-0.002182,1.1808194,-0.0171206,-0.2062867,-0.0250095
754,0.351,-0.0426337,-0.0407874,-0.1077592,0.0008392,1.1512779,-0.0283665,-0.2022583,-0.0243381
755,0.3514655,-0.0475013,-0.0404517,-0.1174945,0.0001678,1.1150225,-0.0340734,-0.2015869,-0.023331
756,0.351931,-0.0394446,-0.0387732,-0.1290761,-0.0028534,1.0727245,-0.0317235,-0.205951,-0.0223239
757,0.3523966,-0.0280308,-0.0384375,-0.1404898,-0.0062104,1.0260624,-0.0283665,-0.2217288,-0.0213169
758,0.3528621,-0.0196384,-0.0374304,-0.1502251,-0.0095674,0.9770504,-0.0307164,-0.2475776,-0.0216526
759,0.3533276,-0.0109102,-0.0370947,-0.1579461,-0.011078,0.9183032,-0.0344091,-0.2789654,-0.0219883
760,0.3537931,0.0092317,-0.0370947,-0.1626459,-0.0124208,0.8434424,-0.0337377,-0.2977646,-0.0206455
761,0.3542586,0.0414588,-0.0370947,-0.1656672,-0.0159457,0.7561608,-0.030045,-0.2903792,-0.0179599
762,0.3547241,0.0770428,-0.0344091,-0.1707027,-0.0199741,0.6584726,-0.0256809,-0.2682231,-0.0182956
763,0.3551897,0.1003738,-0.0317235,-0.1774166,-0.0229953,0.5537346,-0.0219883,-0.2440528,-0.0186313
764,0.3556552,0.111284,-0.0318914,-0.1861448,-0.0243381,0.4454719,-0.0213169,-0.2197147,-0.0186313
765,0.3561207,0.117998,-0.0317235,-0.1921874,-0.026688,0.3246204,-0.0236667,-0.1985657,-0.0194705
766,0.3565862,0.1230335,-0.0303807,-0.194873,-0.0256809,0.1864805,-0.0285344,-0.1804379,-0.0204776
767,0.3570517,0.1245441,-0.0283665,-0.1943694,-0.0203098,0.035584,-0.0330663,-0.1613031,-0.0213169
768,0.3575172,0.1218585,-0.0260166,-0.1938659,-0.0146029,-0.1230335,-0.0347448,-0.1475395,-0.0216526
769,0.3579828,0.1107805,-0.0229953,-0.1975586,-0.0129244,-0.2767834,-0.0354162,-0.1374685,-0.0206455
770,0.3584483,0.0911421,-0.0219883,-0.2029297,-0.0139315,-0.4159304,-0.0340734,-0.1260548,-0.0199741
771,0.3589138,0.0676432,-0.021149,-0.2049439,-0.0191348,-0.5406424,-0.0323949,-0.1309224,-0.0196384
772,0.3593793,0.0431373,-0.0203098,-0.2019226,-0.0256809,-0.6393378,-0.0270237,-0.1550927,-0.0196384
773,0.3598448,0.0213169,-0.0181277,-0.1968872,-0.0313878,-0.7148699,-0.0198062,-0.1794308,-0.0196384
774,0.3603103,0.0105745,-0.0139315,-0.1958801,-0.0364233,-0.7920806,-0.0157778,-0.191516,-0.0196384
775,0.3607759,0.0050355,-0.0099031,-0.1995727,-0.0347448,-0.8770123,-0.0162814,-0.1834592,-0.0203098
776,0.3612414,-0.0082246,-0.0072175,-0.2069581,-0.0250095,-0.9545586,-0.0166171,-0.1599603,-0.0209812
777,0.3617069,-0.0323949,-0.0058747,-0.2156863,-0.0125887,-1.0210269,-0.0179599,-0.1351186,-0.023331
778,0.3621724,-0.0491798,-0.0060426,-0.2177005,-0.0035248,-1.0831312,-0.0203098,-0.1176623,-0.0231632
779,0.3626379,-0.0454871,-0.0058747,-0.2106508,0.0018463,-1.1484245,-0.0191348,-0.1049058,-0.0224918
780,0.3631034,-0.026688,-0.0048676,-0.2009155,0.0078889,-1.2091859,-0.0139315,-0.0904707,-0.0229953
781,0.363569,-0.0119173,-0.0041962,-0.1935302,0.0130922,-1.2508125,-0.0072175,-0.0713359,-0.0226596
782,0.3640345,-0.0041962,-0.0030213,-0.1868162,0.0152743,-1.2788434,0.002182,-0.0464942,-0.0216526
783,0.3645,0.0082246,-0.002182,-0.1777523,0.0139315,-1.3062028,0.0072175,-0.01561,-0.0223239
784,0.3649655,0.0263523,-0.0038605,-0.1673457,0.0092317,-1.3318837,0.0011749,0.0142672,-0.0256809
785,0.365431,0.0468299,-0.0058747,-0.1639887,0.0035248,-1.3511864,-0.0075532,0.0337377,-0.0297093
786,0.3658966,0.0746929,-0.0068818,-0.1675135,-0.0015106,-1.3679713,-0.0112459,0.0424659,-0.0310521
787,0.3663621,0.0997024,-0.0075532,-0.1728847,-0.0016785,-1.3874418,-0.0115816,0.0382696,-0.0298772
788,0.3668276,0.105745,-0.0072175,-0.1762417,-0.0001678,-1.4060731,-0.0129244,0.0253452,-0.0297093
789,0.3672931,0.0856031,-0.0068818,-0.1827878,0.0016785,-1.4134585,-0.0119173,0.0125887,-0.0283665
790,0.3677586,0.043473,-0.0072175,-0.1935302,0.0010071,-1.4057374,-0.012253,0.0102388,-0.0256809
791,0.3682241,-0.005539,-0.0082246,-0.2017548,-0.002182,-1.3926452,-0.0199741,0.0132601,-0.0243381
792,0.3686897,-0.1304189,-0.008896,-0.2042725,-0.0062104,-1.38056,-0.0337377,0.0112459,-0.0263523
793,0.3691552,-0.5320821,-0.0102388,-0.202594,-0.0105745,-1.3651179,-0.0458228,0.0072175,-0.0297093
794,0.3696207,-0.8019837,-0.0102388,-0.1955444,-0.01561,-1.3458152,-0.0433051,0.0085603,-0.030045
795,0.3700862,-0.6519265,-0.0095674,-0.1834592,-0.018967,-1.3214771,-0.0287022,0.0198062,-0.0287022
796,0.3705517,-0.3748074,-0.0085603,-0.1700313,-0.0229953,-1.2862287,-0.0169528,0.0344091,-0.027863
797,0.3710172,-0.230457,-0.0078889,-0.1606317,-0.0287022,-1.2442664,-0.0167849,0.0404517,-0.0283665
798,0.3714828,-0.1921874,-0.0062104,-0.1535821,-0.0357519,-1.2033112,-0.0219883,0.0382696,-0.0287022
799,0.3719483,-0.1532464,-0.0035248,-0.1435111,-0.0407874,-1.1633631,-0.0253452,0.0374304,-0.0276951
800,0.3724138,-0.0864424,-0.002182,-0.1310903,-0.0417945,-1.1240864,-0.0263523,0.0448157,-0.0273594
801,0.3728793,-0.018967,-0.002182,-0.1226978,-0.0399481,-1.0844739,-0.0285344,0.0659648,-0.027863
802,0.3733448,0.030045,-0.002182,-0.121355,-0.036759,-1.0401617,-0.0285344,0.0971847,-0.0310521
803,0.3738103,0.0663005,-0.0018463,-0.1243763,-0.0318914,-0.9906462,-0.0219883,0.131426,-0.0339055
804,0.3742759,0.0988632,-0.0011749,-0.1253834,-0.0273594,-0.9401236,-0.0119173,0.1643244,-0.0347448
805,0.3747414,0.1320974,-0.0011749,-0.1223621,-0.023331,-0.8897688,-0.0031891,0.1858091,-0.0360876
806,0.3752069,0.1717098,-0.0008392,-0.117998,-0.0181277,-0.8400855,-0.0015106,0.1817807,-0.0382696
807,0.3756724,0.2111543,-0.0008392,-0.1149767,-0.0149386,-0.7910735,-0.008896,0.1488823,-0.0386053
808,0.3761379,0.2400244,-0.0005035,-0.1129625,-0.0135958,-0.7460899,-0.0203098,0.1025559,-0.0377661
809,0.3766034,0.2529488,-0.0001678,-0.1089342,-0.0132601,-0.6974136,-0.0285344,0.0720073,-0.0377661
810,0.377069,0.2559701,-0.0001678,-0.103563,-0.012253,-0.6383307,-0.0364233,0.070161,-0.0404517
811,0.3775345,0.2677195,0.0008392,-0.0981918,-0.0109102,-0.5799191,-0.0448157,0.0844282,-0.043473
812,0.378,0.2928969,0.0011749,-0.0928206,-0.0102388,-0.5215076,-0.0498512,0.103563,-0.0458228
813,0.3784655,0.3167315,0.0005035,-0.085771,-0.008896,-0.4540322,-0.0542153,0.1297475,-0.0471656
814,0.378931,0.3288167,0.0005035,-0.0793927,-0.0062104,-0.3936065,-0.0599222,0.1545892,-0.047837
815,0.3793966,0.3294881,0.0005035,-0.0753643,-0.0050355,-0.3523156,-0.0565652,0.1660029,-0.0475013
816,0.3798621,0.3268025,-0.0010071,-0.0741894,-0.0041962,-0.3338521,-0.0407874,0.1649958,-0.0458228
817,0.3803276,0.3274739,-0.002182,-0.0713359,-0.0031891,-0.3257954,-0.018967,0.1566033,-0.0428016
818,0.3807931,0.3315023,-0.0018463,-0.0693217,-0.0036927,-0.315053,0.0001678,0.152575,-0.0387732
819,0.3812586,0.3367056,-0.0011749,-0.0651255,-0.0062104,-0.2975967,0.0115816,0.1572747,-0.0350805
820,0.3817241,0.3388876,-0.0005035,-0.0605936,-0.008896,-0.272755,0.0099031,0.1619745,-0.0330663
821,0.3821897,0.3378805,0.0005035,-0.0565652,-0.0109102,-0.2445563,0.0038605,0.160296,-0.033402
822,0.3826552,0.3375448,0.0005035,-0.0525368,-0.0102388,-0.2217288,0.0078889,0.1562676,-0.0345769
823,0.3831207,0.3382162,0.0005035,-0.0488441,-0.0109102,-0.2034333,0.0219883,0.1544213,-0.0357519
824,0.3835862,0.3351949,0.0005035,-0.0475013,-0.012253,-0.1858091,0.0307164,0.1549248,-0.0350805
825,0.3840517,0.3294881,-0.0003357,-0.0485084,-0.0129244,-0.16701,0.0209812,0.1549248,-0.0352483
826,0.3845172,0.3190814,-0.0010071,-0.0488441,-0.0146029,-0.1495537,0.0023499,0.1552605,-0.0377661
827,0.3849828,0.3059892,-0.0008392,-0.0471656,-0.0162814,-0.13579,-0.0062104,0.1582818,-0.040116
828,0.3854483,0.2949111,0.0008392,-0.0431373,-0.0162814,-0.1339437,0.0052033,0.1633173,-0.0397803
829,0.3859138,0.282826,0.0036927,-0.0391089,-0.0149386,-0.1445182,0.0172885,0.1690242,-0.0381018
830,0.3863793,0.2657053,0.005539,-0.0379339,-0.0157778,-0.1519036,0.0176242,0.1750668,-0.0357519
831,0.3868448,0.2442206,0.0052033,-0.0394446,-0.0169528,-0.1534142,0.012253,0.1782559,-0.0337377
832,0.3873103,0.2217288,0.0035248,-0.043473,-0.0149386,-0.1514,0.0092317,0.1717098,-0.0337377
833,0.3877759,0.1968872,0.0028534,-0.0475013,-0.0109102,-0.142504,0.0109102,0.1579461,-0.0337377
834,0.3882414,0.1700313,0.0031891,-0.0464942,-0.0082246,-0.1290761,0.0117494,0.1468681,-0.0337377
835,0.3887069,0.144686,0.0038605,-0.0428016,-0.0048676,-0.1132982,0.0099031,0.1438468,-0.0350805
836,0.3891724,0.1233692,0.0038605,-0.0431373,-0.0005035,-0.0928206,0.005539,0.1438468,-0.036759
837,0.3896379,0.10692,0.0031891,-0.0491798,0.002182,-0.0674754,-0.0001678,0.1404898,-0.0360876
838,0.3901034,0.0970169,0.0025177,-0.0538796,0.0023499,-0.0421302,-0.0050355,0.1344472,-0.0317235
839,0.390569,0.0938277,0.0025177,-0.0532082,-0.0001678,-0.0182956,-0.0068818,0.1304189,-0.0270237
840,0.3910345,0.0897993,0.0025177,-0.051194,-0.002182,0.0023499,-0.0068818,0.1273976,-0.0270237
841,0.3915,0.0830854,0.0025177,-0.0491798,-0.0041962,0.0193027,-0.0072175,0.1230335,-0.0288701
842,0.3919655,0.0757,0.0018463,-0.0480049,-0.0063783,0.0352483,-0.0078889,0.117998,-0.0307164
843,0.392431,0.0696574,0.0008392,-0.047837,-0.0085603,0.0495155,-0.0075532,0.1156481,-0.0317235
844,0.3928966,0.0669718,0.0008392,-0.0458228,-0.0078889,0.0663005,-0.0068818,0.1169909,-0.0317235
845,0.3933621,0.0666361,0.0015106,-0.0454871,-0.0045319,0.0887922,-0.0075532,0.1173266,-0.0313878
846,0.3938276,0.0710002,0.0001678,-0.0454871,-0.002182,0.111284,-0.0149386,0.111284,-0.0303807
847,0.3942931,0.0802319,-0.0015106,-0.0448157,-0.0015106,0.1273976,-0.0224918,0.100206,-0.0303807
848,0.3947586,0.0864424,-0.0023499,-0.0441444,-0.0043641,0.1384756,-0.0253452,0.0866102,-0.0310521
849,0.3952241,0.0827497,-0.0035248,-0.0448157,-0.0075532,0.1488823,-0.0253452,0.073518,-0.0310521
850,0.3956897,0.0720073,-0.0048676,-0.0454871,-0.0102388,0.1639887,-0.0229953,0.0622721,-0.0317235
851,0.3961552,0.0599222,-0.0045319,-0.0461585,-0.0139315,0.1821164,-0.0198062,0.0562295,-0.0317235
852,0.3966207,0.0505226,-0.0030213,-0.0451514,-0.0186313,0.2012512,-0.0209812,0.0528725,-0.0297093
853,0.3970862,0.0428016,-0.0030213,-0.0431373,-0.0250095,0.2177005,-0.0263523,0.0481727,-0.0290379
854,0.3975517,0.0347448,-0.0035248,-0.0424659,-0.0283665,0.2220645,-0.0317235,0.043473,-0.030045
855,0.3980172,0.0246738,-0.0035248,-0.0431373,-0.026688,0.2104829,-0.0313878,0.0381018,-0.0318914
856,0.3984828,0.0114137,-0.0028534,-0.043473,-0.0250095,0.1925231,-0.0240024,0.033402,-0.0339055
857,0.3989483,-0.0093996,-0.0028534,-0.0424659,-0.0246738,0.1831235,-0.0186313,0.03122,-0.0344091
858,0.3994138,-0.0360876,-0.0035248,-0.0411231,-0.0231632,0.1821164,-0.017792,0.0292058,-0.0330663
859,0.3998793,-0.0553902,-0.0048676,-0.0397803,-0.0218204,0.1804379,-0.0162814,0.0246738,-0.0330663
860,0.4003448,-0.0609293,-0.005539,-0.0387732,-0.0229953,0.1754025,-0.0130922,0.0196384,-0.0337377
861,0.4008103,-0.0597543,-0.0068818,-0.0359197,-0.0283665,0.1680171,-0.0102388,0.0119173,-0.0337377
862,0.4012759,-0.0686503,-0.0068818,-0.0327306,-0.0344091,0.1599603,-0.0095674,0.002182,-0.0317235
863,0.4017414,-0.090135,-0.0072175,-0.0313878,-0.036759,0.156939,-0.008896,-0.0052033,-0.0297093
864,0.4022069,-0.1139696,-0.0083925,-0.0310521,-0.0323949,0.1596246,-0.0057069,-0.0092317,-0.0290379
865,0.4026724,-0.1297475,-0.0083925,-0.0292058,-0.0229953,0.1577783,-0.0011749,-0.012253,-0.0283665
866,0.4031379,-0.1367971,-0.0068818,-0.026688,-0.0129244,0.1465324,-0.0015106,-0.0152743,-0.027863
867,0.4036034,-0.1361257,-0.0048676,-0.0234989,-0.0048676,0.1327687,-0.0065461,-0.0198062,-0.0276951
868,0.404069,-0.1317617,-0.0041962,-0.0186313,-0.0008392,0.1226978,-0.0102388,-0.0240024,-0.026688
869,0.4045345,-0.1267262,-0.0045319,-0.0142672,0.0005035,0.1149767,-0.0104067,-0.0240024,-0.0270237
870,0.405,-0.1206836,-0.005539,-0.012253,0.0005035,0.1059129,-0.0109102,-0.0209812,-0.0270237
871,0.4054655,-0.1143053,-0.0062104,-0.0124208,-0.0001678,0.0911421,-0.0129244,-0.0166171,-0.0270237
872,0.405931,-0.1099413,-0.0052033,-0.0142672,-0.0028534,0.0736858,-0.0169528,-0.012253,-0.0270237
873,0.4063966,-0.110277,-0.0041962,-0.0152743,-0.0048676,0.0575723,-0.0179599,-0.008896,-0.0270237
874,0.4068621,-0.1129625,-0.005539,-0.0146029,-0.0058747,0.0454871,-0.0176242,-0.0093996,-0.0273594
875,0.4073276,-0.1173266,-0.0060426,-0.0135958,-0.0062104,0.0387732,-0.0193027,-0.0130922,-0.0292058
876,0.4077931,-0.1210193,-0.0063783,-0.0135958,-0.0075532,0.033402,-0.0209812,-0.0206455,-0.0290379
877,0.4082586,-0.117998,-0.0048676,-0.0130922,-0.008896,0.0273594,-0.0179599,-0.0347448,-0.0276951
878,0.4087241,-0.111284,-0.0028534,-0.0125887,-0.0068818,0.0196384,-0.0139315,-0.0485084,-0.0276951
879,0.4091897,-0.1119554,-0.0031891,-0.0109102,-0.0031891,0.01561,-0.0109102,-0.0525368,-0.0285344
880,0.4096552,-0.1237049,-0.0057069,-0.0065461,0.0011749,0.0162814,-0.0085603,-0.0441444,-0.0287022
881,0.4101207,-0.1344472,-0.0063783,-0.0028534,0.0038605,0.0186313,-0.005539,-0.0327306,-0.0276951
882,0.4105862,-0.1327687,-0.0052033,-0.0008392,0.0048676,0.0226596,-0.0025177,-0.0256809,-0.0263523
883,0.4110517,-0.1245441,-0.005539,0.0011749,0.0038605,0.024506,-0.002182,-0.0186313,-0.0256809
884,0.4115172,-0.1156481,-0.0068818,0.002182,-0.0001678,0.0253452,-0.0043641,-0.0112459,-0.0253452
885,0.4119828,-0.1106126,-0.0075532,0.0035248,-0.0050355,0.0253452,-0.0057069,-0.008896,-0.0250095
886,0.4124483,-0.1099413,-0.0085603,0.0052033,-0.0099031,0.0248417,-0.0041962,-0.0142672,-0.0251774
887,0.4129138,-0.1085985,-0.0082246,0.0065461,-0.012253,0.0213169,-0.0035248,-0.018967,-0.0256809
888,0.4133793,-0.1015488,-0.0062104,0.0065461,-0.0129244,0.0209812,-0.0048676,-0.0169528,-0.0270237
889,0.4138448,-0.0887922,-0.0058747,0.0075532,-0.0135958,0.0310521,-0.0082246,-0.012253,-0.027863
890,0.4143103,-0.0750286,-0.0068818,0.0082246,-0.0132601,0.0451514,-0.0125887,-0.0095674,-0.0271916
891,0.4147759,-0.0616007,-0.0082246,0.0078889,-0.0117494,0.0562295,-0.0172885,-0.0072175,-0.0271916
892,0.4152414,-0.0441444,-0.0085603,0.0065461,-0.0112459,0.0501869,-0.0219883,-0.0048676,-0.0283665
893,0.4157069,-0.0213169,-0.0085603,0.0052033,-0.0078889,0.026688,-0.0256809,-0.002182,-0.0297093
894,0.4161724,-0.002182,-0.0077211,0.0058747,-0.002182,0.014435,-0.0250095,-0.0025177,-0.0283665
895,0.4166379,0.0072175,-0.0072175,0.0065461,0.0015106,0.0151064,-0.0216526,-0.0041962,-0.0256809
896,0.4171034,0.0092317,-0.0083925,0.0062104,0.0023499,0.0152743,-0.0218204,-0.0050355,-0.0256809
897,0.417569,0.0062104,-0.0095674,0.0052033,-0.0010071,0.0139315,-0.0236667,-0.0057069,-0.0273594
898,0.4180345,0.0008392,-0.0105745,0.0052033,-0.0028534,0.0139315,-0.0250095,-0.0068818,-0.0303807
899,0.4185,-0.0028534,-0.011078,0.0065461,-0.0016785,0.0199741,-0.0236667,-0.0075532,-0.0317235
900,0.4189655,-0.0028534,-0.0115816,0.0078889,-0.0001678,0.0313878,-0.0229953,-0.0075532,-0.0323949
901,0.419431,-0.0008392,-0.0112459,0.0078889,0.0011749,0.0448157,-0.0229953,-0.0072175,-0.0323949
902,0.4198966,0.0001678,-0.0115816,0.0068818,0.0041962,0.0555581,-0.0250095,-0.0075532,-0.0317235
903,0.4203621,-0.0015106,-0.0115816,0.0028534,0.0052033,0.0609293,-0.0250095,-0.005539,-0.0318914
904,0.4208276,-0.0068818,-0.0109102,-0.0005035,0.0028534,0.0666361,-0.0223239,0.0057069,-0.0313878
905,0.4212931,-0.0132601,-0.0115816,-0.0015106,-0.0001678,0.0728466,-0.0169528,0.0193027,-0.0298772
906,0.4217586,-0.017792,-0.0135958,-0.0003357,0.0005035,0.0743572,-0.0092317,0.0271916,-0.0292058
907,0.4222241,-0.0182956,-0.0140993,-0.0001678,0.0035248,0.0710002,-0.0058747,0.030045,-0.0293736
908,0.4226897,-0.0176242,-0.0135958,-0.0025177,0.0065461,0.072343,-0.0092317,0.0283665,-0.0287022
909,0.4231552,-0.0159457,-0.0132601,-0.0075532,0.0045319,0.079057,-0.0146029,0.0240024,-0.0276951
910,0.4236207,-0.01561,-0.0129244,-0.0109102,-0.0001678,0.0830854,-0.0179599,0.014435,-0.0270237
911,0.4240862,-0.0162814,-0.0135958,-0.0104067,-0.002182,0.0837568,-0.0196384,-0.0035248,-0.0258488
912,0.4245517,-0.0135958,-0.0142672,-0.0075532,-0.0008392,0.0864424,-0.018967,-0.0172885,-0.0258488
913,0.4250172,-0.0001678,-0.0129244,-0.0031891,0.0023499,0.093492,-0.01561,-0.0125887,-0.027863
914,0.4254828,0.0293736,-0.012253,0.0005035,0.0030213,0.0988632,-0.0115816,0.0038605,-0.0290379
915,0.4259483,0.0622721,-0.0129244,0.0028534,0.0008392,0.1010452,-0.0115816,0.0157778,-0.0276951
916,0.4264138,0.079057,-0.0135958,0.0045319,-0.0082246,0.1018845,-0.0166171,0.0149386,-0.0270237
917,0.4268793,0.0800641,-0.0135958,0.0058747,-0.0250095,0.1038987,-0.0226596,0.0105745,-0.0258488
918,0.4273448,0.0770428,-0.0132601,0.0065461,-0.04448,0.1005417,-0.0317235,0.0132601,-0.0256809
919,0.4278103,0.0773785,-0.0135958,0.0045319,-0.0503548,0.0931563,-0.0404517,0.0196384,-0.0258488
920,0.4282759,0.0800641,-0.0135958,-0.0005035,-0.0347448,0.0884565,-0.04448,0.0219883,-0.0256809
921,0.4287414,0.0803998,-0.0146029,-0.005539,-0.0099031,0.0911421,-0.0428016,0.017792,-0.0263523
922,0.4292069,0.0770428,-0.0169528,-0.0119173,0.0078889,0.0971847,-0.0374304,0.0125887,-0.0275273
923,0.4296724,0.070161,-0.018967,-0.0196384,0.0139315,0.1015488,-0.0303807,0.0166171,-0.0283665
924,0.4301379,0.0609293,-0.018967,-0.0280308,0.0112459,0.1065843,-0.0260166,0.0256809,-0.027863
925,0.4306034,0.0475013,-0.0199741,-0.0337377,0.0062104,0.1173266,-0.0250095,0.023331,-0.0276951
926,0.431069,0.0323949,-0.0216526,-0.0354162,-0.0062104,0.1337758,-0.0250095,0.0045319,-0.0276951
927,0.4315345,0.0132601,-0.0216526,-0.0350805,-0.0204776,0.1487144,-0.0250095,-0.0167849,-0.0270237
928,0.432,-0.0146029,-0.0213169,-0.0370947,-0.0240024,0.1549248,-0.0253452,-0.0285344,-0.0243381
929,0.4324655,-0.0498512,-0.0216526,-0.0387732,-0.0142672,0.1555962,-0.0250095,-0.0297093,-0.021149
930,0.432931,-0.0748608,-0.0219883,-0.0352483,-0.0068818,0.1576104,-0.0243381,-0.0263523,-0.021149
931,0.4333966,-0.0814069,-0.0236667,-0.0310521,-0.0176242,0.1626459,-0.0236667,-0.0240024,-0.0231632
932,0.4338621,-0.0770428,-0.0256809,-0.0310521,-0.0327306,0.1666743,-0.0236667,-0.0240024,-0.0236667
933,0.4343276,-0.0694896,-0.0256809,-0.0323949,-0.036759,0.1641566,-0.0229953,-0.0243381,-0.0240024
934,0.4347931,-0.0552224,-0.0246738,-0.0313878,-0.0280308,0.1562676,-0.021149,-0.0231632,-0.0240024
935,0.4352586,-0.0303807,-0.0240024,-0.0303807,-0.0176242,0.1453574,-0.018967,-0.0209812,-0.0229953
936,0.4357241,-0.0006714,-0.0240024,-0.0298772,-0.014435,0.1317617,-0.0157778,-0.0209812,-0.0216526
937,0.4361897,0.0246738,-0.0236667,-0.0310521,-0.0162814,0.117998,-0.0115816,-0.023331,-0.0206455
938,0.4366552,0.0332341,-0.0206455,-0.0330663,-0.018967,0.1072557,-0.0085603,-0.0256809,-0.0203098
939,0.4371207,0.0290379,-0.0162814,-0.0323949,-0.0209812,0.100206,-0.0068818,-0.0260166,-0.0199741
940,0.4375862,0.0246738,-0.0129244,-0.0297093,-0.0219883,0.096849,-0.0052033,-0.0229953,-0.0203098
941,0.4380517,0.0297093,-0.0112459,-0.0273594,-0.0226596,0.0951705,-0.003357,-0.0179599,-0.0199741
942,0.4385172,0.0424659,-0.0105745,-0.026688,-0.021149,0.0944991,-0.0030213,-0.0129244,-0.0194705
943,0.4389828,0.0558938,-0.0109102,-0.0253452,-0.01561,0.0961776,-0.002182,-0.0097353,-0.0193027
944,0.4394483,0.0654612,-0.0114137,-0.0229953,-0.0035248,0.0981918,0.0005035,-0.0082246,-0.0196384
945,0.4399138,0.0683146,-0.0125887,-0.0186313,0.0159457,0.0985275,0.0011749,-0.0072175,-0.0203098
946,0.4403793,0.063447,-0.0132601,-0.01561,0.0342412,0.0971847,-0.0001678,-0.0065461,-0.0199741
947,0.4408448,0.0540475,-0.0142672,-0.0132601,0.0387732,0.0936599,-0.0045319,-0.0070497,-0.0196384
948,0.4413103,0.0481727,-0.0149386,-0.0119173,0.0313878,0.0861067,-0.0105745,-0.0115816,-0.0186313
949,0.4417759,0.0515297,-0.0142672,-0.0125887,0.023331,0.0770428,-0.0162814,-0.0179599,-0.0176242
950,0.4422414,0.0614328,-0.0135958,-0.0142672,0.0139315,0.0703288,-0.0214847,-0.0203098,-0.0176242
951,0.4427069,0.0683146,-0.0132601,-0.0162814,-0.005539,0.0641184,-0.030045,-0.0176242,-0.0191348
952,0.4431724,0.0649577,-0.0124208,-0.0193027,-0.0275273,0.0461585,-0.0387732,-0.014435,-0.0193027
953,0.4436379,0.0542153,-0.0097353,-0.0231632,-0.0354162,0.0149386,-0.0414588,-0.0115816,-0.0169528
954,0.4441034,0.0428016,-0.0075532,-0.0243381,-0.0231632,-0.0077211,-0.0381018,-0.005539,-0.01561
955,0.444569,0.033402,-0.005539,-0.0243381,-0.0028534,-0.0139315,-0.0339055,-0.0005035,-0.0162814
956,0.4450345,0.0307164,-0.0041962,-0.0240024,0.0139315,-0.0102388,-0.030045,-0.003357,-0.0182956
957,0.4455,0.0307164,-0.0035248,-0.0246738,0.0193027,-0.0129244,-0.0271916,-0.0095674,-0.0203098
958,0.4459655,0.0260166,-0.0035248,-0.0276951,0.0132601,-0.0203098,-0.0256809,-0.0139315,-0.0219883
959,0.446431,0.01561,-0.0038605,-0.0303807,-0.002182,-0.0253452,-0.0270237,-0.0142672,-0.0229953
960,0.4468966,0.0112459,-0.002182,-0.0293736,-0.0199741,-0.0273594,-0.0290379,-0.012253,-0.023331
961,0.4473621,0.0172885,0.0011749,-0.0270237,-0.0303807,-0.0287022,-0.0307164,-0.008896,-0.0243381
962,0.4478276,0.0263523,0.0043641,-0.0261845,-0.0310521,-0.0283665,-0.0323949,-0.0062104,-0.0246738
963,0.4482931,0.0327306,0.0063783,-0.0271916,-0.027863,-0.0243381,-0.0347448,-0.0057069,-0.0240024
964,0.4487586,0.0374304,0.0058747,-0.0290379,-0.0236667,-0.0166171,-0.0370947,-0.0052033,-0.023331
965,0.4492241,0.0431373,0.0058747,-0.030045,-0.0182956,-0.0082246,-0.0394446,-0.0045319,-0.0236667
966,0.4496897,0.0475013,0.0072175,-0.0276951,-0.0152743,-0.0035248,-0.0404517,-0.0035248,-0.0246738
967,0.4501552,0.0481727,0.0065461,-0.0236667,-0.0139315,-0.002182,-0.0426337,-0.0035248,-0.0250095
968,0.4506207,0.0481727,0.005539,-0.0223239,-0.0135958,0.0005035,-0.0458228,-0.0048676,-0.023331
969,0.4510862,0.0451514,0.0052033,-0.0243381,-0.0142672,0.0038605,-0.0459907,-0.0052033,-0.0216526
970,0.4515517,0.0399481,0.0052033,-0.0253452,-0.0164492,0.0057069,-0.042298,-0.003357,-0.0204776
971,0.4520172,0.0347448,0.0038605,-0.0243381,-0.0191348,0.0085603,-0.0347448,0.0038605,-0.0206455
972,0.4524828,0.0313878,0.0015106,-0.0229953,-0.0196384,0.0149386,-0.0297093,0.0157778,-0.0216526
973,0.4529483,0.027863,0.0001678,-0.0216526,-0.0186313,0.0219883,-0.0330663,0.0298772,-0.0216526
974,0.4534138,0.024506,-0.0005035,-0.0203098,-0.0176242,0.0276951,-0.0409552,0.0414588,-0.0216526
975,0.4538793,0.0218204,-0.0023499,-0.0193027,-0.0109102,0.03122,-0.0458228,0.0488441,-0.0226596
976,0.4543448,0.0206455,-0.0057069,-0.018967,-0.0041962,0.0332341,-0.0441444,0.0619364,-0.0229953
977,0.4548103,0.0223239,-0.0083925,-0.0193027,-0.0146029,0.0340734,-0.0397803,0.0837568,-0.023331
978,0.4552759,0.0253452,-0.011078,-0.0193027,-0.0370947,0.0340734,-0.0364233,0.1008774,-0.0236667
979,0.4557414,0.0290379,-0.0142672,-0.0162814,-0.0498512,0.033402,-0.0354162,0.1008774,-0.0234989
980,0.4562069,0.0320592,-0.0176242,-0.0125887,-0.0458228,0.033402,-0.0372625,0.0777142,-0.0256809
981,0.4566724,0.0323949,-0.0213169,-0.0109102,-0.0354162,0.0354162,-0.0386053,0.0276951,-0.0253452
982,0.4571379,0.03122,-0.0253452,-0.0115816,-0.0273594,0.0374304,-0.0370947,-0.0307164,-0.0236667
983,0.4576034,0.0310521,-0.0283665,-0.0124208,-0.0229953,0.0360876,-0.0344091,-0.0740215,-0.0223239
984,0.458069,0.03122,-0.0295415,-0.0142672,-0.0206455,0.0318914,-0.0310521,-0.0981918,-0.0223239
985,0.4585345,0.0320592,-0.0287022,-0.0157778,-0.0186313,0.0280308,-0.0273594,-0.103563,-0.023331
986,0.459,0.0323949,-0.0270237,-0.0166171,-0.0152743,0.0258488,-0.0250095,-0.0944991,-0.0246738
987,0.4594655,0.0313878,-0.0243381,-0.0176242,-0.0115816,0.0263523,-0.0243381,-0.0810712,-0.026688
988,0.459931,0.0297093,-0.0203098,-0.017792,-0.0075532,0.0273594,-0.0236667,-0.0780499,-0.0283665
989,0.4603966,0.0287022,-0.0157778,-0.0182956,-0.0062104,0.0263523,-0.0236667,-0.0884565,-0.0285344
990,0.4608621,0.0273594,-0.0119173,-0.0196384,-0.0075532,0.0236667,-0.0229953,-0.1032273,-0.0280308
991,0.4613276,0.0253452,-0.0082246,-0.0196384,-0.0104067,0.0206455,-0.0209812,-0.1080949,-0.0292058
992,0.4617931,0.0246738,-0.0062104,-0.0199741,-0.0152743,0.0199741,-0.0206455,-0.0981918,-0.0307164
993,0.4622586,0.0246738,-0.0048676,-0.0213169,-0.0169528,0.0209812,-0.0219883,-0.0787213,-0.0298772
994,0.4627241,0.0246738,-0.0031891,-0.0219883,-0.0151064,0.0213169,-0.0223239,-0.0562295,-0.0290379
995,0.4631897,0.0229953,-0.0008392,-0.0209812,-0.011078,0.0209812,-0.0203098,-0.0330663,-0.0271916
996,0.4636552,0.0209812,-0.0030213,-0.018967,-0.0075532,0.0198062,-0.0199741,-0.0152743,-0.0246738
997,0.4641207,0.0209812,-0.0082246,-0.0203098,-0.0068818,0.0193027,-0.0216526,-0.0050355,-0.0219883
998,0.4645862,0.0208133,-0.0125887,-0.0223239,-0.0109102,0.0196384,-0.0219883,-0.0008392,-0.0216526
999,0.4650517,0.0196384,-0.0149386,-0.0229953,-0.0149386,0.0213169,-0.0209812,0.0018463,-0.0226596
1000,0.4655172,0.0179599,-0.0196384,-0.0226596,-0.0172885,0.0219883,-0.0209812,0.0031891,-0.0238346
1001,0.4659828,0.0166171,-0.0287022,-0.0240024,-0.017792,0.0226596,-0.0216526,0.0041962,-0.0236667
1002,0.4664483,0.0166171,-0.0360876,-0.0241703,-0.0181277,0.0271916,-0.0224918,0.0058747,-0.0246738
1003,0.4669138,0.0152743,-0.0397803,-0.0243381,-0.0196384,0.0327306,-0.0221561,0.0075532,-0.0270237
1004,0.4673793,0.0135958,-0.0433051,-0.0243381,-0.0219883,0.0364233,-0.0203098,0.0078889,-0.0280308
1005,0.4678448,0.0119173,-0.0431373,-0.0256809,-0.0203098,0.0345769,-0.0176242,0.008896,-0.0263523
1006,0.4683103,0.0115816,-0.0364233,-0.0273594,-0.0162814,0.0293736,-0.0157778,0.0092317,-0.0236667
1007,0.4687759,0.0104067,-0.0265202,-0.0273594,-0.0099031,0.023331,-0.01561,0.0092317,-0.0238346
1008,0.4692414,0.0078889,-0.01561,-0.0270237,-0.0038605,0.0213169,-0.0152743,0.0099031,-0.0253452
1009,0.4697069,0.0065461,-0.0062104,-0.027863,-0.0018463,0.0240024,-0.0135958,0.0115816,-0.0263523
1010,0.4701724,0.0045319,0.0016785,-0.0285344,-0.0041962,0.0287022,-0.0117494,0.0132601,-0.0273594
1011,0.4706379,0.0023499,0.0057069,-0.0287022,-0.0078889,0.0303807,-0.0109102,0.0130922,-0.0283665
1012,0.4711034,-0.0008392,0.0065461,-0.0297093,-0.0109102,0.0287022,-0.0082246,0.0115816,-0.0287022
1013,0.471569,-0.0041962,0.0078889,-0.0297093,-0.0135958,0.0248417,-0.0060426,0.0102388,-0.0275273
1014,0.4720345,-0.0045319,0.008896,-0.0283665,-0.0162814,0.0218204,-0.0041962,0.0085603,-0.026688
1015,0.4725,-0.0025177,0.008896,-0.0276951,-0.0219883,0.0208133,-0.0031891,0.0083925,-0.0275273
1016,0.4729655,-0.0015106,0.0065461,-0.0283665,-0.0283665,0.0224918,-0.0025177,0.0092317,-0.0297093
1017,0.473431,-0.0008392,0.0011749,-0.0283665,-0.0293736,0.0229953,-0.0001678,0.0078889,-0.0307164
1018,0.4738966,0.0015106,-0.0038605,-0.0288701,-0.0250095,0.0213169,0.0011749,0.0041962,-0.0307164
1019,0.4743621,0.0045319,-0.0065461,-0.0290379,-0.018967,0.0186313,0.0008392,0.0003357,-0.030045
1020,0.4748276,0.0072175,-0.0078889,-0.0270237,-0.0149386,0.01561,0.0001678,-0.0028534,-0.030045
1021,0.4752931,0.0075532,-0.0109102,-0.0253452,-0.0135958,0.0119173,0.0008392,-0.0043641,-0.030045
1022,0.4757586,0.0058747,-0.0164492,-0.0263523,-0.0142672,0.0085603,0.0011749,-0.0048676,-0.0293736
1023,0.4762241,0.0030213,-0.0206455,-0.0287022,-0.01561,0.0065461,-0.0005035,-0.0045319,-0.0276951
1024,0.4766897,0.002182,-0.0216526,-0.0303807,-0.0169528,0.0057069,-0.0031891,-0.0045319,-0.027863
1025,0.4771552,0.0043641,-0.0196384,-0.0303807,-0.0243381,0.0058747,-0.0058747,-0.0048676,-0.0288701
1026,0.4776207,0.0072175,-0.0162814,-0.0303807,-0.0345769,0.0062104,-0.0078889,-0.0038605,-0.0273594
1027,0.4780862,0.0092317,-0.0139315,-0.0310521,-0.0412909,0.0058747,-0.0085603,0.0003357,-0.0260166
1028,0.4785517,0.0095674,-0.014435,-0.0303807,-0.0384375,0.0052033,-0.0072175,0.0041962,-0.0250095
1029,0.4790172,0.0097353,-0.0162814,-0.0303807,-0.0263523,0.002182,-0.0041962,0.0045319,-0.0251774
1030,0.4794828,0.0092317,-0.0149386,-0.0310521,-0.012253,-0.0052033,0.0018463,0.0005035,-0.0273594
1031,0.4799483,0.0085603,-0.0095674,-0.0307164,-0.0023499,-0.0142672,0.0078889,-0.0028534,-0.0297093
1032,0.4804138,0.0072175,-0.0062104,-0.0310521,0.0025177,-0.0218204,0.0092317,-0.0045319,-0.0293736
1033,0.4808793,0.0068818,-0.0070497,-0.0325628,0.0045319,-0.0260166,0.0031891,-0.0068818,-0.0293736
1034,0.4813448,0.0065461,-0.0095674,-0.0337377,0.0015106,-0.0290379,-0.0048676,-0.0104067,-0.0303807
1035,0.4818103,0.0062104,-0.0135958,-0.0330663,-0.0053712,-0.0297093,-0.0095674,-0.0129244,-0.0317235
1036,0.4822759,0.0077211,-0.0186313,-0.0327306,-0.0109102,-0.0303807,-0.0082246,-0.0146029,-0.0337377
1037,0.4827414,0.0099031,-0.0216526,-0.0327306,-0.0129244,-0.0307164,-0.0035248,-0.0152743,-0.0350805
1038,0.4832069,0.0109102,-0.0221561,-0.0323949,-0.0169528,-0.0327306,-0.0016785,-0.0146029,-0.0337377
1039,0.4836724,0.0124208,-0.0229953,-0.0317235,-0.0223239,-0.0332341,-0.0011749,-0.0149386,-0.030045
1040,0.4841379,0.0129244,-0.024506,-0.0310521,-0.0270237,-0.0323949,0.0023499,-0.0172885,-0.0283665
1041,0.4846034,0.0139315,-0.0243381,-0.0303807,-0.0271916,-0.0330663,0.0099031,-0.0193027,-0.0302129
1042,0.485069,0.0129244,-0.0224918,-0.0317235,-0.0223239,-0.0330663,0.0146029,-0.0219883,-0.0327306
1043,0.4855345,0.012253,-0.0209812,-0.0323949,-0.0176242,-0.0317235,0.0097353,-0.0243381,-0.0344091
1044,0.486,0.0125887,-0.0251774,-0.0320592,-0.0179599,-0.03122,0.0025177,-0.0229953,-0.0344091
1045,0.4864655,0.0130922,-0.0317235,-0.0323949,-0.0199741,-0.03122,-0.0001678,-0.0196384,-0.0347448
1046,0.486931,0.0139315,-0.0347448,-0.0323949,-0.021149,-0.0313878,-0.0005035,-0.0162814,-0.0364233
1047,0.4873966,0.0152743,-0.0325628,-0.0330663,-0.0203098,-0.0317235,-0.0030213,-0.0147707,-0.0391089
1048,0.4878621,0.0159457,-0.0283665,-0.0327306,-0.0196384,-0.0313878,-0.0072175,-0.0176242,-0.0394446
1049,0.4883276,0.0146029,-0.0236667,-0.0317235,-0.0203098,-0.0297093,-0.0092317,-0.0219883,-0.0370947
1050,0.4887931,0.0146029,-0.0203098,-0.0303807,-0.0193027,-0.0276951,-0.0105745,-0.026688,-0.0364233
1051,0.4892586,0.014435,-0.0159457,-0.0307164,-0.0166171,-0.0253452,-0.0119173,-0.0313878,-0.0372625
1052,0.4897241,0.0152743,-0.0097353,-0.0298772,-0.0115816,-0.0236667,-0.0129244,-0.0337377,-0.0374304
1053,0.4901897,0.0169528,-0.0036927,-0.0280308,-0.0031891,-0.0203098,-0.008896,-0.0337377,-0.0337377
1054,0.4906552,0.0169528,-0.0001678,-0.027863,0.008896,-0.0162814,-0.0008392,-0.0303807,-0.0287022
1055,0.4911207,0.0172885,0.0011749,-0.0297093,0.0193027,-0.0142672,0.0052033,-0.0270237,-0.0236667
1056,0.4915862,0.0186313,0.0025177,-0.0290379,0.0219883,-0.0146029,0.0092317,-0.023331,-0.018967
1057,0.4920517,0.0203098,0.0058747,-0.0270237,0.0169528,-0.0162814,0.0139315,-0.0223239,-0.0149386
1058,0.4925172,0.0223239,0.0090639,-0.0263523,0.0072175,-0.0179599,0.018967,-0.0256809,-0.0137636
1059,0.4929828,0.0219883,0.0125887,-0.0270237,-0.0023499,-0.0182956,0.021149,-0.0290379,-0.0152743
1060,0.4934483,0.0204776,0.0132601,-0.0285344,-0.0082246,-0.0166171,0.0166171,-0.0290379,-0.0172885
1061,0.4939138,0.018967,0.0085603,-0.0297093,-0.0112459,-0.0146029,0.0092317,-0.0253452,-0.0162814
1062,0.4943793,0.0199741,0.0025177,-0.0283665,-0.0162814,-0.0109102,0.0025177,-0.0196384,-0.0119173
1063,0.4948448,0.0216526,-0.0028534,-0.0263523,-0.0216526,-0.0062104,-0.0050355,-0.0135958,-0.0104067
1064,0.4953103,0.0219883,-0.005539,-0.0263523,-0.0226596,-0.0005035,-0.0117494,-0.0097353,-0.012253
1065,0.4957759,0.0206455,-0.0068818,-0.0276951,-0.0169528,0.0045319,-0.0162814,-0.0075532,-0.0149386
1066,0.4962414,0.0199741,-0.0115816,-0.0288701,-0.0095674,0.0048676,-0.0213169,-0.0075532,-0.0182956
1067,0.4967069,0.0206455,-0.0186313,-0.0283665,-0.0028534,0.0041962,-0.0275273,-0.0085603,-0.0246738
1068,0.4971724,0.0206455,-0.0203098,-0.0280308,0.0018463,0.0065461,-0.0340734,-0.0099031,-0.0337377
1069,0.4976379,0.0191348,-0.0169528,-0.0287022,0.0018463,0.0099031,-0.0417945,-0.0115816,-0.0417945
1070,0.4981034,0.0182956,-0.0129244,-0.0293736,-0.0070497,0.0072175,-0.0464942,-0.011078,-0.0505226
1071,0.498569,0.0182956,-0.0102388,-0.0290379,-0.0223239,0.0011749,-0.0471656,-0.0097353,-0.0590829
1072,0.4990345,0.0179599,-0.0102388,-0.0285344,-0.0330663,-0.0075532,-0.0438087,-0.0075532,-0.0632792
1073,0.4995,0.0172885,-0.0085603,-0.0271916,-0.0379339,-0.0182956,-0.0377661,-0.0048676,-0.0609293
1074,0.4999655,0.0166171,-0.0048676,-0.0263523,-0.0397803,-0.0297093,-0.0315557,-0.0041962,-0.0565652
1075,0.500431,0.0182956,-0.0011749,-0.0258488,-0.0377661,-0.0414588,-0.0273594,-0.0045319,-0.0538796
1076,0.5008966,0.0196384,0.0005035,-0.0250095,-0.0332341,-0.0501869,-0.0253452,-0.0041962,-0.0538796
1077,0.5013621,0.0186313,0.0011749,-0.024506,-0.0290379,-0.0569009,-0.0250095,-0.0038605,-0.0525368
1078,0.5018276,0.0172885,-0.0001678,-0.0243381,-0.0276951,-0.0592508,-0.0253452,-0.0035248,-0.047837
1079,0.5022931,0.0176242,-0.0041962,-0.0256809,-0.0313878,-0.0572366,-0.0263523,-0.0038605,-0.0386053
1080,0.5027586,0.0196384,-0.0065461,-0.0283665,-0.0377661,-0.0518654,-0.0297093,-0.0028534,-0.0276951
1081,0.5032241,0.0216526,-0.0072175,-0.0297093,-0.0433051,-0.0458228,-0.033402,-0.0003357,-0.021149
1082,0.5036897,0.0213169,-0.0065461,-0.0293736,-0.0431373,-0.0391089,-0.0325628,-0.0001678,-0.021149
1083,0.5041552,0.0199741,-0.0068818,-0.027863,-0.0344091,-0.0320592,-0.0290379,-0.0015106,-0.0246738
1084,0.5046207,0.0186313,-0.0082246,-0.0276951,-0.0203098,-0.0260166,-0.0283665,-0.0028534,-0.0256809
1085,0.5050862,0.0186313,-0.0117494,-0.0283665,-0.0092317,-0.024506,-0.0297093,-0.0045319,-0.0203098
1086,0.5055517,0.0176242,-0.0172885,-0.0287022,-0.0125887,-0.0271916,-0.0320592,-0.0057069,-0.011078
1087,0.5060172,0.0157778,-0.0236667,-0.0273594,-0.0229953,-0.0303807,-0.0344091,-0.005539,-0.0048676
1088,0.5064828,0.0139315,-0.0273594,-0.0270237,-0.0273594,-0.0347448,-0.0350805,-0.0058747,-0.0041962
1089,0.5069483,0.0139315,-0.0253452,-0.0283665,-0.0236667,-0.0404517,-0.0337377,-0.0068818,-0.0095674
1090,0.5074138,0.0154421,-0.018967,-0.0287022,-0.0152743,-0.0438087,-0.0313878,-0.0078889,-0.0182956
1091,0.5078793,0.017792,-0.0125887,-0.0290379,-0.0058747,-0.0417945,-0.0323949,-0.0068818,-0.0287022
1092,0.5083448,0.0196384,-0.0072175,-0.0290379,0.0048676,-0.0350805,-0.033402,-0.0052033,-0.035584
1093,0.5088103,0.0219883,-0.0005035,-0.0297093,0.0132601,-0.0263523,-0.0313878,-0.0041962,-0.0327306
1094,0.5092759,0.0250095,0.0062104,-0.0287022,0.0139315,-0.0186313,-0.0240024,-0.0038605,-0.0206455
1095,0.5097414,0.0253452,0.0065461,-0.0265202,0.0005035,-0.0115816,-0.0135958,-0.0030213,0.0011749
1096,0.5102069,0.0253452,-0.0001678,-0.0246738,-0.023331,-0.0077211,-0.0068818,-0.002182,0.0256809
1097,0.5106724,0.0273594,-0.005539,-0.0236667,-0.0404517,-0.0083925,-0.0090639,-0.0028534,0.0397803
1098,0.5111379,0.030045,-0.005539,-0.0238346,-0.0431373,-0.0125887,-0.0182956,-0.0082246,0.0354162
1099,0.5116034,0.0310521,-0.0018463,-0.0250095,-0.0397803,-0.018967,-0.0263523,-0.0125887,0.0159457
1100,0.512069,0.0280308,0.0052033,-0.0263523,-0.0377661,-0.0243381,-0.0317235,-0.01561,-0.0083925
1101,0.5125345,0.0223239,0.0130922,-0.0265202,-0.0350805,-0.0293736,-0.033402,-0.0162814,-0.0256809
1102,0.513,0.0176242,0.0186313,-0.0256809,-0.0323949,-0.0344091,-0.0350805,-0.01561,-0.0303807
1103,0.5134655,0.0146029,0.0182956,-0.0263523,-0.0320592,-0.0364233,-0.0350805,-0.0142672,-0.0283665
1104,0.513931,0.0119173,0.0176242,-0.0276951,-0.0270237,-0.0354162,-0.0303807,-0.0135958,-0.0303807
1105,0.5143966,0.008896,0.018967,-0.0265202,-0.0172885,-0.0344091,-0.0219883,-0.0139315,-0.0391089
1106,0.5148621,0.0035248,0.017792,-0.0256809,-0.0114137,-0.0339055,-0.0162814,-0.0135958,-0.0506905
1107,0.5153276,-0.0031891,0.0119173,-0.0256809,-0.0139315,-0.0327306,-0.0125887,-0.0109102,-0.0659648
1108,0.5157931,-0.0085603,0.0043641,-0.0265202,-0.021149,-0.0313878,-0.0092317,-0.0083925,-0.0802319
1109,0.5162586,-0.0095674,0.0005035,-0.026688,-0.0258488,-0.0297093,-0.008896,-0.0062104,-0.0918135
1110,0.5167241,-0.0063783,-0.0008392,-0.0263523,-0.0236667,-0.0283665,-0.0154421,-0.0016785,-0.0998703
1111,0.5171897,-0.0015106,-0.0045319,-0.026688,-0.018967,-0.0250095,-0.0243381,0.0038605,-0.0985275
1112,0.5176552,0.0031891,-0.012253,-0.0276951,-0.0142672,-0.0179599,-0.0317235,0.0058747,-0.0874495
1113,0.5181207,0.0077211,-0.0223239,-0.0283665,-0.0099031,-0.005539,-0.0364233,0.0065461,-0.0726787
1114,0.5185862,0.0125887,-0.0350805,-0.0280308,-0.0068818,0.0115816,-0.0377661,0.0058747,-0.0547189
1115,0.5190517,0.017792,-0.0446479,-0.0256809,-0.0077211,0.0219883,-0.0379339,0.0041962,-0.0303807
1116,0.5195172,0.0223239,-0.0485084,-0.0229953,-0.0075532,0.0206455,-0.033402,0.0035248,-0.005539
1117,0.5199828,0.0270237,-0.0466621,-0.023331,-0.0016785,0.0132601,-0.0209812,0.0045319,0.0045319
1118,0.5204483,0.0307164,-0.0417945,-0.0251774,0.0025177,0.0065461,-0.0198062,0.0058747,-0.0075532
1119,0.5209138,0.0303807,-0.033402,-0.0263523,-0.0028534,0.0025177,-0.0414588,0.0043641,-0.0263523
1120,0.5213793,0.0280308,-0.0223239,-0.026688,-0.0115816,-0.0008392,-0.0733501,0.0018463,-0.0340734
1121,0.5218448,0.0273594,-0.0115816,-0.0265202,-0.018967,-0.0031891,-0.0971847,0.0011749,-0.0317235
1122,0.5223103,0.0287022,-0.0043641,-0.0263523,-0.0283665,-0.005539,-0.1075914,0.0025177,-0.030045
1123,0.5227759,0.0280308,0.0006714,-0.0260166,-0.0387732,-0.0072175,-0.1099413,0.0025177,-0.0349126
1124,0.5232414,0.0246738,0.0057069,-0.0263523,-0.0424659,-0.0068818,-0.1096056,0.0028534,-0.0438087
1125,0.5237069,0.0199741,0.0075532,-0.0271916,-0.0354162,-0.0028534,-0.1075914,0.0035248,-0.051194
1126,0.5241724,0.0179599,0.0058747,-0.0271916,-0.0223239,0.0065461,-0.0961776,0.0035248,-0.047837
1127,0.5246379,0.0181277,0.0038605,-0.0263523,-0.0115816,0.0179599,-0.0716716,0.0031891,-0.0387732
1128,0.5251034,0.0186313,0.0005035,-0.0253452,-0.0060426,0.0243381,-0.0417945,0.0025177,-0.0357519
1129,0.525569,0.018967,-0.0058747,-0.0250095,-0.005539,0.0240024,-0.0142672,0.002182,-0.0391089
1130,0.5260345,0.0193027,-0.012253,-0.0265202,-0.0058747,0.0204776,-0.0095674,0.002182,-0.0429694
1131,0.5265,0.0213169,-0.0162814,-0.0283665,-0.0062104,0.018967,-0.0302129,0.0011749,-0.0431373
1132,0.5269655,0.0258488,-0.0184634,-0.0276951,-0.0065461,0.0196384,-0.0471656,0.0011749,-0.0345769
1133,0.527431,0.0323949,-0.0184634,-0.0246738,-0.0073854,0.0226596,-0.0397803,0.0011749,-0.0204776
1134,0.5278966,0.0359197,-0.0169528,-0.0223239,-0.0085603,0.0258488,-0.0132601,0.0011749,-0.0068818
1135,0.5283621,0.0340734,-0.0142672,-0.0203098,-0.0112459,0.0246738,0.0129244,0.0001678,0.0058747
1136,0.5288276,0.0276951,-0.0109102,-0.0203098,-0.0125887,0.0199741,0.0179599,-0.0010071,0.01561
1137,0.5292931,0.023331,-0.0043641,-0.0223239,-0.0099031,0.0149386,0.0025177,-0.0018463,0.0186313
1138,0.5297586,0.0246738,0.0038605,-0.0223239,-0.0068818,0.0125887,-0.01561,-0.0025177,0.0152743
1139,0.5302241,0.0317235,0.0078889,-0.0206455,-0.005539,0.0115816,-0.0265202,-0.0031891,0.0125887
1140,0.5306897,0.0397803,0.0045319,-0.0203098,-0.0045319,0.0115816,-0.0270237,-0.0023499,0.0151064
1141,0.5311552,0.0461585,-0.0058747,-0.0206455,-0.0035248,0.0119173,-0.01561,-0.002182,0.0206455
1142,0.5316207,0.0485084,-0.0159457,-0.0213169,-0.0038605,0.0135958,0.0226596,-0.0038605,0.0234989
1143,0.5320862,0.0451514,-0.0229953,-0.0226596,-0.0028534,0.0152743,0.0716716,-0.0043641,0.0199741
1144,0.5325517,0.0375982,-0.0270237,-0.0256809,-0.0010071,0.0172885,0.1005417,-0.0028534,0.0142672
1145,0.5330172,0.0273594,-0.0283665,-0.0276951,0.0003357,0.0218204,0.0991989,-0.0008392,0.0112459
1146,0.5334828,0.0166171,-0.0250095,-0.0280308,0.0001678,0.0263523,0.0726787,-0.0015106,0.0132601
1147,0.5339483,0.0070497,-0.0172885,-0.0273594,0.0005035,0.0280308,0.0285344,-0.0015106,0.0097353
1148,0.5344138,-0.0011749,-0.0092317,-0.0270237,0.0025177,0.0256809,-0.01561,-0.0001678,-0.0075532
1149,0.5348793,-0.0102388,-0.0043641,-0.0297093,0.0052033,0.023331,-0.0391089,0.0005035,-0.0238346
1150,0.5353448,-0.0179599,-0.0031891,-0.0320592,0.0078889,0.0213169,-0.0386053,0.0008392,-0.0280308
1151,0.5358103,-0.0213169,-0.0063783,-0.0323949,0.0092317,0.0179599,-0.0313878,0.0005035,-0.0381018
1152,0.5362759,-0.0216526,-0.0082246,-0.0310521,0.0099031,0.0085603,-0.0290379,-0.0025177,-0.0626078
1153,0.5367414,-0.0209812,-0.0052033,-0.0273594,0.0082246,-0.0005035,-0.01561,-0.005539,-0.0793927
1154,0.5372069,-0.0176242,-0.0005035,-0.0243381,0.0052033,-0.0048676,0.0166171,-0.0078889,-0.0746929
1155,0.5376724,-0.0129244,0.0038605,-0.0236667,0.0020142,-0.002182,0.0270237,-0.0095674,-0.0626078
1156,0.5381379,-0.0068818,0.0082246,-0.0250095,-0.0041962,0.0052033,-0.0065461,-0.0102388,-0.0569009
1157,0.5386034,0.0001678,0.0112459,-0.0263523,-0.0085603,0.0092317,-0.0404517,-0.0090639,-0.0629435
1158,0.539069,0.0112459,0.0139315,-0.0260166,-0.0115816,0.0085603,-0.0417945,-0.008896,-0.0817426
1159,0.5395345,0.0250095,0.0152743,-0.0251774,-0.0135958,0.0065461,-0.0417945,-0.0077211,-0.1012131
1160,0.54,0.033402,0.0137636,-0.0250095,-0.0149386,0.0011749,-0.061265,-0.0070497,-0.1096056
1161,0.5404655,0.0347448,0.0085603,-0.0240024,-0.0149386,-0.0058747,-0.0699931,-0.0065461,-0.1044022
1162,0.540931,0.0313878,0.0018463,-0.0236667,-0.0142672,-0.0159457,-0.0491798,-0.0060426,-0.0918135
1163,0.5413966,0.0263523,-0.002182,-0.024506,-0.0127565,-0.0276951,-0.0236667,-0.0041962,-0.0780499
1164,0.5418621,0.0226596,-0.0028534,-0.0243381,-0.0102388,-0.0290379,-0.0209812,-0.0035248,-0.064622
1165,0.5423276,0.0204776,-0.0025177,-0.0236667,-0.0075532,-0.0149386,-0.0391089,-0.0050355,-0.051194
1166,0.5427931,0.0186313,-0.0001678,-0.0229953,-0.0052033,-0.0008392,-0.0607614,-0.0068818,-0.0384375
1167,0.5432586,0.0186313,0.0038605,-0.0229953,-0.0025177,-0.0011749,-0.0726787,-0.008896,-0.0320592
1168,0.5437241,0.0196384,0.0072175,-0.0231632,-0.0018463,-0.0097353,-0.0780499,-0.0105745,-0.0261845
1169,0.5441897,0.0209812,0.008896,-0.0219883,-0.002182,-0.0135958,-0.0797284,-0.0099031,-0.0099031
1170,0.5446552,0.0213169,0.0129244,-0.0203098,-0.0031891,-0.0075532,-0.0607614,-0.008896,0.0142672
1171,0.5451207,0.0199741,0.0209812,-0.0219883,-0.0025177,0.0035248,-0.0124208,-0.0043641,0.0307164
1172,0.5455862,0.0169528,0.0287022,-0.0243381,-0.0010071,0.0085603,0.0256809,0.0008392,0.0386053
1173,0.5460517,0.0149386,0.0280308,-0.0263523,-0.0005035,-0.0005035,-0.0045319,0.0031891,0.0392767
1174,0.5465172,0.0139315,0.0186313,-0.0270237,0.0008392,-0.0203098,-0.0726787,0.0031891,0.030045
1175,0.5469828,0.0159457,0.0072175,-0.0250095,-0.0025177,-0.0394446,-0.1149767,0.0041962,0.0092317
1176,0.5474483,0.0186313,-0.0015106,-0.0216526,-0.0149386,-0.0506905,-0.1361257,0.0070497,-0.0203098
1177,0.5479138,0.0142672,-0.0041962,-0.021149,-0.0310521,-0.0585794,-0.1404898,0.0085603,-0.0438087
1178,0.5483793,0.0062104,-0.0015106,-0.0234989,-0.0421302,-0.068986,-0.1042344,0.0062104,-0.0471656
1179,0.5488448,0.0016785,0.0048676,-0.0256809,-0.0428016,-0.0810712,-0.0317235,0.0010071,-0.0406195
1180,0.5493103,0.0031891,0.0097353,-0.0253452,-0.0350805,-0.090135,0.0011749,-0.0050355,-0.0337377
1181,0.5497759,0.0099031,0.0105745,-0.0248417,-0.026688,-0.0921492,-0.0404517,-0.0102388,-0.0273594
1182,0.5502414,0.0167849,0.0077211,-0.0240024,-0.0223239,-0.0800641,-0.0943313,-0.0146029,-0.0290379
1183,0.5507069,0.0209812,0.0030213,-0.0236667,-0.0209812,-0.0538796,-0.0874495,-0.0186313,-0.0399481
1184,0.5511724,0.0226596,-0.0015106,-0.0236667,-0.0209812,-0.0303807,-0.0243381,-0.0193027,-0.0411231
1185,0.5516379,0.024506,-0.0052033,-0.023331,-0.018967,-0.0219883,0.0234989,-0.0171206,-0.0226596
1186,0.5521034,0.0246738,-0.0082246,-0.0229953,-0.0152743,-0.026688,0.0354162,-0.0149386,0.0025177
1187,0.552569,0.0238346,-0.0102388,-0.0223239,-0.0139315,-0.0342412,0.0542153,-0.0139315,0.0224918
1188,0.5530345,0.0243381,-0.0109102,-0.0216526,-0.0135958,-0.0332341,0.0817426,-0.0132601,0.0213169
1189,0.5535,0.0253452,-0.012253,-0.0209812,-0.0142672,-0.0204776,0.0884565,-0.0099031,-0.0112459
1190,0.5539655,0.0253452,-0.0184634,-0.0196384,-0.0166171,-0.005539,0.0622721,-0.0075532,-0.054551
1191,0.554431,0.0253452,-0.0250095,-0.0166171,-0.0203098,0.0011749,0.0327306,-0.0068818,-0.0787213
1192,0.5548966,0.0260166,-0.0256809,-0.0169528,-0.0223239,-0.002182,0.0196384,-0.0075532,-0.076875
1193,0.5553621,0.026688,-0.0216526,-0.0206455,-0.0203098,-0.0129244,0.0092317,-0.0115816,-0.0632792
1194,0.5558276,0.0265202,-0.0193027,-0.0229953,-0.0162814,-0.0219883,-0.0045319,-0.0142672,-0.0411231
1195,0.5562931,0.0263523,-0.0169528,-0.0243381,-0.012253,-0.0203098,-0.0062104,-0.0139315,-0.0092317
1196,0.5567586,0.0265202,-0.0137636,-0.0240024,-0.0095674,-0.0095674,-0.0015106,-0.0109102,0.0265202
1197,0.5572241,0.026688,-0.0169528,-0.0243381,-0.0082246,0.0045319,-0.0139315,-0.005539,0.0589151
1198,0.5576897,0.026688,-0.0253452,-0.0243381,-0.0102388,0.0132601,-0.0384375,0.0001678,0.0820783
1199,0.5581552,0.0261845,-0.0297093,-0.0256809,-0.014435,0.0050355,-0.057908,0.0035248,0.0909743
1200,0.5586207,0.0250095,-0.0287022,-0.0265202,-0.0209812,-0.0102388,-0.0726787,0.0045319,0.0850996
1201,0.5590862,0.0238346,-0.0270237,-0.0276951,-0.0246738,-0.0135958,-0.0844282,0.0020142,0.0572366
1202,0.5595517,0.0250095,-0.0271916,-0.0276951,-0.0236667,-0.0092317,-0.0572366,-0.002182,0.0031891
1203,0.5600172,0.0256809,-0.0260166,-0.026688,-0.0186313,-0.0104067,0.0065461,-0.0058747,-0.0639506
1204,0.5604828,0.0246738,-0.0135958,-0.0292058,-0.0115816,-0.0125887,0.0760357,-0.0080568,-0.1164874
1205,0.5609483,0.0243381,0.0048676,-0.0323949,-0.0068818,-0.0146029,0.1104448,-0.008896,-0.1351186
1206,0.5614138,0.0258488,0.0219883,-0.0327306,-0.0052033,-0.0223239,0.1159838,-0.0095674,-0.1290761
1207,0.5618793,0.026688,0.0293736,-0.0303807,-0.0068818,-0.0307164,0.1354543,-0.0102388,-0.1163195
1208,0.5623448,0.026688,0.0223239,-0.0260166,-0.008896,-0.0283665,0.170367,-0.0109102,-0.093492
1209,0.5628103,0.0260166,0.0062104,-0.0236667,-0.0105745,-0.0124208,0.1680171,-0.0102388,-0.0533761
1210,0.5632759,0.0253452,-0.0070497,-0.0229953,-0.0099031,0.0018463,0.1394827,-0.0099031,-0.0041962
1211,0.5637414,0.0240024,-0.0166171,-0.0229953,-0.0085603,0.0025177,0.1228656,-0.0102388,0.0417945
1212,0.5642069,0.023331,-0.0273594,-0.0238346,-0.008896,-0.0068818,0.1085985,-0.0085603,0.0706645
1213,0.5646724,0.0234989,-0.0357519,-0.0250095,-0.0099031,-0.012253,0.0652934,-0.0068818,0.0760357
1214,0.5651379,0.023331,-0.0411231,-0.0260166,-0.0095674,-0.0115816,-0.0142672,-0.0072175,0.0616007
1215,0.5656034,0.0226596,-0.0431373,-0.0260166,-0.0068818,-0.0142672,-0.0850996,-0.0075532,0.0365911
1216,0.566069,0.0223239,-0.0381018,-0.0250095,-0.0058747,-0.0182956,-0.1156481,-0.0063783,0.0119173
1217,0.5665345,0.021149,-0.0250095,-0.0240024,-0.0070497,-0.0182956,-0.1307546,-0.005539,-0.0005035
1218,0.567,0.0209812,-0.0130922,-0.0231632,-0.0083925,-0.0172885,-0.1666743,-0.0038605,-0.0035248
1219,0.5674655,0.0209812,-0.008896,-0.0229953,-0.0102388,-0.0223239,-0.1834592,-0.002182,-0.0068818
