Time,Rectus Femoris right,Rectus Femoris left,Hamstrings right,Hamstrings left,TibilaisÂ Anterior right,TibilaisÂ Anterior left,Gastrocnemius right,Gastrocnemius left
0.0,-0.0007173176950611004,0.0009458435431269611,-0.007521582082303902,-0.006158221883225704,0.0012883651908616918,-0.001928555530848181,0.0006831803093666572,-0.008333893925435595
0.0004655,-0.0006601388791887866,0.0010030787744961672,-0.007309893472558767,-0.005629440009562266,0.0013333670297015086,-0.001690887646185423,0.0006536513960415745,-0.007659755784476591
0.000931,-0.0006033078906157682,0.0010609468359753034,-0.007094313085958034,-0.005101506207169998,0.0013787629752740854,-0.0014520789058071512,0.0006240865057075312,-0.006989389049346499
0.0013966,-0.0005468312010700546,0.001119448946042558,-0.006874810446579419,-0.004574496028299033,0.0014245523931461644,-0.0012121489198087493,0.0005945001560691674,-0.00632289261096919
0.0018621,-0.0004907151203012769,0.0011785862665079458,-0.006651355336909734,-0.004048484869948124,0.0014707346287103464,-0.0009711175112205135,0.0005649071588671777,-0.005660364289717125
0.0023276,-0.0004349657923189404,0.0012383599020666818,-0.006423917806857434,-0.0035235479503836482,0.001517309008124629,-0.0007290047118544083,0.0005353226204021917,-0.005001900800788539
0.0027931,-0.0003795891916830615,0.001298770899844384,-0.0061924681828436365,-0.0029997602857260684,0.00156427483925732,-0.0004858307581163611,0.0005057619419819237,-0.00434759772007846
0.0032586,-0.0003245911198499024,0.0013598202489333326,-0.005956977076971334,-0.00247719666661833,0.0016116314126357414,-0.00024161608678647197,0.0004762408202902669,-0.0036975494505672715
0.0037241,-0.0002699772015754749,0.001421508879919031,-0.0057174153962723795,-0.001955931634989643,0.0016593780023973232,3.6186692305567176e-06,0.00044677524767705714,-0.0030518491892503347
0.0041897,-0.00021575288137944164,0.0014838376643963214,-0.005473754352031658,-0.0014360394609271216,0.0017075138672419169,0.0002498526851825191,0.0004173815123672703,-0.002410588894631979
0.0046552,-0.00016192342007199253,0.0015468074144743393,-0.005225965469187695,-0.0009175941196669245,0.001756038251384393,0.0004970649487721258,0.0003880761985884456,-0.0017738592548068662
0.0051207,-0.0001084938913462196,0.0016104188822696265,-0.00497402059580885,-0.00040066926871596466,0.0018049503855068231,0.000745234264482588,0.0003588761866151478,-0.001141749656151509
0.0055862,-5.546917843845145e-05,0.0016746727593867925,-0.004717891912644103,0.00011466177488511292,0.0018542494877097184,0.0009943392579242812,0.00032979865272928877,-0.0005143481526484688
0.0060517,-2.853970858943609e-06,0.0017395696763862119,-0.004457551942747278,0.0006283260571471919,0.0019039347644619101,0.001244358380200498,0.00030086106909514457,0.0001082585641344699
0.0065172,4.93472388047467e-05,0.0018051102022383744,-0.004192973561173457,0.0011402510095558263,0.0019540054115487334,0.0014952699122904112,0.0002720812035479187,0.0007259851943880968
0.0069828,0.00010113015800944548,0.0018712948437646264,-0.003924130004746157,0.001650364471322055,0.002004460615018227,0.0017470519694475026,0.00024347711929472132,0.0013387478587068937
0.0074483,0.0001524906973009252,0.0019381240450641584,-0.003650994881893774,0.00215859471145092,0.0020552995521250926,0.001999682505611844,0.00021506717452685244,0.0019464641260144014
0.0079138,0.0002034249732792451,0.0020055981869271746,-0.0033735421825535857,0.002664870450618053,0.0021065213922721628,0.0022531393178347693,0.00018687002194229743,0.002549053040748545
0.0083793,0.00025392931148285265,0.0020737175862342483,-0.0030917462881415426,0.003169120882845116,0.0021581252979491253,0.0025074000507146264,0.0001589046081773573,0.0031464351492875584
0.0088448,0.00030400024918952016,0.002142482495341912,-0.0028055819815858713,0.0036712756969652883,0.0022101104256682545,0.0027624422008424533,0.00013119017314635562,0.003738532525598095
0.0093103,0.0003536345381322842,0.0022118931014545712,-0.0025150244574223784,0.0041712650978702965,0.002262475926896891,0.0030182431212565594,0.00010374624928838862,0.004325268796087944
0.0097759,0.00040282914712864884,0.0022819495259828685,-0.0022200493319491656,0.0046690198275307,0.0023152209489864114,0.003274780025905118,7.65926607201148e-05,0.004906569163646432
0.0102414,0.0004515812646214119,0.0023526518238886685,-0.0019206326534383213,0.005164471185781249,0.0023683446360974135,0.003532029994115959,4.9749522293616235e-05,0.005482360430856073
0.0107069,0.000499888301129569,0.002423999983016867,-0.0016167509124019905,0.005657551050863207,0.002421846130120846,0.0037899699750728083,2.323723855839717e-05,0.006052571022359468
0.0111724,0.0005477478916078478,0.0024959939234142684,-0.0013083810519100075,0.006148191899715612,0.002475724571594776,0.004048576792297262,-2.9234973733831424e-06,0.006617131006366001
0.0116379,0.0005951578977135256,0.002568633496635799,-0.0009955004779560641,0.006636326828007554,0.0025299791006164985,0.004307827148135817,-2.871170505932343e-05,0.007175972115283548
0.0121034,0.0006421164099792783,0.0026419184850383563,-0.0006780870698691669,0.007121889569903603,0.002584608857749675,0.004567697628251309,-5.410611805770165e-05,0.007729027765461232
0.012569,0.0006886217498909054,0.0027158486010625924,-0.00035611919076696436,0.007604814517554598,0.002639612984926207,0.004828164706118237,-7.90851853577519e-05,0.00827623307603021
0.0130345,0.000734672471868873,0.0027904234865029636,-2.9575698047410955e-05,0.008085036740306086,0.0026949906263425425,0.00508920474752153,-0.00010362707291012778,0.008817524886830685
0.0135,0.0007802673651527062,0.002865642711766377,0.00030156404608484334,0.008562492003616699,0.002750740929350152,0.005350794015058572,-0.00012770966525836236,0.009352841775414667
0.0139655,0.0008254054555873544,0.0029415057751197974,0.000637320164061004,0.009037116787678774,0.0028068630453398956,0.005612908672644495,-0.00015131056727211355,0.00988212407311569
0.014431,0.0008700860073107266,0.003018012101927204,0.000977712252363336,0.009508848305733512,0.002863356130620023,0.005875524790021007,-0.00017440710598296303,0.010405313880178345
0.0148966,0.0009143085243416498,0.003095161043876308,0.0013227593709167734,0.009977624522072926,0.002920219347287557,0.006138618347269215,-0.00019697633252351238,0.010922355079942235
0.0153621,0.0009580727520675453,0.0031729518781954498,0.0016724800324607117,0.010443384169720848,0.0029774518640928163,0.006402165239327001,-0.00021899502417049003,0.011433193352076397
0.0158276,0.0010013786786311643,0.003251383806861098,0.002026892191904772,0.010906066767785258,0.0030350528572968545,0.006666141280511594,-0.00024043968649253863,0.01193777618486134
0.0162931,0.0010442265362157715,0.003330455955796365,0.002386013235672333,0.011365612638474177,0.0030930215115216137,0.006930522209047948,-0.00026128655560329867,0.012436052886516611
0.0167586,0.0010866168022282325,0.0034101673740609397,0.002749859971035623,0.011821962923767457,0.0031513570205926236,0.0071952836916034935,-0.000281511600520343,0.012927974595572413
0.0172241,0.0011285502003795297,0.0034905170330328376,0.0031184486154461877,0.012275059601736915,0.003210058588374096,0.007460401327829815,-0.0003010905256304527,0.01341349429028438
0.0176897,0.0011700277016623063,0.0035715038255823765,0.0034917947858645643,0.012724845502507472,0.0032691254295962847,0.007725850654911704,-0.0003199987732616556,0.01389256679709157
0.0181552,0.0012110505252251134,0.0036531265652387742,0.0038699134880930313,0.013171264323852258,0.0033285567706750137,0.007991607152124049,-0.00033821152636237534,0.014365148798118727
0.0186207,0.0012516201391430963,0.0037353839853497923,0.004252819106115372,0.01361426064641513,0.003388351850523297,0.008257646245396929,-0.00035570371128796534,0.014831198837725247
0.0190862,0.001291738261084919,0.0038182747382348625,0.004640525391447642,0.01405377994855444,0.0034485099213549747,0.008523943311889267,-0.00037245000069483457,0.01529067732810458
0.0195517,0.0013314068588757765,0.0039017973943321566,0.0050330454525039795,0.014489768620802545,0.003509030249480334,0.00879047368457133,-0.00038842481654231494,0.015743546553939215
0.0200172,0.0013706281509564052,0.003985950441340074,0.005430391743981589,0.014922173979935944,0.0035699121160936652,0.009057212656816315,-0.0004036023332023793,0.016189770676117977
0.0204828,0.0014094046067380558,0.004070732283353654,0.005832576056269035,0.015350944282651673,0.0036311548180527134,0.00932413548700121,-0.0004179564806772899,0.01662931573452404
0.0209483,0.0014477389468534566,0.0041561412399964545,0.006239609504882061,0.015776028738846017,0.0036927576686500013,0.009591217403117061,-0.00043146094792523347,0.017062149649903696
0.0214138,0.0014856341433038581,0.004242175545548464,0.006651502519931144,0.016197377524492167,0.0037547199983759593,0.009858433607388747,-0.00044408918629398203,0.017488242224827526
0.0218793,0.0015230934195023204,0.00432883334807065,0.007068264835625052,0.016614941794113863,0.0038170411556738195,0.010125759280904204,-0.0004558144130626016,0.017907565143757173
0.0223448,0.0015601202502134608,0.00441611270852679,0.007489905479814623,0.017028673692852443,0.003879720507686192,0.010393169588253115,-0.00046660961509121726,0.018320091972231913
0.0228103,0.001596718361389946,0.004504011599903229,0.007916432763581024,0.017438526368125085,0.003942757440993223,0.010660639682174945,-0.0004764475525788289,0.01872579815519
0.0232759,0.0016328917299060707,0.00459252790632729,0.008347854270872711,0.017844453980872105,0.004006151362342211,0.010928144708216238,-0.0004853007629291636,0.019124661014440304
0.0237414,0.0016686445831888374,0.004681659422185043,0.00878417684819536,0.018246411716391367,0.004069901699368523,0.011195659809397079,-0.0004931415647245348,0.01951665974529977
0.0242069,0.0017039813987470205,0.004771403851239196,0.009225406594359097,0.018644355794757997,0.0041340079013076235,0.011463160130886586,-0.0004999420618076605,0.019901775412412327
0.0246724,0.0017389069035987697,0.004861758805747869,0.009671548850287485,0.019038243480827877,0.0041984694396980035,0.011730620824687416,-0.0005056741474713772,0.02027999094476479
0.0251379,0.0017734260735983935,0.004952721805585068,0.01012260818889288,0.019428033093823925,0.0042632858090747685,0.01199801705432919,-0.0005103095087561648,0.020651291129915074
0.0256034,0.0018075441326630397,0.005044290277363626,0.01057858840502299,0.01981368401650479,0.004328456527653599,0.012265323999570792,-0.0005138196308553812,0.021015662607448107
0.026069,0.0018412665519000771,0.005136461553561475,0.011039492505483648,0.02019515670391641,0.004393981138004793,0.012532516861111462,-0.0005161758016280856,0.021373093861674637
0.0265345,0.0018745990486360436,0.005229232871652048,0.011505322699143124,0.020572412691727614,0.004459859207717057,0.012799570865310583,-0.0005173491162193043,0.021723575213588246
0.027,0.001907547585348092,0.005322601373239664,0.011976080387123516,0.0209454146041515,0.004526090330050701,0.013066461268916004,-0.0005173104817875565,0.022067098812095655
0.0274655,0.0019401183684988946,0.005416564103200729,0.012451766153084867,0.021314126161454998,0.0045926741245798765,0.013333163363800804,-0.0005160306223394174,0.022403658624535513
0.027931,0.0019723178472759993,0.0055111180088316,0.012932379753607868,0.021678512187059396,0.004659610237823462,0.013599652481708488,-0.0005134800836708414,0.022733250426500845
0.0283966,0.002004152712236641,0.005606259939003972,0.013417920108680944,0.022038538614234757,0.0047268983438641865,0.013865903999006847,-0.0005096292384149085,0.023055871790980342
0.0288621,0.002035629893859021,0.005701986643328687,0.01390838529229762,0.022394172492391506,0.004794538144955551,0.014131893341450952,-0.0005044482911955966,0.023371522076833844
0.0293276,0.002066756561001066,0.0057982947713289155,0.014403772523169978,0.02274538199297251,0.004862529372116084,0.014397595988956024,-0.0004979072838871126,0.02368020241661753
0.0297931,0.002097540119267704,0.0058951808716236915,0.014904078155564066,0.02309213641494909,0.004930871785710443,0.014662987480381123,-0.0004899761009782645,0.023981915703774306
0.0302586,0.002127988209287709,0.005992641391122906,0.015409297670263122,0.023434406189924338,0.004999565176016907,0.014928043418324715,-0.00048062447504130927,0.0242766665792051
0.0307241,0.002158108704901217,0.006090672674234838,0.01591942566566455,0.02377216288684697,0.005068609363780774,0.015192739473933221,-0.0004698219923046789,0.024564461417236647
0.0311897,0.002187909711259043,0.006189270962087414,0.0164344558490165,0.024105379216338912,0.005138004200753206,0.015457051391723594,-0.0004575380983289586,0.024845308311001423
0.0316552,0.0022173995628349766,0.006288432391764387,0.016954381027799992,0.024434029034639565,0.005207749570215077,0.015720954994421017,-0.00044374210378545517,0.025119217057245326
0.0321207,0.0022465868213522393,0.006388152995557692,0.017479193101262405,0.024758087347169534,0.0052778453874853075,0.015984426187812605,-0.0004284031903366419,0.025386199140578696
0.0325862,0.0022754802736253093,0.006488428700237288,0.018008883052108172,0.025077530311716487,0.005348291600413212,0.016247440965617973,-0.00041149041661770516,0.025646267717186318
0.0330517,0.002304088929318331,0.006589255326339769,0.018543440938352397,0.025392335241245585,0.0054190881898542875,0.016509975414377324,-0.00039297272431835297,0.02589943759801191
0.0335172,0.0023324220186213005,0.006690628587477107,0.019082855885343065,0.02570248060633676,0.005490235170128875,0.016772005718357703,-0.0003728189443639841,0.02614572523143279
0.0339828,0.0023604889898452197,0.00679254408966689,0.019627116077957474,0.026007946037251,0.005561732589463076,0.017033508164477833,-0.00035099780319526234,0.02638514868544035
0.0344483,0.002388299506937402,0.006894997330685392,0.02017620875297847,0.026308712325627724,0.00563358053041129,0.017294459147251865,-0.00032747792914508504,0.026617727629341992
0.0349138,0.0024158634469180914,0.006997983699444796,0.02073012019165612,0.026604761425815044,0.005705779110259731,0.017554835173752194,-0.0003022278589118645,0.026843483315000208
0.0353793,0.0024431908972395474,0.0071014984753959304,0.0212888357124604,0.026896076455834788,0.005778328481410266,0.017814612868591487,-0.0002752160441279551,0.02706243855762438
0.0358448,0.0024702921530687545,0.0072055368279578,0.021852339664030523,0.02718264169798383,0.005851228831743951,0.018073768978923873,-0.00024641085802195646,0.027274617716131072
0.0363103,0.0024971777144948914,0.007310093815975174,0.02242061541832649,0.02746444259907333,0.005924480384963616,0.018332280379465167,-0.00021578060217352095,0.027480046673088412
0.0367759,0.0025238582836627135,0.007415164387205512,0.02299364536398847,0.027741465770307245,0.005998083400914923,0.018590124077531876,-0.00018329351335920373,0.02767875281426019
0.0372414,0.002550344761833002,0.007520743377836465,0.023571410899909585,0.02801369898680134,0.006072038175885312,0.01884727721809861,-0.0001489177704878192,0.027870765007765252
0.0377069,0.0025766482463712363,0.007626825512035172,0.02415389242902751,0.028281131186743882,0.006146345042880315,0.01910371708887346,-0.00011262150162371143,0.02805611358286767
0.0381724,0.0026027800276656604,0.007733405401530538,0.024741069352340335,0.028543752470199097,0.00622100437187674,0.019359421125390693,-7.437279109630477e-05,0.028234830308413207
0.0386379,0.0026287515859758984,0.007840477545229653,0.025332920063151836,0.028801554097554364,0.0062960165700522595,0.019614366916120094,-3.413968669427452e-05,0.028406948370927325
0.0391034,0.0026545745882132744,0.007948036328869472,0.025929421941551258,0.029054528487612013,0.0063713820819909965,0.019868532207592125,8.109793057338781e-06,0.028572502352390148
0.039569,0.002680260884653975,0.00805607602470477,0.026530551349132556,0.02930266921532659,0.0064471013898646885,0.02012189490953789,5.2407651538758785e-05,0.028731528207703493
0.0400345,0.002705822505586188,0.008164590791233396,0.027136283623957883,0.029545971009188477,0.006523175013589026,0.020374433100042864,9.878590659754203e-05,0.028884063241865092
0.0405,0.0027312716578923183,0.008273574672959767,0.02774659307576988,0.029784429748254685,0.006599603510954787,0.02062612503071316,0.0001472765830327937,0.029030146086864994
0.0409655,0.0027566207215673757,0.008383021600197466,0.028361452981457303,0.03001804245882792,0.0066763874777333795,0.02087694913185297,0.00019791170500325572,0.029169816678319034
0.041431,0.002781882246174623,0.008492925388911774,0.0289808355807782,0.030246807310785148,0.006753527547756373,0.021126884017651604,0.000250723288361017,0.029303116231854068
0.0418966,0.002807068947239562,0.008603279740602886,0.029604712072344757,0.03047072361355716,0.006831024392968609,0.02137590849137852,0.0003057433329126271,0.029430087219259563
0.0423621,0.0028321937025833203,0.008714078242230479,0.03023305260987379,0.030689791811760906,0.006908878723454481,0.021624001550584436,0.00036300381460943,0.02955077334441989
0.0428276,0.002857269548596508,0.008825314366180283,0.030865826298706562,0.030904013480486704,0.006987091287436954,0.021871142392306545,0.0004225366776689714,0.029665219519041577
0.0432931,0.0028823096764546137,0.008936981470273206,0.031503001192601444,0.031113391320242663,0.0070656628712489535,0.022117310418275592,0.00048437382662936806,0.02977347183818958
0.0437586,0.0029073274282759905,0.009049072797817543,0.032144544290802594,0.031317929151558795,0.0071445942992766995,0.022362485240122503,0.0005485471183385553,0.02987557755564648
0.0442241,0.0029323362932234826,0.009161581477704734,0.03279042153538773,0.03151763190925358,0.007223886433874647,0.022606646684581937,0.0006150883538803507,0.029971585059108224
0.0446897,0.0029573499035507583,0.00927450052454909,0.03344059780889768,0.0317125056363658,0.007303540175251627,0.022849774798690152,0.0006840292704392912,0.030061543845229955
0.0451552,0.0029823820305944116,0.00938782283887185,0.03409503693225028,0.0319025574777545,0.007383556461327826,0.023091849854974315,0.0007554015331062209,0.03014550449453524
0.0456207,0.0030074465807129174,0.009501541207329857,0.034753701662940784,0.032087795673370084,0.007463936267562215,0.023332852356630365,0.0008292367266266166,0.03022351864620168
0.0460862,0.003032557591173553,0.009615648302989136,0.03541655369353084,0.032268229551199415,0.007544680606750025,0.023572763042686455,0.0009055663470936588,0.030295638972735787
0.0465517,0.0030577292259884002,0.009730136685643542,0.03608355365042772,0.03244386951988772,0.007625790528789854,0.02381156289314897,0.0009844217935880586,0.03036191915454963
0.0470172,0.0030829757717005866,0.009844998802178716,0.03675466109295542,0.03261472706104019,0.0077072671204199625,0.024049233134128142,0.0010658343597666675,0.0304224138544516
0.0474828,0.003108311633121927,0.009960226986981442,0.03742983451271878,0.032780814721206086,0.007789111504923297,0.024285755242940466,0.0011498352254019082,0.030477178692063244
0.0479483,0.0031337513290231557,0.010075813462394537,0.03810903133326184,0.032942146103548633,0.007871324841800772,0.024521110953185075,0.0012364554478740879,0.030526270218174077
0.0484138,0.0031593094877779317,0.010191750339217343,0.038792207910021276,0.03309873585920409,0.007953908326412294,0.02475528225979153,0.001325725953618683,0.03056974588904578
0.0488793,0.0031850008429618096,0.010308029617251791,0.03947931953057532,0.03325059967833392,0.008036863189585,0.024988251424036524,0.0014176775295307296,0.03060766404067718
0.0493448,0.0032108402289073392,0.01042464318589402,0.04017032041518881,0.033397754280874464,0.00812019069718817,0.02522000097852724,0.0015123408143284894,0.030640083863041113
0.0498103,0.0032368425762164593,0.010541582824771464,0.04086516371765438,0.03354021740698873,0.008203892149674197,0.025450513732149054,0.00160974628987861,0.030667065374304022
0.0502759,0.003263022907231319,0.010658840204425327,0.04156380152642983,0.033678007807225616,0.008287968881585072,0.025679772774975424,0.0017099242724850482,0.03068866939503917
0.0507414,0.003289396331464655,0.010776406887038332,0.04226618486607131,0.03381114523239195,0.008372422261023704,0.0259077614831377,0.0018129049041440601,0.030704957522444107
0.0512069,0.0033159780409908178,0.010894274327207592,0.04297226369896211,0.03393965042314327,0.008457253689089516,0.026134463523652326,0.0019187181437676072,0.030715992104573007
0.0516724,0.0033427833057985325,0.011012433872762446,0.043681986927336165,0.03406354509929936,0.008542464599277601,0.026359862859202984,0.002027393758377558,0.030721836214594376
0.0521379,0.0033698274691064544,0.011130876765627106,0.04439530239559585,0.03418285194889096,0.008628056456840812,0.026583943752875067,0.0021389613142730884,0.030722553625084418
0.0526034,0.003397125942642579,0.011249594142727795,0.04511215689292315,0.03429759461694433,0.008714030758114095,0.026806690772839807,0.002253450168173705,0.030718208782366294
0.053069,0.003424694201888572,0.0113685770369441,0.04583249615618338,0.03440779769401036,0.008800389029800416,0.027028088796985622,0.0023708894583403376,0.030708866780905234
0.0535345,0.0034525477812901106,0.011487816378104207,0.04655626487312049,0.034513486704445234,0.00888713282821759,0.027248123017494245,0.00249130809567698,0.030694593337769326
0.054,0.0034807022694343637,0.01160730299402348,0.04728340668584332,0.034614688094449654,0.008974263738505347,0.027466778945359524,0.0026147347548153956,0.030675454767165503
0.0544655,0.0035091733041957727,0.011727027611585904,0.048013864194601776,0.03471142921987362,0.009061783373791947,0.027684042414847038,0.0027411978651854215,0.030651517955060062
0.054931,0.0035379765678513362,0.011846980857867787,0.04874757896185249,0.03480373833379347,0.009149693374319735,0.027899899587892886,0.0028707256020734538,0.030622850333892948
0.0553966,0.003567127782166651,0.01196715326130304,0.0494844915166132,0.03489164457386783,0.009237995406529035,0.028114336958440053,0.0030033458776717427,0.0305895198573946
0.0558621,0.003596642703453999,0.012087535252889449,0.050224541359105236,0.03497517794947887,0.009326691162099889,0.028327341356710865,0.0031390863321211987,0.030551594975514126
0.0563276,0.0036265371176037904,0.012208117167435237,0.050967666965683785,0.035054369328665326,0.009415782356951228,0.028538899953413917,0.0032779743245504645,0.030509144609467236
0.0567931,0.003656826835090707,0.012328889244845329,0.051713805794055163,0.03512925042485325,0.009505270730197123,0.02874900026388377,0.003420036924114079,0.030462238126912174
0.0572586,0.0036875276859559096,0.012449841631446707,0.05246289428878063,0.03519985378339059,0.009595158043059859,0.02895763015215166,0.003565300901032569,0.030410945317261562
0.0577241,0.0037186555147666785,0.012570964381352306,0.05321486788706574,0.03526621276789177,0.009685446077739586,0.02916477783494535,0.003713792717637351,0.030355336367137907
0.0581897,0.0037502261755548573,0.01269224745786296,0.05396966102483447,0.03532836154639822,0.009776136636240287,0.02937043188561611,0.003865538519423312,0.0302954818359804
0.0586552,0.003782255526735511,0.012813680734906898,0.054727207143087,0.03538633507736097,0.00986723153915181,0.02957458123799101,0.004020564126111931,0.030231452631810284
0.0591207,0.003814759426007182,0.01293525399851637,0.05548743869453979,0.0354401690954513,0.009958732624387616,0.029777215190148282,0.004178895022727809,0.03016331998716206
0.0595862,0.003847753725235131,0.013056956948340945,0.05625028715054662,0.035489900097205714,0.010050641745877897,0.02997832340811359,0.004340556350691471,0.030091155435187422
0.0600517,0.0038812542653189727,0.013178779199197169,0.05701568300829919,0.03553556532651119,0.010142960772217609,0.030177895929474795,0.004505572898931304,0.030015030785938767
0.0605172,0.0039152768710460795,0.01330071028265413,0.05778355579830557,0.03557720275993704,0.010235691585268856,0.03037592316691261,0.004673969095017534,0.029935018102838717
0.0609828,0.003949837345932125,0.01342273964865467,0.05855383409214446,0.03561485109191939,0.010328836078717074,0.03057239591164438,0.004845768996321133,0.029851189679342045
0.0614483,0.003984951467050131,0.013544856667171893,0.05932644551049336,0.0356485497198046,0.010422396156580388,0.030767305336778017,0.005020996281200575,0.029763618015795953
0.0619138,0.004020634979849356,0.01366705062990063,0.06010131673142814,0.03567833872875756,0.01051637373167156,0.03096064300057306,0.005199674240219369,0.029672375796504658
0.0623793,0.004056903592965369,0.013789310751983573,0.0608783734989915,0.035704258876541176,0.01061077072401195,0.031152400849605577,0.005381825767397335,0.029577535867003697
0.0628448,0.004093772973022629,0.01391162617377176,0.061657540632027726,0.03572635157817288,0.01070558905919706,0.0313425712218336,0.005567473351498624,0.029479171211549353
0.0633103,0.004131258739430882,0.014033985962619075,0.062438742033281584,0.035744658890464034,0.010800830666713264,0.03153114684955952,0.005756639067359551,0.02937735493082826
0.0637759,0.004169376459176697,0.014156379114710496,0.06322190069875973,0.03575922349644799,0.010896497478205492,0.03171812086228594,0.0059493445672593095,0.029272160219891947
0.0642414,0.004208141641611461,0.014278794556923716,0.06400693872735345,0.035770088689702474,0.010992591425695752,0.03190348678946112,0.006145611072336752,0.029163660346321008
0.0647069,0.004247569733237167,0.014401221148723801,0.06479377733072261,0.0357772983585717,0.011089114439752369,0.03208723856311028,0.006345459364056383,0.029051928628623234
0.0651724,0.004287676112491366,0.014523647684090436,0.06558233684344134,0.03578089697029345,0.011186068447609917,0.0322693705203485,0.006548909775726749,0.02893703841486994
0.0656379,0.004328476084532638,0.014646062893477283,0.06637253673340685,0.035780929555036395,0.01128345537123981,0.032449877405771266,0.006755982184074378,0.028819063061574286
0.0661034,0.004369984876027949,0.014768455445802842,0.06716429561251382,0.03577744168985262,0.011381277125371436,0.03262875437371819,0.006966696000876409,0.028698075912815427
0.066569,0.004412217629943304,0.014890813950472176,0.06795753124759715,0.03577047948255024,0.011479535615463709,0.03280599699040558,0.007181070164655002,0.028574150279611802
0.0670345,0.004455189400339089,0.015013126959428658,0.06875216057164679,0.0357600895554909,0.011578232735626809,0.032981601235923565,0.007399123132436572,0.02844735941954691
0.0675,0.004498915147171559,0.015135382969234919,0.06954809969529833,0.03574631902931692,0.01167737036649389,0.033155563506093354,0.0076208728715788385,0.028317776516650378
0.0679655,0.0045434097311019064,0.015257570423182036,0.07034526391860363,0.035729215506612635,0.011776950373042562,0.03332788061418068,0.007846336851668636,0.0281854746615371
0.068431,0.004588687908314427,0.015379677713425946,0.07114356774308513,0.0357088270555045,0.011876974602366095,0.03349854979246165,0.008075532036493343,0.02805052683180694
0.0688966,0.004634764325345287,0.015501693183150074,0.0719429248840779,0.03568520219320457,0.011977444881394437,0.03366756869363739,0.008308474876088795,0.027913005872707147
0.0693621,0.004681653513923438,0.015623605128753217,0.07274324828336233,0.0356583898695016,0.012078363014565337,0.03383493539209433,0.008545181298866479,0.027772984478059554
0.0698276,0.004729369885825286,0.015745401802061645,0.0735444501220905,0.03562843945020418,0.012179730781446163,0.03400064838500662,0.008785666703822801,0.027630535171454213
0.0702931,0.004777927727744714,0.015867071412564517,0.07434644183400883,0.03559540070054003,0.012281549934307181,0.03416470659327751,0.009029945952833249,0.02748573028771104
0.0707586,0.004827341196180098,0.015988602129671774,0.07514913411897864,0.03555932376851551,0.012383822195647277,0.03432710936231641,0.009278033363034236,0.0273386419546108
0.0712241,0.004877624312339981,0.016109982084993826,0.07595243695679621,0.03552025916823898,0.012486549255673137,0.034487856462648334,0.009529942699295434,0.027189342074896632
0.0716897,0.004928790957069045,0.0162311993746425,0.07675625962131313,0.03547825776321163,0.01258973276973307,0.034646948090353215,0.009785687166785335,0.02703790230854715
0.0721552,0.004980854865796044,0.01635224206155292,0.07756051069485705,0.035433370749589216,0.012693374355706635,0.03480438486733259,0.010045279403632791,0.026884394055322294
0.0726207,0.005033829623505288,0.01647309817782615,0.0783650980829528,0.035385649639417815,0.0127974755913514,0.03496016784140227,0.010308731473687147,0.02672888843758312
0.0730862,0.005087728659733305,0.01659375572709263,0.07916992902934358,0.03533514624384701,0.012902038011608424,0.03511429848621015,0.010576054859379572,0.026571456283386738
0.0735517,0.005142565243592211,0.016714202686896478,0.07997491013131108,0.035281912656323605,0.013007063105868175,0.035266778700978885,0.01084726045468811,0.026412168109857942
0.0740172,0.005198352478821356,0.016834427011100994,0.08077994735529424,0.03522600123576928,0.013112552315198943,0.035417610810073503,0.011122358558208985,0.026251094106838797
0.0744828,0.005255103298868757,0.016954416632315585,0.08158494605280571,0.03516746458974567,0.013218507029539875,0.03556679756239443,0.011401358866336737,0.02608830412081774
0.0749483,0.0053128304620038615,0.017074159464344558,0.08238981097664558,0.0351063555576103,0.01332492858486084,0.035714342130596446,0.011684270466555735,0.02592386763913955
0.0754138,0.005371546546463182,0.01719364340465813,0.083194446297412,0.0350427271936671,0.013431818260291415,0.035860248110134586,0.011971101830845796,0.025757853774497387
0.0758793,0.0054312639456303245,0.017312856336886142,0.08399875562030823,0.03497663275031537,0.013539177275221243,0.03600451951813792,0.012261860809204569,0.025590331249708005
0.0763448,0.005491994863251997,0.01743178613333489,0.08480264200224617,0.03490812566120096,0.013647006786374078,0.03614716079211266,0.012556554623289447,0.025421368382771033
0.0768103,0.0055537513086915185,0.01755042065752749,0.0856060079692465,0.034837259524373866,0.013755307884857836,0.03628817678847551,0.012855189860181708,0.025251033072212943
0.0772759,0.005616545092221413,0.0176687477667681,0.08640875553413545,0.03476408808545651,0.013864081593192997,0.036427572780918446,0.0131577724662756,0.02507939278271625
0.0777414,0.005680387820356606,0.017786755314730195,0.08721078621453902,0.03468866522082696,0.013973328862321735,0.036565354458606064,0.013464307741294925,0.0249065145310342
0.0782069,0.005745290891229746,0.01790443115406905,0.08801200105117479,0.034611044920821836,0.014083050568600113,0.036701527924206764,0.013774800332439703,0.02473246487219126
0.0786724,0.005811265490010149,0.018021763139058376,0.08881230062644202,0.034531281272963565,0.014193247510775681,0.036836099691759064,0.014089254228665396,0.024557309885969485
0.0791379,0.005878322584367799,0.018138739128250952,0.08961158508331038,0.03444942844521698,0.014303920406952803,0.0369690766843745,0.014407672755097073,0.024381115163680984
0.0796034,0.005946472919983816,0.018255346987163114,0.09040975414450757,0.03436554066928052,0.014415069891547996,0.03710046623177865,0.014730058567580872,0.02420394579522645
0.080069,0.0060157270161087665,0.01837157459098266,0.09120670713200604,0.03427967222391731,0.01452669651223764,0.0372302760676922,0.015056413647374974,0.024025866356439964
0.0805345,0.006086095161170116,0.018487409827299874,0.09200234298680858,0.03419187741833156,0.014638800726900351,0.03735851432705404,0.015386739295982298,0.023846940896719845
0.081,0.006157587408430115,0.01860284059886116,0.09279656028903237,0.034102210575595704,0.014751382900556439,0.03748518954308909,0.01572103613012706,0.023667232926945437
0.0814655,0.006230213571695365,0.018717854826344856,0.09358925727829094,0.034010726016133704,0.014864443302306999,0.03761031064422357,0.01605930407687745,0.02348680540767955
0.081931,0.006303983221079276,0.01883244045115862,0.09438033187437277,0.033917478041265665,0.014977982102275281,0.037733886950850726,0.01640154236891655,0.023305720737656153
0.0823966,0.006378905678818601,0.018946585438257967,0.0951696816982154,0.033822520916818866,0.015091999368553035,0.037855928171950194,0.01674774953996382,0.023124040742553153
0.0828621,0.006454990015145175,0.019060277778985297,0.09595720409317308,0.03372590885681024,0.01520649506415457,0.03797644440156431,0.017097923420349267,0.02294182666404994
0.0833276,0.006532245044214034,0.019173505493928843,0.09674279614657592,0.03362769600720523,0.015321469043981186,0.03809544611513488,0.01745206113274265,0.02275913914916974
0.0837931,0.006610679320089003,0.019286256635800945,0.09752635471157879,0.03352793642975817,0.015436921051798516,0.03821294416570399,0.017810159088039772,0.02257603823990703
0.0842586,0.006690301132786851,0.01939851929233511,0.09830777642929922,0.03342668408593932,0.015552850717229172,0.03832894977998242,0.01817221298140801,0.022392583363140376
0.0847241,0.006771118504381085,0.019510281589201223,0.09908695775124365,0.03332399282095375,0.015669257552763032,0.038443474554289245,0.018538217788493114,0.022208833320831182
0.0851897,0.006853139185166426,0.01962153169293841,0.09986379496202263,0.0332199163478576,0.01578614095078741,0.038556530450366534,0.01890816776178919,0.022024846280509023
0.0856552,0.006936370649884953,0.019732257813905058,0.10063818420235601,0.033114508231777244,0.015903500180639244,0.03866812979107308,0.019282056427173826,0.021840679766044306
0.0861207,0.007020820094014883,0.01984244820924551,0.10141002149236951,0.033007821874236995,0.016021334385681436,0.038778285255961414,0.019659876580610205,0.0216563906487089
0.0865862,0.007106494430122938,0.019952091185872992,0.1021792027551839,0.032899910497601124,0.016139642580405664,0.038887009876742616,0.020041620285018012,0.021472035138525424
0.0870517,0.007193400284281206,0.020061175103468415,0.1029456238407982,0.032790827129636026,0.01625842364756397,0.03899431703264329,0.020427278867314737,0.021287668775905814
0.0875172,0.007281543992549461,0.02016968837749465,0.10370918055026745,0.03268062458819833,0.01637767633533166,0.03910022044565935,0.020816842915628946,0.02110334642357968
0.0879828,0.007370931597523866,0.020277619482225923,0.10446976866017549,0.032569355466054904,0.01649739925450419,0.03920473417571089,0.02121030227668688,0.02091912225881286
0.0884483,0.007461568844953062,0.02038495695379199,0.10522728394740195,0.03245707211584071,0.01661759087573071,0.03930787261570246,0.02160764605337359,0.02073504976591645
0.0889138,0.007553461180422581,0.020491689393236808,0.10598162221418246,0.032343826635160305,0.01673824952678703,0.03940965048649267,0.022008862602469675,0.020551181729046488
0.0893793,0.007646613746108567,0.020597805469591283,0.1067326793134597,0.03222967085183904,0.016859373389890693,0.039510082831776934,0.02241393953256445,0.02036757022529422
0.0898448,0.0077410313776017205,0.020703293922959717,0.10748035117452281,0.03211465630932971,0.016980960499060848,0.03960918501288682,0.022822863702146333,0.02018426661806685
0.0903103,0.00783671860080236,0.02080814356761955,0.10822453382893138,0.031998834252280645,0.017103008737525707,0.03970697270350916,0.023235621217870865,0.020001321550758497
0.0907759,0.007933679628887446,0.02091234329513382,0.10896512343672064,0.0318822556122709,0.017225515835180536,0.03980346188432783,0.02365219743300685,0.019818784940710835
0.0912414,0.008031918359350335,0.021015882077475838,0.10970201631288357,0.031764970993718396,0.017348479366099293,0.039898668837590794,0.02407257694606071,0.019636705973462894
0.0917069,0.008131438371114007,0.021118748970165368,0.11043510895412575,0.03164703065996654,0.017471896746103235,0.03999261014160466,0.024496743599579075,0.01945513309728928
0.0921724,0.008232242921718418,0.02122093311541558,0.11116429806588943,0.031528484519554804,0.01759576523039007,0.04008530266515887,0.024924680479129345,0.01927411401802593
0.0926379,0.008334334944582597,0.021322423745289892,0.11188948058964288,0.031409382112678644,0.017720081911227224,0.04017676356188127,0.02535636991245804,0.019093695694182365
0.0931034,0.008437717046342061,0.02142321018486769,0.11261055373043169,0.03128977259784394,0.017844843715713,0.04026701026452668,0.025791793468826422,0.018913924332339297
0.093569,0.00854239150426208,0.021523281855417783,0.11332741498468865,0.031169704738720917,0.017970047403609492,0.040356060479199665,0.026230931958522885,0.01873484538283024
0.0940345,0.008648360263727256,0.02162262827757833,0.11403996216829976,0.031049226891202302,0.01809568956525114,0.040443932179512476,0.026673765432551427,0.01855650353570567
0.0945,0.008755624935807924,0.021721239074541772,0.11474809344492307,0.030928386990670274,0.018221766619532787,0.04053064360067885,0.027120273182495474,0.018378942716978083
0.0949655,0.008864186794903835,0.021819103975243247,0.11545170735455781,0.030807232539476506,0.018348274811981192,0.04061621323354412,0.02757043374055632,0.01820220608514623
0.095431,0.008974046776465587,0.02191621281755068,0.11615070284236095,0.03068581059463931,0.018475210212913807,0.04070065981855151,0.028024224879765167,0.018026336027996474
0.0958966,0.00908520547479431,0.0220125555514547,0.11684497928770753,0.030564167755761745,0.01860256871568859,0.04078400233964445,0.028481623614367724,0.017851374159679332
0.0963621,0.00919766314092013,0.022108122242256386,0.11753443653349083,0.03044235015317413,0.018730346035048587,0.040866260018104485,0.028942606200380222,0.017677361318058884
0.0968276,0.009311419680559879,0.022202903073750568,0.11821897491565735,0.030320403436304398,0.01885853770556469,0.04094745230632419,0.029407148136315602,0.017504337562332727
0.0972931,0.009426474652154584,0.022296888351402328,0.1188984952929706,0.030198372762279265,0.018987139080180186,0.04102759888151474,0.02987522416407852,0.017332342170919973
0.0977586,0.009542827264987204,0.022390068505514164,0.11957289907699692,0.030076302784759167,0.019116145328860277,0.041106719639347596,0.0303468082700278,0.017161413639614674
0.0982241,0.009660476377381082,0.022482434094381103,0.12024208826230529,0.029954237643009633,0.019245551437349927,0.04118483468753034,0.03082187368620475,0.016991589680001952
0.0986897,0.009779420494979575,0.02257397580743101,0.12090596545687216,0.029832220951211668,0.01937535220604303,0.04126196433931691,0.031300392891725766,0.016822907218133995
0.0991552,0.009899657769107218,0.02266468446834735,0.12156443391268143,0.029710295788013687,0.019505542248965942,0.04133812910695274,0.031782337614337554,0.01665540239346299
0.0996207,0.010021185995212813,0.022754551038171512,0.12221739755650905,0.029588504686327323,0.019636115992878227,0.041413349695055876,0.032267678832133155,0.0164891105580281
0.1000862,0.010144002611394717,0.022843566618381925,0.12286476102088056,0.02946688962336947,0.019767067676493333,0.04148764699393551,0.03275638677542702,0.01632406627589356
0.1005517,0.010268104697008631,0.022931722453947423,0.12350642967518909,0.02934549201095267,0.01989839134982187,0.041561042072849566,0.03324843092878723,0.01616030332283507
0.1010172,0.010393488971358139,0.02301900993635223,0.12414230965696098,0.029224352686025957,0.020030080873639906,0.04163355617320325,0.03374378003322296,0.015997854686271674
0.1014828,0.0105201517924682,0.023105420606590193,0.12477230790325525,0.029103511901468187,0.020162129919084646,0.041705210701690545,0.03424240208852528,0.015836752565440464
0.1019483,0.010648089155941766,0.02319094615812609,0.12539633218218224,0.02898300931713572,0.020294531967379733,0.04177602722338052,0.034744264355759544,0.01567702837181143
0.1024138,0.01077729669389962,0.023275578439821948,0.1260142911245265,0.02886288399116637,0.020427280309692143,0.041846027454750925,0.03524933335990795,0.015518712729739956
0.1028793,0.010907769674003575,0.02335930945882668,0.12662609425545843,0.028743174371541395,0.020560368047122603,0.04191523325667179,0.03575757489266093,0.015361835477354467
0.1033448,0.0110395029985631,0.02344213138342748,0.12723165202632006,0.028623918287907495,0.020693788090831243,0.04198366662734245,0.03626895401535605,0.015206425667676878
0.1038103,0.011172491203725597,0.023524036545861642,0.1278308758464698,0.028505152943660576,0.020827533162300103,0.04205134969518591,0.036783435062063115,0.015052511569973396
0.1042759,0.011306728458750538,0.02360501744508766,0.12842367811517164,0.028386914908293145,0.020961595793733835,0.04211830471170475,0.03730098164281419,0.014900120671333261
0.1047414,0.011442208565367823,0.02368506674951462,0.12900997225351502,0.028269240110007112,0.02109596832859985,0.04218455404430321,0.03782155664697683,0.014749279678472883
0.1052069,0.011578924957220788,0.023764177299688997,0.12958967273635058,0.02815216382859389,0.021230642922308984,0.042250120169080134,0.03834512224676938,0.014600014519762818
0.1056724,0.011716870699394383,0.02384234211093796,0.13016269512422737,0.028035720688583586,0.02136561154303754,0.04231502566359787,0.03887163990091694,0.014452350347474902
0.1061379,0.011856038488029045,0.023919554375968318,0.13072895609531596,0.02791994465266509,0.02150086597269141,0.04237929319963233,0.039401070358447546,0.014306311540246803
0.1066034,0.011996420650020889,0.023995807467420225,0.13128837347730096,0.027804869015378816,0.021636397808012763,0.042442945535909465,0.03993337366262797,0.014161921705761131
0.107069,0.012138009142808815,0.024071094940374637,0.13184086627922578,0.027690526397083737,0.021772198461829685,0.0425060055108335,0.04046850915503925,0.014019203683636215
0.1075345,0.012280795554249093,0.024145410534813387,0.1323863547232713,0.0275769487382004,0.02190825916444891,0.04256849603521246,0.04100643547979245,0.013878179548525464
0.108,0.012424771102577961,0.024218748178030585,0.1329247602764494,0.027464167293731204,0.022044570965191503,0.04263044008498644,0.0415471105878851,0.01373887061342222
0.1084655,0.012569926636462747,0.024291101986993923,0.13345600568219196,0.0273522126280592,0.022181124734071328,0.042691860693963836,0.042090491741699224,0.013601297433166817
0.108931,0.01271625263514191,0.024362466270654085,0.13398001499181483,0.027241114610026474,0.022317911163615877,0.04275278094657099,0.04263653551964188,0.013465479808152521
0.1093966,0.01286373920865433,0.024432835532200617,0.134496713595837,0.027130902408292846,0.022454920770828838,0.04281322397062004,0.043185197820929354,0.01333143678822691
0.1098621,0.013012376098158222,0.02450220447126216,0.13500602825513405,0.027021604486975458,0.02259214389929359,0.04287321293009991,0.04373643387051642,0.013199186676785128
0.1103276,0.013162152676339908,0.024570567986048997,0.1355078871319052,0.02691324860156973,0.022729570721416695,0.04293277101799492,0.04429019822417242,0.013068747035051483
0.1107931,0.013313057947912732,0.024637921175435704,0.13600221982043287,0.026805861795151927,0.022867191240810228,0.04299192144913539,0.04484644477370592,0.012940134686545741
0.1112586,0.013465080550206333,0.024704259340981652,0.13648895737761274,0.026699470394863412,0.023004995294811623,0.043050687453084366,0.04540512675233993,0.012813365721730514
0.1117241,0.013618208753846485,0.024769577988887,0.13696803235323252,0.026594100008676562,0.02314297255713968,0.0431090922670644,0.04596619674023954,0.012688455502836147
0.1121897,0.013772430463525753,0.02483387283188186,0.13743937881997628,0.026489775522442256,0.02328111254068496,0.043167159128928295,0.04652960667019397,0.012565418668859515
0.1126552,0.013927733218865108,0.024897139791046227,0.13790293240313073,0.026386521097218733,0.023419404600432916,0.04322491127017753,0.04709530783345519,0.012444269140733124
0.1131207,0.014084104195366657,0.02495937499755847,0.13835863030996856,0.0262843601668814,0.023557837936517848,0.043282371909032,0.04766325088573481,0.012325020126660929
0.1135862,0.014241530205457582,0.025020574794369962,0.13880641135878352,0.026183315436013294,0.02369640159740563,0.043339564243554604,0.04823338585336154,0.012207684127617167
0.1140517,0.014399997699625338,0.02508073573780381,0.13924621600755127,0.026083408878075656,0.02383508448320305,0.04339651144483429,0.04880566213960105,0.01209227294300449
0.1145172,0.014559492767644094,0.02513985459907559,0.13967798638218965,0.025984661733858095,0.023973875349091508,0.04345323665023086,0.0493800285311402,0.011978797676467583
0.1149828,0.014720001139892245,0.025197928365734316,0.14010166630439164,0.025887094510207685,0.024112762808882658,0.04350976295668458,0.04995643320473773,0.011867268741858322
0.1154483,0.014881508188760741,0.025254954243022043,0.1405172013190044,0.025790726979036255,0.02425173533869349,0.04356611341409358,0.0505348237340435,0.011757695869348531
0.1159138,0.015043998930151865,0.025310929655150756,0.14092453872092692,0.025695578176605095,0.024390781280738294,0.043622311018761774,0.051115147096587765,0.01165008811168624
0.1163793,0.01520745802506792,0.025365852246495485,0.1413236275814992,0.02560166640308617,0.024529888847234824,0.04367837870691969,0.05169734968094208,0.011544453850591298
0.1168448,0.01537186978128926,0.025419719882702856,0.141714418774354,0.0255090092223989,0.02466904612442187,0.04373433934832032,0.05228137729405316,0.011440800803286183
0.1173103,0.015537218155140855,0.02547253065171449,0.1420968650007027,0.025417623462321428,0.024808241076685385,0.04379021573991161,0.052867175168750495,0.011339136029157733
0.1177759,0.015703486753346582,0.025524282864705074,0.14247092081402454,0.025327525214875243,0.02494746155079017,0.043846030599587124,0.05345468797142833,0.011239465936545557
0.1182414,0.015870658834970342,0.02557497505693498,0.14283654264413054,0.025238729836981846,0.025086695280214164,0.043901806560015744,0.05404385980990217,0.011141796289652742
0.1187069,0.01603871731344308,0.025624605988517665,0.14319368882057104,0.025151251951390112,0.0252259298895822,0.043957566162551094,0.05463463424143977,0.011046132215574569
0.1191724,0.016207644758674773,0.025673174645102128,0.14354231959535835,0.025065105447872844,0.025365152899196053,0.044013331851220895,0.05522695428096582,0.010952478211440774
0.1196379,0.01637742339925059,0.025720680238470853,0.14388239716497533,0.02498030348469099,0.02550435172965744,0.044069125966796144,0.055820762409439305,0.01086083815166693
0.1201034,0.016548035124710484,0.025767122207053822,0.14421388569164298,0.024896858490323723,0.02564351370658071,0.04412497074093975,0.05641600058240201,0.01077121529531037
0.120569,0.01671946148791158,0.02581250021635901,0.14453675132381993,0.0248147821654626,0.025782626065391695,0.04418088829043372,0.05701261023869625,0.010683612293526051
0.1210345,0.016891683707472946,0.025856814159319882,0.14485096221590982,0.024734085485267787,0.025921675956209308,0.04423690061148372,0.05761053230934938,0.010598031197117707
0.1215,0.017064682670302384,0.025900064156560175,0.14515648854715266,0.024654778701884244,0.026060650448806115,0.04429302957409969,0.05820970722662231,0.01051447346417953
0.1219655,0.017238438934205118,0.025942250556576056,0.14545330253967953,0.02457687134721552,0.0261995365376443,0.04434929691655043,0.05881007493321878,0.01043293996782364
0.122431,0.017412932730574354,0.02598337393583567,0.1457413784757113,0.024500372235952722,0.026338321146983285,0.044405724239890226,0.05941157489165169,0.010353431003988464
0.1228966,0.017588143967163884,0.02602343509879587,0.14602069271388424,0.024425289468855974,0.026476991136055252,0.044462333002554866,0.06001414609376255,0.01027594629932321
0.1233621,0.017764052230942965,0.026062435077835892,0.14629122370468745,0.024351630436285486,0.026615533304305026,0.04451914451502425,0.060617727070389246,0.010200485019143569
0.1238276,0.017940636791033845,0.026100375133107687,0.1465529520049986,0.02427940182197919,0.026753934396690878,0.04457617993454838,0.0612222559011773,0.010127045775453801
0.1242931,0.01811787660173235,0.026137256752302516,0.14680586029170664,0.024208609607073706,0.026892181109043126,0.04463346025993323,0.06182767022452896,0.01005562663503038
0.1247586,0.018295750305611973,0.026173081650333604,0.1470499333744113,0.02413925907436523,0.02703026009347759,0.04469100632638277,0.0624339072476843,0.009986225127562403
0.1252241,0.01847423623671189,0.026207851768934507,0.14728515820718963,0.02407135481280665,0.02716815796386086,0.044748838800392834,0.06304090375692785,0.00991883825384404
0.1256897,0.01865331242380921,0.0262415692761731,0.14751152389942151,0.024004900722237262,0.027305861301324452,0.044806978174692494,0.06364859612791378,0.009853462494014387
0.1261552,0.018832956593775804,0.0262742365658812,0.14772902172566543,0.023939900018340923,0.027443356659824822,0.04486544476322843,0.06425692033610268,0.009790093815840145
0.1266207,0.01901314617501992,0.02630585625699991,0.1479376451345766,0.02387635523782857,0.027580630571746263,0.044924258696187366,0.06486581196730237,0.0097287276830367
0.1270862,0.01919385830101297,0.026336431192841164,0.14813738975686086,0.023814268243840753,0.027717669553543496,0.04498343991505206,0.06547520622830529,0.009669359063623218
0.1275517,0.019375069813901902,0.02636596444026604,0.14832825341225828,0.023753640231565693,0.02785446011142079,0.04504300816768592,0.06608503795761554,0.009611982438307552
0.1280172,0.019556757268207835,0.02639445928878076,0.1485102361155534,0.023694471734068395,0.027990988747044344,0.04510298300344171,0.06669524163625858,0.009556591808896777
0.1284828,0.019738896934611776,0.026421919249551448,0.1486833400816098,0.023636762628326247,0.028127241963284696,0.045163383768289975,0.06730575139866704,0.009503180706729335
0.1289483,0.019921464803828545,0.02644834805433909,0.14884756972942836,0.023580512141466586,0.028263206269986137,0.045224229599963035,0.06791650104363642,0.009451742201124663
0.1294138,0.020104436590570113,0.026473749654356227,0.14900293168522993,0.023525718857201717,0.02839886818976042,0.04528553942311069,0.068527424045344,0.00940226890784633
0.1298793,0.020287787737599622,0.026498128219047335,0.14914943478456433,0.02347238072245694,0.028534214263802305,0.04534733194446418,0.0691384535644254,0.009354752997574574
0.1303448,0.02047149341987747,0.026521488134794886,0.1492870900734481,0.023420495054187234,0.028669231057724863,0.04540962564800541,0.06974952245910329,0.009309186204384244
0.1308103,0.020655528548800674,0.026543834003553486,0.14941591080853517,0.02337005854637826,0.0288039051674125,0.04547243879013866,0.07036056329636414,0.009265559834224163
0.1312759,0.020839867776536677,0.02656517064141446,0.14953591245632591,0.023321067277227363,0.028938223224889877,0.045535789394862254,0.07097150836317967,0.009223864773394111
0.1317414,0.02102448550045274,0.026585503077103563,0.14964711269142164,0.023273516716500367,0.029072171904204993,0.045599695248938414,0.07158228967777099,0.00918409149701582
0.1322069,0.021209355867641957,0.02660483655041445,0.1497495313938343,0.023227401733059882,0.02920573792732486,0.04566417389706019,0.0721928390009135,0.009146230077494606
0.1326724,0.0213944527795468,0.026623176510580653,0.149843190645363,0.023182716602560882,0.029338908070042316,0.04572924263701513,0.07280308784728112,0.009110270192968567
0.1331379,0.021579749896681023,0.026640528614588765,0.14992811472505252,0.02313945501530926,0.02947166916789265,0.04579491851484603,0.07341296749682834,0.009076201135742487
0.1336034,0.021765220643450527,0.026656898725435425,0.15000433010375028,0.023097610084279144,0.02960400812207884,0.04586121832000947,0.07402240900620823,0.009044011820703884
0.134069,0.02195083821307369,0.026672292910330523,0.1500718654377801,0.023057174353284634,0.029735911905404148,0.045928158580532986,0.07463134322022479,0.009013690793718715
0.1345345,0.02213657557260152,0.02668671743884897,0.15013075156175149,0.02301813980530163,0.02986736756821102,0.04599575555817169,0.07523970078331745,0.00898522624000441
0.135,0.02232240546803788,0.02670017878103304,0.15018102148052243,0.022980497870935358,0.029998362244325446,0.04606402524356551,0.07584741215107572,0.008958605992477905
0.1354655,0.022508300429560042,0.0267126836054472,0.15022271036033422,0.0229442394370291,0.030128883157005897,0.046132983351398635,0.07645440760178251,0.00893381754007645
0.135931,0.02269423277683963,0.026724238777187173,0.15025585551913614,0.022909354855409677,0.030258917624895906,0.04620264531556344,0.07706061724798513,0.008910848036048987
0.1363966,0.02288017462446397,0.026734851355844805,0.15028049641611796,0.022875833951764884,0.03038845306797946,0.0462730262843317,0.07766597104809404,0.00888968430621607
0.1368621,0.023066097887457903,0.02674452859343019,0.15029667464046753,0.02284366603464804,0.03051747701353798,0.04634414111553683,0.07827039881801026,0.008870312857196368
0.1373276,0.023251974286905952,0.02675327793225237,0.15030443389937237,0.022812839904604747,0.030645977102107782,0.04641600437177104,0.07887383024278281,0.008852719884597947
0.1377931,0.023437775355674723,0.026761107002759854,0.15030382000528333,0.022783343863416697,0.030773941093436716,0.046488630315601825,0.07947619488829791,0.008836891281172638
0.1382586,0.023623472444235384,0.026768023621341903,0.150294880862459,0.0227551657234574,0.03090135687243858,0.04656203290481207,0.08007742221300192,0.00882281264493192
0.1387241,0.023809036726586044,0.026774035788091583,0.15027766645280913,0.022728292817154553,0.031028212455143766,0.046636225787668795,0.08067744157965998,0.008810469287222776
0.1391897,0.023994439206273907,0.026779151684531134,0.15025222882105568,0.022702712006553993,0.0311544959946446,0.04671122229822521,0.0812761822671526,0.008799846240761963
0.1396552,0.024179650722517074,0.026783379671300293,0.15021862205923087,0.02267840969298,0.031280195787033775,0.04678703545166145,0.08187357348231311,0.008790928267627163
0.1401207,0.02436464195642584,0.026786728285807918,0.15017690229053127,0.022655371826786914,0.031405300277334,0.04686367793966889,0.08246954437180952,0.008783699867203483
0.1405862,0.0245493834373233,0.02678920623984712,0.15012712765254854,0.022633583917197084,0.03152979806541696,0.046941162125883305,0.08306402403407462,0.008778145284083681
0.1410517,0.02473384554916502,0.026790822417174082,0.1500693582798973,0.022613031042220132,0.0316536779119096,0.047019500041371946,0.08365694153128896,0.008774248515920598
0.1415172,0.024917998537057392,0.026791585871050714,0.1500036562862611,0.02259369785864869,0.03177692874408555,0.04709870338017965,0.08424822590142116,0.008771993321230184
0.1419828,0.02510181251387426,0.0267915058217512,0.1499300857458778,0.02257556861212564,0.03189953966173947,0.047178783494939196,0.08483780617033103,0.008771363227143532
0.1424483,0.025285257466971474,0.026790591654032643,0.14984871267448494,0.022558627147278028,0.03202149994304177,0.04725975139255127,0.08542561136394086,0.008772341537106303
0.1429138,0.02546830326499914,0.02678885291457001,0.14975960500974536,0.022542856917912676,0.03214279905037113,0.047341617729939466,0.08601157052048061,0.008774911338523901
0.1433793,0.025650919664811384,0.02678629930935568,0.14966283259117272,0.02252824099726865,0.03226342663612208,0.04742439280988579,0.08659561270281241,0.008779055510350766
0.1438448,0.025833076318473563,0.026782940701064132,0.14955846713957505,0.022514762088321618,0.032383372548484606,0.04750808657695227,0.08717766701083987,0.008784756730622137
0.1443103,0.026014742780366962,0.026778787106382332,0.14944658223603388,0.02250240253413516,0.03250262683719264,0.04759270861349366,0.08775766259400729,0.008791997483926653
0.1447759,0.026195888514391048,0.02677384869330669,0.14932725330043556,0.02249114432825413,0.0326211797592381,0.04767826813576649,0.08833552866389316,0.008800760068818131
0.1452414,0.026376482901263255,0.026768135778407618,0.14920055756957057,0.022480969125135017,0.032739021784546886,0.047764773990138884,0.08891119450690269,0.008811026605164833
0.1457069,0.02655649524591641,0.026761658824062846,0.1490665740748156,0.022471858250608417,0.03285614360161308,0.047852234649405585,0.08948458949706274,0.00882277904143454
0.1461724,0.02673589478499349,0.0267544284356609,0.1489253836194124,0.022463792712368584,0.032972536123087356,0.04794065820921213,0.09005564310892235,0.008835999161913704
0.1466379,0.026914650694439497,0.026746455358776438,0.14877706875535632,0.02245675321048518,0.03308819049131527,0.04803005238459165,0.09062428493056117,0.008850668593858942
0.1471034,0.0270927320971899,0.026737750476319096,0.14862171375990563,0.02245072014793222,0.033203098083820985,0.048120424506617555,0.09119044467670827,0.008866768814579077
0.147569,0.027270108070954886,0.0267283248056577,0.14845940461172277,0.022445673641129357,0.03331725051873169,0.04821178151917505,0.09175405220197241,0.008884281158445933
0.1480345,0.027446747656098534,0.02671818949572182,0.14829022896665658,0.022441593530490616,0.033430639660137686,0.04830412997585371,0.09231503751418511,0.008903186823832086
0.1485,0.02762261986361165,0.026707355824082554,0.1481142761331731,0.02243845939097559,0.03354325762338292,0.04839747603696341,0.09287333078785706,0.008923466879973722
0.1489655,0.027797693683176923,0.026695835194014524,0.14793163704744208,0.022436250542638286,0.033655096780280426,0.048491825466674965,0.0934288623777494,0.008945102273756772
0.149431,0.027971938091324842,0.026683639131540933,0.14774240424808477,0.02243494606116874,0.033766149764246814,0.04858718363028672,0.09398156283256008,0.008968073836424492
0.1498966,0.028145322059678495,0.026670779282463482,0.14754667185058734,0.022434524788422474,0.0338764094753499,0.04868355549161795,0.09453136290872625,0.008992362290204597
0.1503621,0.02831781456328536,0.02665726740937872,0.14734453552138493,0.022434965342932767,0.03398586908526301,0.048780945610529425,0.09507819358434276,0.009017948254854097
0.1508276,0.02848938458903396,0.026643115388682314,0.1471360924516193,0.0224362461304007,0.03409452204211956,0.048879358140570955,0.09562198607319627,0.009044812254119922
0.1512931,0.028660001144153298,0.026628335207562408,0.14692144133057455,0.022438345354157833,0.03420236207526126,0.04897879682675552,0.09616267183891412,0.009072934722113355
0.1517586,0.0288296332647928,0.02661293896098306,0.14670068231879635,0.022441241025596352,0.034309383199873096,0.049079265003459084,0.09670018260922589,0.009102296009596297
0.1522241,0.028998250024680605,0.026596938848658568,0.14647391702089968,0.022444910974561694,0.034415579721498314,0.04918076559244487,0.09723445039033542,0.009132876390177281
0.1526897,0.02916582054385792,0.026580347172019125,0.14624124845807235,0.02244933285970263,0.034520946240426495,0.04928330110101032,0.0977654074814002,0.009164656066415132
0.1531552,0.02933231399748719,0.026563176331168174,0.14600278104028147,0.022454484178773815,0.03462547765594769,0.04938687362025459,0.09829298648911472,0.009197615175828084
0.1536207,0.029497699624731717,0.02654543882183146,0.14575862053819133,0.02246034227888611,0.03472916917046592,0.049491484823464174,0.09881712034239468,0.00923173379680618
0.1540862,0.02966194673770432,0.02652714723229769,0.14550887405480104,0.02246688436670001,0.03483201629346548,0.049597135964613785,0.09933774230715935,0.009266991954424774
0.1545517,0.029825024730482458,0.02650831424035031,0.14525364999681017,0.022474087518557652,0.034934014845323345,0.04970382787697917,0.09985478600121012,0.009303369626156946
0.1550172,0.02998690308818717,0.026488952610189877,0.14499305804572052,0.02248192869054925,0.035035160960961285,0.049811560971858446,0.10036818540920299,0.009340846747482772
0.1554828,0.030147551396122973,0.02646907518934613,0.14472720912868126,0.02249038472850983,0.03513545109333102,0.04992033523739805,0.10087787489771369,0.009379403217393363
0.1559483,0.03030693934897593,0.02644869490557874,0.1444562153890859,0.02249943237794241,0.035234882016725796,0.050030150237519375,0.10138378923039286,0.009419018903787806
0.1564138,0.030465036760067118,0.026427824763765498,0.14418019015692898,0.022509048293864072,0.03533345082991173,0.05014100511094196,0.10188586358320893,0.009459673648761128
0.1568793,0.03062181357065881,0.0264064778427765,0.14389924791893177,0.022519209050571497,0.03543115495907228,0.050252898570299104,0.10238403355977535,0.009501347273781624
0.1573448,0.03077723985931102,0.026384667292332752,0.14361350428844633,0.022529891151322784,0.035527992160559095,0.05036582890134184,0.10287823520675873,0.009544019584755908
0.1578103,0.03093128585128605,0.026362406329847564,0.14332307597514776,0.022541071037932587,0.035623960523442424,0.050479793962227286,0.10336840502936358,0.009587670376980158
0.1582759,0.03108392192799877,0.02633970823724894,0.14302808075452317,0.022552725100277744,0.035719058471853964,0.050594791182887344,0.10385448000688939,0.009632279439976086
0.1587414,0.031235118636510354,0.026316586357781183,0.14272863743716566,0.022564829685710722,0.03581328476711485,0.050710817564473924,0.10433639760835614,0.009677826562210202
0.1592069,0.031384846699063065,0.02629305409278389,0.14242486583788108,0.022577361108378435,0.03590663850964137,0.050827869678876765,0.1048140958081936,0.009724291535695142
0.1596724,0.03153307702265343,0.026269124898446364,0.14211688674461506,0.02259029565844384,0.035999119140620775,0.05094594366831027,0.10528751310199186,0.00977165416047196
0.1601379,0.031679780708641386,0.02624481228253567,0.14180482188720894,0.022603609611207914,0.036090726443449565,0.05106503524496583,0.10575658852231025,0.009819894248972673
0.1606034,0.0318249290623927,0.026220129801096465,0.14148879390599434,0.022617279236129408,0.036181460544926485,0.051185139690726716,0.10622126165454279,0.009868991630262574
0.161069,0.03196849360295202,0.026195091055120717,0.1411689263202378,0.02263128080573981,0.03627132191619266,0.051306251856943264,0.10668147265283787,0.009918926154162214
0.1615345,0.032110446072744006,0.026169709687185724,0.1408453434964483,0.02264559060445076,0.03636031137341148,0.05142836616426621,0.10713716225607023,0.00996967769524924
0.162,0.03225075844729965,0.026143999378058988,0.1405181706165614,0.022660184937251162,0.03644843007818069,0.051551476602536776,0.10758827180386243,0.010021226156740394
0.1624655,0.032389402945005016,0.026117973843268846,0.14018753364601438,0.02267504013829106,0.03653567953766904,0.05167557673073206,0.10803474325265343,0.010073551474254221
0.162931,0.0325263520368692,0.02609164682964023,0.139853559301726,0.02269013257934956,0.036622061604470055,0.051800659676965136,0.10847651919181164,0.010126633619455072
0.1633966,0.03266157845630837,0.026065032111795457,0.13951637501999486,0.02270543867818402,0.03670757847616489,0.05192671813854016,0.10891354285979017,0.010180452603579224
0.1638621,0.032795055208942346,0.026038143488620477,0.13917610892432944,0.02272093490675781,0.03679223269458651,0.05205374438206391,0.10934575816032195,0.010234988480844125
0.1643276,0.03292675558239994,0.026010994779697642,0.1388328897932234,0.02273659779934412,0.03687602714477721,0.052181730243616345,0.10977310967865284,0.010290221351742195
0.1647931,0.033056653156129386,0.025983599821706227,0.1384868470278901,0.022752403960503317,0.036958965053631866,0.052310667128983745,0.11019554269780966,0.010346131366220866
0.1652586,0.03318472181120957,0.025955972464792566,0.13813811061996947,0.022768330072931327,0.03704104998821965,0.052440546013958374,0.11061300321490092,0.010402698726750904
0.1657241,0.03331093574015785,0.025928126568911716,0.13778681111922048,0.022784352905176723,0.0371222858537778,0.05257135744470894,0.11102543795744622,0.010459903691285322
0.1661897,0.033435269456729685,0.025900076000142682,0.13743307960121243,0.022800449319224113,0.03720267689137153,0.05270309153822607,0.111432794399731,0.010517726576111386
0.1666552,0.03355769780570531,0.025871834626979336,0.1370770476350267,0.022816596277941432,0.03728222767521447,0.05283573798284679,0.11183502077918094,0.010576147758598376
0.1671207,0.0336781959726583,0.02584341631659901,0.13671884725098055,0.022832770852388915,0.03736094310964435,0.05296928603886219,0.11223206611275077,0.010635147679843806
0.1675862,0.03379673949370068,0.02581483493111069,0.13635861090838353,0.022848950228987426,0.03743882842574846,0.05310372453921207,0.11262388021332108,0.010694706847220799
0.1680517,0.033913304265199,0.025786104323784653,0.13599647146333668,0.02286511171654393,0.03751588917763376,0.05323904189027064,0.11301041370609542,0.010754805836829334
0.1685172,0.03402786655345568,0.025757238335264956,0.13563256213658406,0.02288123275313191,0.03759213123833692,0.05337522607272677,0.11339161804499048,0.01081542529585397
0.1689828,0.03414040300434964,0.025728250789766396,0.13526701648142486,0.02289729091282458,0.037667560795370064,0.05351226464256202,0.1137674455290098,0.010876545944830712
0.1694483,0.034250890652930494,0.025699155491257192,0.13489996835169416,0.022913263912278756,0.03774218434589878,0.05365014473212971,0.11413784931859187,0.010938148579825667
0.1699138,0.03435930693296047,0.02566996621962871,0.1345315518698188,0.022929129617167355,0.037816008691549816,0.05378885305133742,0.1145027834519224,0.01100021407452816
0.1703793,0.03446562968639846,0.02564069672685342,0.13416190139495413,0.022944866048458648,0.03788904093284751,0.05392837588893608,0.11486220286120007,0.011062723382261021
0.1708448,0.03456983717282082,0.025611360733132464,0.13379115149120605,0.02296045138854043,0.037961288463280174,0.05406869911391822,0.11521606338884392,0.011125657537910852
0.1713103,0.034671908078773954,0.02558197192303422,0.13341943689594235,0.022975863987187484,0.038032758963000214,0.05420980817702866,0.11556432180363009,0.01118899765978104
0.1717759,0.03477182152705359,0.02555254394162524,0.1330468924881966,0.022991082367371112,0.038103460392164515,0.0543516881123908,0.11590693581674424,0.011252724951370304
0.1722414,0.03486955708590618,0.025523090390595325,0.13267365325716676,0.02300608523090964,0.03817340098392305,0.054494323539251883,0.11624386409773574,0.011316820703079544
0.1727069,0.03496509477814801,0.025493624824378384,0.1322998542708115,0.02302085146395925,0.03824258923706539,0.054637698663850764,0.11657506629035834,0.011381266293849624
0.1731724,0.035058415090197546,0.025464160746270923,0.13192563064454668,0.023035360142344835,0.03831103390833486,0.0547817972814121,0.1169005030282814,0.011446043192732758
0.1736379,0.035149498981016505,0.025434711604550114,0.13155111751004536,0.023049590536730866,0.0383787440044209,0.05492660277827075,0.1172201359506547,0.011511132960400001
0.1741034,0.035238327890955455,0.025405290788593514,0.13117644998414454,0.0230635221176325,0.038445728773640324,0.05507209813413088,0.11753392771750959,0.011576517250587393
0.174569,0.03532488375049914,0.025375911625002585,0.13080176313786165,0.02307713456026704,0.03851199769731892,0.05521826592446422,0.11784184202497837,0.01164217781148317
0.1750345,0.03540914898890698,0.025346587373732205,0.1304271919655228,0.02309040774924625,0.038577560480885266,0.05536508832305209,0.11814384362031269,0.011708096487058483
0.1755,0.035491106542743754,0.025317331224228485,0.13005287135400495,0.02310332178310973,0.03864242704468912,0.05551254710467522,0.11843989831668224,0.011774255218343965
0.1759655,0.03557073986429574,0.025288156291577244,0.12967893605209296,0.023115856978699507,0.03870660751455715,0.05566062364795553,0.11872997300773391,0.011840636044654507
0.176431,0.03564803292986741,0.025259075612665525,0.12930552063995257,0.02312799387537626,0.03877011221209932,0.055809298938353485,0.11901403568189227,0.011907221104764441
0.1768966,0.03572297024795387,0.025230102142358643,0.12893275949872038,0.023139713239077386,0.03883295164477954,0.05595855357132405,0.11929205543638315,0.01197399263803532
0.1773621,0.03579553686728437,0.025201248749695346,0.12856078678021082,0.02315099606621758,0.03889513649576455,0.05610836775563402,0.11956400249096347,0.012040932985498444
0.1778276,0.03586571838473191,0.02517252821410354,0.12818973637674067,0.023161823587432833,0.03895667761356541,0.056258721316843036,0.11982984820134152,0.012108024590894124
0.1782931,0.03593350095308399,0.025143953221639176,0.127819741891071,0.0231721772711691,0.039017586001486075,0.05640959370095015,0.12008956507227239,0.012175250001669628
0.1787586,0.03599887128866945,0.02511553636125071,0.12745093660646656,0.023182038827117214,0.039077872806893926,0.056560963978207264,0.12034312677031468,0.012242591869937671
0.1792241,0.03606181667883618,0.025087290121071575,0.12708345345687228,0.023191390209496017,0.03913754931032698,0.05671281084710053,0.12059050813623541,0.012310032953397167
0.1796897,0.03612232498927434,0.025059226884742686,0.12671742499720676,0.023200213620185876,0.039196626914452685,0.056865112638500664,0.12083168519705308,0.01237755611621795
0.1801552,0.03618038467117995,0.02503135892776718,0.12635298337377207,0.023208491511714908,0.03925511713289314,0.05701784731998253,0.12106663517771094,0.012445144329891028
0.1806207,0.03623598476825339,0.02500369841389902,0.1259902602947798,0.023216206590100475,0.039313031578931484,0.05717099250031424,0.12129533651237595,0.012512780674045897
0.1810862,0.03628911492352756,0.024976257391567187,0.1256293870009931,0.023223341817548565,0.039370381954113826,0.05732452543411578,0.12151776885536104,0.012580448337236339
0.1815517,0.03633976538602017,0.02494904779033679,0.1252704942364852,0.02322988041501377,0.039427180036760885,0.05747842302668678,0.12173391309166999,0.012648130617696032
0.1820172,0.03638792701720499,0.024922081417408436,0.12491371221951525,0.023235805864622625,0.039483437670403194,0.05763266183900275,0.1219437513471657,0.01271581092406521
0.1824828,0.036433591297296966,0.024895369954156872,0.12455917061352312,0.023241101911963172,0.03953916675215355,0.057787218092878796,0.12214726699836191,0.012783472776089502
0.1829483,0.036476750331347035,0.02486892495270976,0.124206998498245,0.023245752568243697,0.03959437922102984,0.05794206767629958,0.12234444468183846,0.012851099805292008
0.1834138,0.03651739685514275,0.024842757832567352,0.12385732434095208,0.023249742112323682,0.03964908704624138,0.05809718614891396,0.12253527030327976,0.012918675755619554
0.1838793,0.03655552424091177,0.02481687987726356,0.12351027596781504,0.023253055092620056,0.039703302215451416,0.058252548747692645,0.12271973104613594,0.012986184484063945
0.1843448,0.03659112650282596,0.024791302231068898,0.12316598053539708,0.023255676328892028,0.03975703672302836,0.058408130392747136,0.12289781537990592,0.01305360996125902
0.1848103,0.036624198302304116,0.02476603589573566,0.12282456450227759,0.023257590913907795,0.03981030255829803,0.05856390569330798,0.12306951306804245,0.013120936272054138
0.1852759,0.03665473495311186,0.024741091727285724,0.12248615360080824,0.02325878421499644,0.039863111693809135,0.05871984895386021,0.12323481517547936,0.013188147616064736
0.1857414,0.0366827324262574,0.024716480432841328,0.12215087280900264,0.023259241875488394,0.039915476073624286,0.05887593418043354,0.1233937140757821,0.013255228308200393
0.1862069,0.036708187354681614,0.024692212567499313,0.12181884632255963,0.023258949816047737,0.03996740760164873,0.05903213508704473,0.12354620345792355,0.013322162779170851
0.1866724,0.0367310970377413,0.024668298531249272,0.12149019752701987,0.023257894235899506,0.040018918130009136,0.05918842510228911,0.12369227833268726,0.013388935575970323
0.1871379,0.03675145944548408,0.024644748565936212,0.1211650489700542,0.023256061613955114,0.04007001944749474,0.059344777376078135,0.1238319350387007,0.013455531362340343
0.1876034,0.036769273222713415,0.024621572752268277,0.1208435223338821,0.023253438709838856,0.04012072326807278,0.059501164786519636,0.12396517124810189,0.013521934919211371
0.188069,0.03678453769284214,0.024598781006870206,0.12052573840781762,0.02325001256481817,0.04017104121949038,0.059657559946937146,0.12409198597184153,0.013588131145123255
0.1885345,0.03679725286153254,0.024576383079383042,0.12021181706094072,0.02324577050264032,0.04022098483197461,0.05981393521302446,0.1242123795646243,0.013654105056624734
0.189,0.03680741942012093,0.02455438854961055,0.11990187721489111,0.023240700130277955,0.04027056552704244,0.059970262690131414,0.1243263537294912,0.013719841788652052
0.1894655,0.036815038748824025,0.02453280682471268,0.11959603681678253,0.023234789338585846,0.04031979460643227,0.06012651424067675,0.12443391152204528,0.013785326594886758
0.189931,0.03682011291972458,0.024511647136446192,0.11929441281223495,0.02322802630287109,0.040368683241168726,0.06028266149168408,0.1245350573543218,0.013850544848092764
0.1903966,0.03682264469953321,0.024490918538452457,0.11899712111852224,0.023220399483378833,0.040417242460772516,0.06043867584243706,0.12462979699830372,0.013915482040432726
0.1908621,0.03682263755212295,0.024470629903592375,0.11870427659783213,0.02321189762569541,0.040465483142627226,0.06059452847225011,0.12471813758908187,0.013980123783763914
0.1913276,0.036820095640833224,0.024450789921328108,0.11841599303063491,0.023202509761070866,0.040513416001514486,0.06075019034835091,0.12480008762765833,0.01404445580991386
0.1917931,0.03681502383053946,0.02443140709515133,0.11813238308915645,0.023192225206662472,0.04056105157932894,0.06090563223387128,0.12487565698339083,0.014108463970936442
0.1922586,0.03680742768948453,0.024412489740057525,0.11785355831095048,0.023181033565700886,0.04060840023498401,0.061060824695942637,0.12494485689607461,0.014172134239349201
0.1927241,0.036797313490868046,0.024394045980065726,0.11757962907256511,0.02316892472758035,0.04065547213451926,0.06121573811389236,0.12500769997765723,0.014235452708353103
0.1931897,0.03678468821418939,0.02437608374578305,0.11731070456329817,0.02315588886787441,0.0407022772414197,0.06137034268753679,0.12506420021358056,0.014298405592036195
0.1936552,0.03676955954634026,0.024358610772013227,0.11704689275903653,0.023141916448278444,0.0407488253071569,0.06152460844556669,0.12511437296374403,0.01436097922556286
0.1941207,0.03675193588244217,0.02434163459540831,0.11678830039617474,0.023126998216480434,0.040795125861961885,0.06167850525402057,0.1251582349630821,0.014423160065350483
0.1945862,0.03673182632642431,0.02432516255216258,0.11653503294560848,0.02311112520596148,0.04084118820583896,0.06183200282484175,0.1251958043217482,0.014484934689235436
0.1950517,0.03670924069133704,0.024309201775747677,0.11628719458679913,0.023094288735727442,0.04088702139982944,0.06198507072451523,0.12522710052489777,0.014546289796630255
0.1955172,0.03668418949939618,0.02429375919468799,0.11604488818190631,0.023076480409973378,0.04093263425753406,0.06213767838278113,0.1252521444320621,0.014607212208673864
0.1959828,0.0366566839817537,0.024278841530375454,0.1158082152499847,0.02305769211768244,0.04097803533690219,0.062289795101422345,0.12527095827610524,0.014667688868376723
0.1964483,0.03662673607799027,0.024264455294923125,0.11557727594124347,0.023037916032161092,0.04102323293229603,0.062441390063124595,0.12528356566175605,0.014727706840762718
0.1969138,0.03659435843532586,0.02425060678905698,0.11535216901136615,0.023017144610512578,0.04106823506683723,0.06259243234040757,0.12528999156370632,0.014787253313009608
0.1973793,0.03655956440754473,0.024237302100045776,0.11513299179589209,0.022995370593050915,0.04111304948504333,0.06274289090462615,0.1252902623242662,0.01484631559458985
0.1978448,0.036522368053631606,0.024224547099669064,0.11491984018466249,0.02297258700265759,0.04115768364576088,0.06289273463504066,0.1252844056505671,0.01490488111741356
0.1983103,0.03648278413611639,0.0242123474422238,0.11471280859633749,0.022948787144083375,0.04120214471540193,0.06304193232795521,0.12527245061130104,0.014962937435975324
0.1987759,0.03644082811912517,0.024200708562570394,0.11451198995299434,0.022923964603197705,0.04124643956149007,0.06319045270592338,0.12525442763298544,0.015020472227506573
0.1992414,0.0363965161661357,0.024189635674219313,0.11431747565481858,0.022898113246187835,0.04129057474652204,0.06333826442702091,0.12523036849574093,0.015077473292135176
0.1997069,0.03634986513743613,0.024179133767459827,0.11412935555490247,0.022871227218710124,0.04133455652215033,0.06348533609418493,0.12520030632857063,0.01513392855305399
0.2001724,0.036300892587285895,0.024169207607532578,0.11394771793416585,0.022843300944995495,0.04137839082369219,0.06363163626461947,0.12516427560412918,0.015189826056699962
0.2006379,0.0362496167607784,0.024159861732847957,0.11377264947641336,0.022814329126911163,0.04142208326496986,0.06377713345926717,0.1251223121329706,0.015245153972945593
0.2011034,0.03619605659040487,0.024151100453252354,0.11360423524354302,0.02278430674298053,0.0414656391334865,0.06392179617234683,0.1250744530572642,0.015299900595304387
0.201569,0.036140231692319356,0.024142927848344504,0.11344255865091966,0.022753229047363096,0.04150906338594207,0.0640655928809565,0.12502073684396878,0.015354054341152048
0.2020345,0.03608216236230463,0.024135347765843963,0.11328770144292653,0.022721091568796318,0.041552360644092894,0.06420849205474088,0.12496120327745475,0.015407603751965072
0.2025,0.03602186957143913,0.024128363820013852,0.11313974366870781,0.022687890109500997,0.04159553519095843,0.06435046216562197,0.12489589345156416,0.015460537493578407
0.2029655,0.03595937496146507,0.024121979390139825,0.11299876365811491,0.022653620744051972,0.041638590967378285,0.06449147169759135,0.12482484976109837,0.015512844356463702
0.203431,0.03589470083985825,0.0241161976190671,0.11286483799786856,0.022618279818215518,0.0416815315689222,0.06463148915656196,0.12474811589272344,0.015564513256029592
0.2038966,0.035827870174600346,0.024111021411797273,0.11273804150794851,0.022581863947754948,0.041724360243155414,0.06477048308027729,0.1246657368152849,0.01561553323294534
0.2043621,0.035758906588655145,0.024106453434146587,0.11261844721822213,0.022544370017205665,0.041767079887261416,0.064908422048276,0.12457775876952568,0.015665893453489038
0.2048276,0.0356878343541504,0.02410249611146719,0.11250612634532281,0.022505795178620898,0.0418096930460239,0.06504527469190981,0.1244842292572032,0.015715583209921426
0.2052931,0.035614678386267605,0.024099151627432994,0.11240114826978909,0.022466136850289278,0.04185220191016933,0.06518100970441272,0.12438519702960386,0.015764591920886223
0.2057586,0.03553946423684203,0.024096421922891593,0.11230358051347472,0.02242539271542544,0.04189460831507108,0.06531559585101998,0.12428071207545428,0.015812909131837808
0.2062241,0.03546221808767543,0.024094308694783836,0.11221348871724034,0.02238356072083466,0.04193691373981615,0.06544900197913468,0.12417082560822996,0.015860524515496903
0.2066897,0.03538296674356408,0.024092813395132452,0.11213093661893722,0.022340639075552806,0.041979119306634755,0.06558119702853955,0.12405559005286204,0.015907427872334852
0.2071552,0.03530173762504491,0.024091937230101196,0.1120559860316942,0.022296626249462638,0.04202122578069314,0.06571215004165157,0.12393505903184374,0.015953609131086902
0.2076207,0.03521855876086291,0.02409168115912593,0.11198869682251929,0.022251520971887574,0.04206323357024937,0.06584183017381634,0.12380928735073908,0.015999058349294836
0.2080862,0.03513345878016331,0.024092045894119028,0.11192912689122796,0.02220532223016414,0.04210514272717167,0.0659702067036392,0.12367833098309808,0.01604376571387917
0.2085517,0.035046466904412536,0.024093031898748302,0.11187733214971023,0.022158029268194115,0.04214695294781863,0.06609724904334931,0.12354224705478531,0.016087721541741047
0.2090172,0.03495761293905239,0.024094639387791834,0.11183336650154947,0.022109641584977406,0.042188663574280104,0.06622292674919303,0.12340109382773147,0.016130916280393842
0.2094828,0.03486692726489217,0.02409686832656969,0.11179728182200627,0.022060158933126517,0.042230273595977454,0.06634720953185241,0.12325493068312021,0.016173340508624415
0.2099483,0.034774440829243906,0.024099718430453654,0.11176912793838152,0.022009581317363403,0.04227178165162127,0.06647006726688391,0.12310381810402504,0.01621498493718382
0.2104138,0.034680185136806034,0.02410318916445581,0.11174895261077283,0.021957908992999355,0.042313186031524654,0.0665914700051721,0.12294781765751245,0.016255840409507283
0.2108793,0.03458419224030105,0.02410727974289667,0.11173680151323898,0.02190514246439834,0.042354484680269366,0.06671138798339296,0.12278699197622829,0.016295897902463136
0.2113448,0.034486494730872876,0.024111989129153532,0.11173271821538773,0.021851282483424297,0.042395675199722274,0.06682979163448079,0.12262140473948428,0.01633514852713033
0.2118103,0.0343871257282499,0.02411731603548949,0.1117367441644025,0.021796330047872698,0.04243675485239874,0.06694665159809245,0.12245112065386055,0.016373583529604153
0.2122759,0.03428611887067986,0.02412325892296331,0.1117489186675235,0.021740286399886805,0.042477720565169484,0.06706193873106257,0.12227620543334021,0.016411194291829603
0.2127414,0.03418350830464292,0.02412981600142033,0.11176927887499964,0.021683153024359064,0.04251856893330693,0.06717562411784268,0.12209672577899056,0.01644797233246177
0.2132069,0.034079328674349776,0.024136985229564294,0.11179785976352775,0.021624931647318282,0.042559296224866844,0.06728767908091705,0.12191274935820515,0.016483909307752568
0.2136724,0.03397361511103144,0.024144764315109903,0.11183469412019552,0.021565624234303298,0.04259989838540075,0.06739807519118782,0.12172434478352075,0.01651899701246298
0.2141379,0.033866403222028094,0.024153150715015687,0.1118798125269447,0.02150523298872381,0.04264037104299411,0.06750678427832146,0.12153158159102297,0.01655322738080007
0.2146034,0.033757729079684336,0.02416214163579663,0.11193324334557088,0.021443760350209253,0.04268070951362515,0.06761377844104856,0.12133453021835461,0.016586592487377788
0.215069,0.0336476292100585,0.02417173403391575,0.1119950127032758,0.021381208992946495,0.04272090880683877,0.06771903005740874,0.12113326198234053,0.016619084548200703
0.2155345,0.03353614058145391,0.024181924616253854,0.11206514447878792,0.021317581824007243,0.042760963631729876,0.06782251179493266,0.1209278490562436,0.016650695921669654
0.216,0.033423300592780265,0.02419270984065627,0.11214366028906582,0.021252881981665982,0.04280086840322994,0.06792419662075216,0.12071836444666674,0.01668141910960835
0.2164655,0.03330914706175333,0.02420408591655537,0.11223057947659834,0.02118711283370935,0.042840617248690614,0.06802405781163029,0.12050488197011612,0.01671124675830976
0.216931,0.0331937182129415,0.024216048805667658,0.11232591909731475,0.021120277975737664,0.042880204014757825,0.06812206896390213,0.12028747622924076,0.016740171659601167
0.2173966,0.033077052665667656,0.024228594222763883,0.11242969390911765,0.021052381229459377,0.042919622274529695,0.06821820400331773,0.12006622258876382,0.016768186751926453
0.2178621,0.03295918942177468,0.024241717636510656,0.11254191636105078,0.020983426640978988,0.042958865334991124,0.06831243719477781,0.11984119715112129,0.01679528512144431
0.2183276,0.032840167853263,0.024255414270382084,0.1126625965831133,0.020913418479079012,0.04299792624471787,0.06840474315195343,0.11961247673182424,0.016821460003140887
0.2187931,0.032720027689808084,0.024269679103639766,0.11279174237673227,0.020842361233496337,0.04303679780184274,0.06849509684678048,0.11938013883456113,0.01684670478195537
0.2192586,0.03259880900616579,0.02428450687237948,0.11292935920590437,0.02077025961319336,0.04307547256227619,0.06858347361882082,0.11914426162605733,0.016871012993917158
0.2197241,0.03247655220947314,0.024299892070642863,0.11307545018901768,0.020697118544624173,0.04311394284817352,0.06866984918448199,0.11890492391070866,0.016894378327293277
0.2201897,0.032353298026452086,0.024315828951592306,0.1132300160913642,0.02062294316999602,0.043152200756640544,0.06875419964608863,0.11866220510500587,0.016916794623744763
0.2206552,0.03222908749052332,0.024332311528747305,0.1133930553183531,0.020547738845526246,0.04319023816866942,0.06883650150079869,0.11841618521176597,0.016938255879490816
0.2211207,0.03210396192883717,0.02434933357728052,0.11356456390943484,0.020471511139694958,0.043228046758296036,0.06891673164935812,0.11816694479418582,0.016958756246479446
0.2215862,0.03197796294922841,0.0243668886353719,0.11374453553274591,0.020394265831493615,0.04326561800197035,0.06899486740468748,0.11791456494973242,0.016978290033563367
0.2220517,0.03185113242710158,0.02438497000561935,0.11393296148048354,0.020316008908669844,0.043302943188130584,0.06907088650029367,0.11765912728388389,0.016996851707679773
0.2225172,0.03172351249225323,0.024403570756504685,0.11412983066501993,0.02023674656596881,0.04334001342697218,0.06914476709850038,0.11740071388373424,0.017014435895032525
0.2229828,0.03159514551563734,0.0244226837239138,0.11433512961576504,0.020156485203371568,0.04337681966040226,0.06921648779849061,0.11713940729147426,0.017031037382275273
0.2234483,0.03146607409608001,0.024442301512710273,0.11454884247678636,0.02007523142433087,0.043413352672169656,0.06928602764415463,0.11687529047776062,0.01704665111769387
0.2239138,0.031336341046949295,0.024462416498361755,0.11477095100519387,0.019992992034004956,0.04344960309816112,0.06935336613173716,0.11660844681498472,0.017061272212386708
0.2243793,0.03120598938278612,0.02448302082861876,0.11500143457029759,0.019909774037489905,0.04348556143685343,0.06941848321727721,0.11633896005045195,0.01707489594144133
0.2248448,0.0310750623059017,0.024504106425245482,0.11524027015354416,0.01982558463805119,0.04352121805991122,0.06948135932383366,0.11606691427948175,0.017087517745105956
0.2253103,0.03094360319294723,0.024525664985802317,0.11548743234923867,0.01974043123535493,0.04355656322292016,0.06954197534848948,0.11579239391843833,0.017099133229954298
0.2257759,0.030811655581461185,0.0245476879854798,0.11574289336605707,0.019654321423699387,0.04359158707624449,0.06960031266912724,0.11551548367770127,0.017109738170042205
0.2262414,0.030679263156399576,0.024570166678983686,0.11600662302935379,0.019567262990247126,0.04362627967599832,0.06965635315096785,0.11523626853458462,0.01711932850805446
0.2267069,0.03054646973665445,0.024593092102470692,0.11627858878426839,0.019479263913258174,0.04366063099511918,0.06971007915286472,0.11495483370621289,0.017127900356439962
0.2271724,0.030413319261565774,0.02461645507553464,0.11655875569963421,0.01939033236032446,0.043694630934532706,0.06976147353334479,0.11467126462236184,0.017135449998533458
0.2276379,0.03027985577743185,0.024640246203242774,0.11684708647269111,0.019300476686605804,0.0437282693343966,0.0698105196563888,0.11438564689827187,0.01714197388966169
0.2281034,0.03014612342402331,0.02466445587822243,0.1171435414346037,0.019209705433067565,0.04376153598541216,0.06985720139694318,0.1140980663074418,0.01714746865823188
0.228569,0.03001216642110572,0.02468907428279875,0.1174480785567857,0.019118027324720236,0.04379442064019116,0.06990150314615733,0.11380860875441098,0.017151931106800213
0.2290345,0.02987802905497568,0.024714091391184783,0.11776065345802987,0.01902545126886114,0.04382691302466577,0.06994340981634126,0.11351736024753742,0.017155358213117873
0.2295,0.029743755665015435,0.02473949697172585,0.11808121941244278,0.01893198635331859,0.04385900284952903,0.06998290684563979,0.11322440687177965,0.0171577471311522
0.2299655,0.029609390630270713,0.024765280589201025,0.11840972735818285,0.018837641844698733,0.043890679821693146,0.07001998020241999,0.11292983476148953,0.01715909519208053
0.230431,0.029474978356056676,0.024791431607184913,0.11874612590700001,0.018742427186635296,0.043921933655752594,0.07005461638936938,0.11263373007322246,0.017159399905254474
0.2308966,0.029340563260596707,0.02481793919047341,0.11909036135457418,0.0186463519980424,0.043952754085439104,0.070086802447303,0.11233617895857116,0.01715865895913267
0.2313621,0.029206189761698653,0.024844792307577312,0.1194423776916502,0.01854942607137041,0.043983130875055544,0.07011652595867829,0.11203726753702782,0.01715687022218034
0.2318276,0.02907190226347318,0.024871979733287482,0.11980211661596545,0.018451659370864855,0.04401305383087578,0.07014377505081819,0.11173708186887896,0.01715403174373443
0.2322931,0.02893774514309877,0.024899490051315247,0.12016951754496677,0.018353062030828236,0.04404251281249769,0.07016853839884371,0.11143570792813663,0.01715014175483334
0.2327586,0.02880376273763777,0.024927311657011477,0.12054451762931313,0.018253644353884557,0.04407149774413651,0.07019080522831873,0.11113323157550978,0.017145198669010587
0.2332241,0.028669999330907917,0.024955432760167606,0.12092705176716062,0.01815341680924633,0.044099998625845356,0.07021056531761068,0.11082973853141952,0.017139201083051676
0.2336897,0.02853649914041363,0.024983841387901704,0.12131705261922711,0.01805239003098379,0.044128005544649976,0.07022780899997098,0.11052531434906293,0.01713214777771357
0.2341552,0.028403306304341156,0.02501252538763251,0.12171445062463437,0.01795057481629601,0.04415550868558421,0.07024252716533994,0.11022004438753093,0.017124037718406065
0.2346207,0.028270464868621743,0.02504147243014415,0.12211917401752533,0.017847982123783517,0.04418249834261289,0.07025471126188032,0.10991401378498619,0.017114870055834435
0.2350862,0.028138018774066607,0.025070670012743962,0.12253114884445443,0.017744623071722084,0.044208964929428565,0.0702643532972447,0.10960730743190905,0.017104644126602637
0.2355517,0.02800601184357753,0.025100105462515725,0.12295029898254839,0.01764050893633728,0.04423489899010854,0.0702714458395809,0.109300009944419,0.017093359453776772
0.2360172,0.02787448776943675,0.025129765939670343,0.12337654615843394,0.017535651150079507,0.04426029120961873,0.07027598201828085,0.10899220563768025,0.017081015747408532
0.2364828,0.02774349010067958,0.02515963844099588,0.12380980996792895,0.01743006129989927,0.04428513242415078,0.07027795552447735,0.10868397849940001,0.01706761290501865
0.2369483,0.02761306223055312,0.02518970980340857,0.12425000789649264,0.017323751125522556,0.04430941363127871,0.07027736061129336,0.10837541216342868,0.01705315101204045
0.2374138,0.027483247384064175,0.025219966707606307,0.12469705534042952,0.017216732517726253,0.04433312599992155,0.07027419209384773,0.10806658988347131,0.017037630342223803
0.2378793,0.027354088605619317,0.02525039568182601,0.12515086562884242,0.01710901751661359,0.04435626088009807,0.07026844534902114,0.10775759450692136,0.017021051357999768
0.2383448,0.02722562874676001,0.025280983105706017,0.12561135004632948,0.017000618309889668,0.04437880981245969,0.07026011631498548,0.10744850844882889,0.01700341471080634
0.2388103,0.027097910453995275,0.025311715214254533,0.1260784178564192,0.01689154723113721,0.04440076453758764,0.07024920149049965,0.10713941366601654,0.016984721241375844
0.2392759,0.026970976156734383,0.025342578101925046,0.12655197632573822,0.016781816758092535,0.04442211700504016,0.07023569793397474,0.10683039163135795,0.01696497197998463
0.2397414,0.026844868055321887,0.025373557726799514,0.1270319307489053,0.016671439510921874,0.04444285938213527,0.0702196032623111,0.10652152330823435,0.01694416814666581
0.2402069,0.026719628109177024,0.025404639914879974,0.12751818447414456,0.01656042825049805,0.04446298406245456,0.07020091564950971,0.10621288912518512,0.0169223111513857
0.2406724,0.02659529802503946,0.025435810364489077,0.12801063892960987,0.016448795876677445,0.04448248367405305,0.07017963382506005,0.1059045689507687,0.01689940259418468
0.2411379,0.026471919245323123,0.025467054650780026,0.12850919365041155,0.016336555426577144,0.0445013510873599,0.07015575707210618,0.10559664206864981,0.01687544426528308
0.2416034,0.026349532936579784,0.02549835823035612,0.1290137463063359,0.01622372007285212,0.04451957942275458,0.0701292852253928,0.10528918715292825,0.016850438145152764
0.242069,0.026228179978073852,0.025529706446000135,0.129524192730247,0.0161103031219722,0.044537162057802795,0.07010021866899271,0.1049822822437241,0.01682438640455502
0.2425345,0.026107900950469696,0.025561084531513588,0.13004042694715962,0.015996318012498636,0.04455409263413651,0.07006855833381696,0.10467600472303389,0.01679729140454545
0.243,0.025988736124632768,0.025592477616665738,0.13056234120397203,0.015881778313360302,0.044570365063962704,0.07003430569490916,0.10437043129087108,0.01676915569644639
0.2434655,0.02587072545054566,0.025623870732252103,0.1310898259998471,0.01576669772212945,0.04458597353618624,0.06999746276852535,0.10406563794170431,0.016739982021787534
0.243931,0.025753908546340208,0.025655248815262096,0.13162277011722906,0.015651090063297308,0.044600912522133065,0.06995803210900103,0.10376169994120549,0.01670977331221515
0.2443966,0.02563832468744657,0.025686596714155192,0.1321610606534848,0.015534969286549797,0.04461517678086132,0.06991601680540706,0.1034586918033201,0.01667853268937026
0.2448621,0.02552401279586039,0.02571789919424493,0.1327045830531575,0.015418349465043786,0.04462876136404966,0.06987142047799623,0.10315668726767084,0.016646263464736136
0.2453276,0.02541101142952926,0.02574914094318982,0.13325322114082191,0.015301244793684313,0.04464166162045339,0.06982424727444225,0.10285575927730518,0.016612969139455303
0.2457931,0.025299358771859803,0.025780306576590032,0.13380685715453042,0.015183669587403179,0.04465387319992062,0.06977450186587301,0.10255597995679663,0.0165786534041163
0.2462586,0.02518909262134693,0.025811380643688472,0.13436537177983982,0.015065638279439237,0.04466539205696215,0.06972218944269974,0.10225742059070901,0.016543320138510578
0.2467241,0.025080250381326955,0.02584234763317476,0.1349286441844103,0.014947165419620649,0.044676214453869614,0.0696673157102442,0.10196015160243153,0.016506973411359985
0.2471897,0.024972869049856447,0.02587319197909028,0.13549655205316816,0.014828265672649346,0.0446863369633778,0.06960988688416599,0.10166424253339244,0.01646961748001558
0.2476552,0.024866985209718678,0.02590389806683242,0.13606897162402407,0.014708953816387793,0.044695756470868785,0.06954990968569304,0.10136976202265804,0.016431256790128527
0.2481207,0.024762635018559766,0.025934450239255776,0.13664577772414024,0.014589244740148185,0.044704470176118,0.06948739133665864,0.10107677778692328,0.016391895975294064
0.2485862,0.024659854199156433,0.02596483280286805,0.13722684380673905,0.014469153442984065,0.04471247559458529,0.06942233955434815,0.10078535660089927,0.016351539856669567
0.2490517,0.02455867802981738,0.025995030034118113,0.13781204198844574,0.014348695031984248,0.04471977055825719,0.06935476254615908,0.10049556427810259,0.016310193442567563
0.2495172,0.024459141334920168,0.026025026185773653,0.1384012430871581,0.014227884720568882,0.04472635321604887,0.06928466900407806,0.10020746565205048,0.01626786192802464
0.2499828,0.02436127847558509,0.026054805493385524,0.13899431666043488,0.01410673782678728,0.04473222203377608,0.06921206809897833,0.09992112455786512,0.016224550694347063
0.2504483,0.024265123340487683,0.026084352181835864,0.13959113104439394,0.013985269771617176,0.0447373757937084,0.06913696947474149,0.09963660381428972,0.01618026530863381
0.2509138,0.02417070933681106,0.026113650471966923,0.1401915533931104,0.013863496077264876,0.04474181359371529,0.06905938324220792,0.0993539652061186,0.01613501152327768
0.2513793,0.02407806938133913,0.026142684587287305,0.14079544971850463,0.01374143236546575,0.044745534846016934,0.06897931997295965,0.0990732694670429,0.016088795275444982
0.2518448,0.023987235891691612,0.026171438760752324,0.14140268493070834,0.013619094355784437,0.044748539275552064,0.06889679069293961,0.09879457626291364,0.01604162268653424
0.2523103,0.023898240777701685,0.02619989724161482,0.14201312287889697,0.013496497863914145,0.04475082691797515,0.06881180687591101,0.09851794417542306,0.015993500061614267
0.2527759,0.02381111543293686,0.026228044302342764,0.14262662639257523,0.013373658799974396,0.044752398117295436,0.0687243804367604,0.0982434306862046,0.015944433888841904
0.2532414,0.02372589072636358,0.026255864245599773,0.1432430573233018,0.013250593166806586,0.04475325352317032,0.06863452372464768,0.09797109216135232,0.0158944308388597
0.2537069,0.02364259699415612,0.02628334141128454,0.1438622765868384,0.013127317058266731,0.044753394087865585,0.0685422495160066,0.0977009838363599,0.015843497764173754
0.2541724,0.023561264031650098,0.0263104601836249,0.14448414420570704,0.013003846657514886,0.04475282106289504,0.06844757100739857,0.09743315980147896,0.015791641698511934
0.2546379,0.023481921085440838,0.0263372049983221,0.1451085193521396,0.012880198235300736,0.044751535995352275,0.0683505018082234,0.09716767298749644,0.01573886985616265
0.2551034,0.023404596845626714,0.026363560349740592,0.14573526039140225,0.012756388148245016,0.044749540723947205,0.06825105593329037,0.09690457515193127,0.015685189631294106
0.255569,0.023329319438197476,0.026389510798138543,0.1463642249254785,0.012632432837116389,0.04474683737476008,0.06814924779525358,0.09664391686564915,0.01563060859725402
0.2560345,0.023256116417567637,0.026415040976933993,0.14699526983709363,0.01250834882510361,0.04474342835672573,0.06804509219691615,0.09638574749989527,0.015575134505849582
0.2565,0.02318501475925504,0.026440135600001365,0.1476282513340652,0.012384152716082718,0.04473931635686033,0.06793860432340793,0.09613011521374372,0.015518775286607328
0.2569655,0.023116040852705026,0.02646477946899303,0.14826302499396293,0.012259861192879036,0.04473450433524302,0.06782979973424166,0.0958770669419626,0.015461539046012726
0.257431,0.02304922049426077,0.02648895748068035,0.14889944580906225,0.012135491015523626,0.044728995519764114,0.06771869435525257,0.09562664838329311,0.015403434066729105
0.2578966,0.02298457888028058,0.02651265463430851,0.14953736823157518,0.012011059019503842,0.04472279340065167,0.06760530447042645,0.09537890398914063,0.015344468806795826
0.2583621,0.02292214060040296,0.026535856038959405,0.15017664621914179,0.011886582114007508,0.044715901724787684,0.06748964671362247,0.0951338769526758,0.0152846518988056
0.2588276,0.022861929630960263,0.02655854692091678,0.15081713328056529,0.011762077280160179,0.044708324489825105,0.06737173806019776,0.09489160919834388,0.015223992149060958
0.2592931,0.022803969328541538,0.026580712631027605,0.15145868252177327,0.011637561569254955,0.04470006593811635,0.0672515958185423,0.09465214137178095,0.015162498536709973
0.2597586,0.02274828242370528,0.026602338652053865,0.15210114669198896,0.01151305210097424,0.04469113055046404,0.06712923762153383,0.09441551283013767,0.015100180212861258
0.2602241,0.02269489101484244,0.026623410606008643,0.15274437823009576,0.011388566061602878,0.044681523039704345,0.06700468141792346,0.09418176163281293,0.015037046499678368
0.2606897,0.022643816562190028,0.026643914261470513,0.15338822931117987,0.01126412070223216,0.04467124834413309,0.06687794546366244,0.0939509245326012,0.014973106889453743
0.2611552,0.022595079881995505,0.026663835540870123,0.15403255189323647,0.011139733336954293,0.04466031162078439,0.06674904831318093,0.09372303696725984,0.014908371043662385
0.2616207,0.022548701140831982,0.026683160527742913,0.15467719776402583,0.011015421341047018,0.04464871823857157,0.06661800881062913,0.09349813305150392,0.014842848791995603
0.2620862,0.022504699850064227,0.026701875473941858,0.15532201858806596,0.010891202149148222,0.0446364737712997,0.06648484608109093,0.09327624556943792,0.014776550131375273
0.2625517,0.022463094860465247,0.026719966806804128,0.1559668659537494,0.010767093253420517,0.04462358399055912,0.06634957952178001,0.09305740596743378,0.01470948522494913
0.2630172,0.022423904356983135,0.02673742113626553,0.156611591420571,0.010643112201705824,0.04461005485850883,0.06621222879322766,0.09284164434746614,0.014641664401067752
0.2634828,0.022387145853657763,0.026754225261916606,0.1572560465664533,0.01051927659567018,0.04459589252055858,0.06607281381047107,0.09262898946091495,0.014573098152243965
0.2639483,0.022352836188686834,0.0267703661799942,0.15790008303515513,0.010395604088938963,0.044581103297958335,0.06593135473425057,0.09241946870284537,0.014503797134095487
0.2644138,0.02232099151964062,0.026785831090302345,0.158543552583748,0.010272112385222746,0.04456569368030338,0.06578787196222356,0.09221310810677434,0.014433772164271776
0.2648793,0.022291627318824756,0.02680060740305625,0.159186307130144,0.010148819236434015,0.04454967031796354,0.06564238612020247,0.09200993233993249,0.01436303422136599
0.2653448,0.022264758368790268,0.026814682745643113,0.15982819880065713,0.010025742440794926,0.04453304001444447,0.06549491805342379,0.09180996469902936,0.01429159444381303
0.2658103,0.022240398757990047,0.026828044969293453,0.16046907997758003,0.009902899840936301,0.04451580971868899,0.0653454888178547,0.09161322710652924,0.014219464128774544
0.2662759,0.0222185618765808,0.026840682155656638,0.16110880334675623,0.009780309321988095,0.044497986517326164,0.06519411967154363,0.09141974010744426,0.014146654731011787
0.2667414,0.02219926041236963,0.026852582623274147,0.1617472219451266,0.009657988809661627,0.04447957762687589,0.06504083206602118,0.09122952286665069,0.01407317786174708
0.2672069,0.022182506346904166,0.026863734933944096,0.16238418920822914,0.009535956268323941,0.04446059038591623,0.06488564763775644,0.09104259316673373,0.013999045287514672
0.2676724,0.022168310951705236,0.02687412789897033,0.16301955901762846,0.00941422969906473,0.04444103224722096,0.06472858819967475,0.09085896740636586,0.013924268929001666
0.2681379,0.022156684784640977,0.02688375058528942,0.1636531857482513,0.009292827137756334,0.044420910769874346,0.0645696757327417,0.09067866059922296,0.013848860859879705
0.2686034,0.022147637686441273,0.026892592321468792,0.16428492431560301,0.009171766653107406,0.04440023361137013,0.0644089323776178,0.09050168637344236,0.013772833305628023
0.269069,0.022141178777351327,0.026900642703569,0.16491463022283911,0.009051066344710855,0.04437900851970141,0.06424638042638854,0.09032805697162667,0.013696198642348351
0.2695345,0.022137316453923094,0.026907891600863112,0.16554215960766533,0.008930744341086748,0.044357243325448055,0.06408204231437309,0.09015778325139681,0.013618969395572153
0.27,0.02213605838594333,0.02691432916140604,0.16616736928903925,0.008810818797720804,0.044334945933867984,0.06391594061201546,0.08999087468649732,0.013541158239060491
0.2704655,0.022137411513496817,0.026919945817446514,0.16679011681364594,0.008691307895099094,0.044312124316998505,0.06374809801686071,0.08982733936845677,0.013462777993596816
0.270931,0.022141382044163462,0.026924732290674415,0.16741026050211938,0.008572229836739508,0.04428878650577359,0.06357853734561879,0.08966718400880583,0.013383841625772896
0.2713966,0.022147975450347794,0.026928679597296213,0.1680276594949817,0.00845360284722056,0.04426494058216276,0.06340728152631782,0.08951041394185537,0.013304362246768014
0.2718621,0.022157196466739585,0.026931779052931485,0.1686421737982719,0.008335445170208058,0.044240594671337154,0.06323435359054834,0.08935703312803615,0.013224353111121459
0.2723276,0.022169049087904326,0.026934022277323777,0.1692536643288353,0.008217775066480183,0.044215756933868075,0.06305977666579939,0.0892070441578022,0.013143827615498234
0.2727931,0.02218353656600255,0.026935401198859128,0.16986199295924448,0.008100610811951578,0.044190435557963204,0.06288357396788682,0.0890604482560992,0.01306279929744791
0.2732586,0.022200661408637128,0.026935908058885773,0.17046702256232293,0.007983970695697024,0.044164638751746255,0.06270576879347409,0.08891724528739868,0.012981281834156318
0.2737241,0.022220425376827852,0.026935535415828785,0.17106861705524196,0.00786787301797531,0.04413837473558571,0.06252638451268494,0.08877743376129912,0.012899289041189786
0.2741897,0.022242829483112753,0.026934276149093765,0.17166664144316118,0.007752336088253895,0.04411165173447868,0.06234544456180796,0.08864101083869429,0.012816834871231458
0.2746552,0.022267873989775665,0.026932123462754243,0.1722609618623832,0.00763737822323491,0.044084477970496,0.06216297243609183,0.08850797233850907,0.01273393341280923
0.2751207,0.022295558407199642,0.02692907088901813,0.17285144562299215,0.00752301774488301,0.04405686165529486,0.061978991682630345,0.08837831274500302,0.012650598889014786
0.2755862,0.022325881492345854,0.02692511229146947,0.17343796125094668,0.007409272978455558,0.04402881098270567,0.06179352589333558,0.08825202521564082,0.012566845656213195
0.2760517,0.02235884124735747,0.026920241868082544,0.17402037852959862,0.007296162250535532,0.04400033412139992,0.061606598697997526,0.08812910158952988,0.012482688202742618
0.2765172,0.02239443491828797,0.026914454154006458,0.1745985685406077,0.00718370388706754,0.043971439207646325,0.06141823375742771,0.0880095323964243,0.01239814114760355
0.2769828,0.022432658993953372,0.026907744024119447,0.17517240370422474,0.0070719162113972315,0.04394213433816198,0.06122845475668433,0.08789330686629512,0.012313219239137077
0.2774483,0.02247350920490788,0.026900106695352925,0.17574175781891624,0.006960817542314377,0.04391242756306551,0.06103728539837621,0.08778041293946641,0.01222793735369149
0.2779138,0.022516980522542866,0.026891537728785872,0.17630650610030513,0.006850426192099814,0.04388232687893908,0.06084474939604314,0.08767083727731648,0.012142310494276635
0.2783793,0.02256306715830928,0.026882033031510634,0.17686652521940244,0.006740760464576453,0.043851840222005715,0.06065087046761028,0.08756456527354367,0.012056353789205214
0.2788448,0.022611762563064235,0.026871588858271258,0.17742169334010705,0.006631838653164458,0.0438209754614286,0.06045567232891538,0.08746158106599519,0.011970082490720334
0.2793103,0.022663059426542797,0.02686020181287551,0.17797189015595208,0.006523679038940747,0.04378974039273931,0.0602591786873087,0.08736186754905766,0.011883511973608537
0.2797759,0.022716949676956696,0.026847868849382037,0.1785169969260763,0.006416299888702877,0.043758142731401654,0.06006141323532626,0.08726540638660742,0.011796657733797646
0.2802414,0.02277342448072176,0.026834587273064172,0.17905689651040166,0.006309719453037397,0.0437261901065181,0.05986239964443853,0.08717217802551817,0.011709535386938886
0.2807069,0.022832474242316308,0.026820354741152207,0.17959147340399806,0.006203955964392659,0.04369389005468537,0.05966216155887713,0.08708216170972313,0.011622160666972843
0.2811724,0.02289408860427284,0.026805169263356278,0.180120613770618,0.006099027635156089,0.04366125001400604,0.05946072258954317,0.08699533549482825,0.011534549424679082
0.2816379,0.02295825644730583,0.02678902920217213,0.18064420547538385,0.005994952655735854,0.04362827731826209,0.05925810630800072,0.08691167626327283,0.011446717626209352
0.2821034,0.023024965890578897,0.026771933272972222,0.18116213811661086,0.0058917491926468914,0.04359497919125653,0.05905433624055926,0.08683115974003257,0.011358681351604427
0.282569,0.023094204292115093,0.02675388054388453,0.18167430305674837,0.005789435386601228,0.04356136274132869,0.05884943586244888,0.08675376050885988,0.011270456793294753
0.2830345,0.023165958249354218,0.02673487043546147,0.1821805934524226,0.005688029350602555,0.043527434956048536,0.05864342859209173,0.08667945202905532,0.011182060254584987
0.2835,0.023240213599861316,0.026714902720141206,0.1826809042835646,0.005587549168045039,0.04349320269709487,0.05843633778547297,0.08660820665276377,0.011093508148122664
0.2839655,0.02331695542219061,0.026693977521503646,0.1831751323816087,0.005488012890816399,0.04345867269532247,0.05822818673061512,0.08653999564278786,0.011004816994351099
0.284431,0.023396168036909054,0.026672095313323558,0.18366317645675054,0.005389438537405224,0.04342385154602259,0.058018998642159314,0.08647478919091053,0.010916003419946807
0.2848966,0.02347783500778376,0.026649256918423334,0.1841449371242556,0.005291844091012535,0.043388745704381206,0.05780879665605767,0.08641255643671822,0.010827084156241694
0.2853621,0.023561939143137388,0.026625463507328275,0.1846203169298148,0.0051952474976675765,0.04335336148113911,0.05759760382438103,0.0863532654869149,0.010738076037630273
0.2858276,0.023648462497375577,0.026600716596727334,0.18508922037394757,0.005099666664347793,0.04331770503845742,0.05738544311024639,0.08629688343511734,0.010648995999962236
0.2862931,0.023737386372690225,0.026575018047742358,0.18555155393545683,0.005005119457102854,0.0432817823859921,0.057172337382868164,0.08624337638212089,0.010559861078920617
0.2867586,0.023828691320942282,0.026548370064008935,0.1860072260939438,0.004911623699182622,0.043245599377180276,0.056958309412737565,0.0861927094566248,0.010470688408385847
0.2872241,0.023922357145727696,0.02652077518957182,0.18645614735139332,0.004819197169168879,0.04320916170574122,0.056743381866934374,0.08614484683640579,0.010381495218786011
0.2876897,0.024018362904629744,0.026492236306598,0.18689823025284158,0.004727857599110635,0.04317247490239409,0.056527577304575895,0.08609975176992818,0.010292298835433674
0.2881552,0.02411668691166112,0.02646275663291046,0.18733338940613817,0.004637622672662782,0.04313554433179441,0.056310918172408346,0.08605738659837901,0.010203116676849722
0.2886207,0.024217306739898744,0.02643233971934602,0.18776154150081517,0.004548510023227885,0.043098375189690806,0.05609342680054664,0.08601771277811587,0.010113966253074785
0.2890862,0.024320199224314366,0.02640098944694079,0.18818260532607553,0.004460537232100806,0.043060972500303114,0.05587512539836905,0.08598069090351555,0.010024865163968824
0.2895517,0.024425340464803744,0.026368710023947136,0.1885965017879121,0.004373721826615893,0.04302334111392264,0.055656036050573746,0.08594628073021049,0.009935831097499575
0.2900172,0.024532705829417027,0.026335505982686074,0.18900315392536846,0.004288081278296403,0.04298548570473503,0.05543618071340385,0.08591444119870026,0.009846881828020572
0.2904828,0.024642269957792954,0.026301382176239386,0.18940248692595277,0.004203633001005819,0.04294741076886569,0.05521558121104782,0.08588513045832481,0.009758035214539475
0.2909483,0.024754006764799275,0.026266343774985643,0.18979442814021497,0.004120394349100675,0.04290912062264739,0.05499425923222129,0.0858583058915855,0.009669309198977509
0.2914138,0.02486788944438166,0.026230396262984353,0.19017890709549712,0.004038382615584535,0.04287061940110937,0.05477223632693634,0.08583392413879937,0.009580721804420768
0.2918793,0.024983890473623253,0.026193545434212383,0.1905558555088671,0.003957615030262718,0.042831911056687134,0.0545495339034635,0.08581194112307218,0.009492291133364097
0.2923448,0.025101981617016874,0.02615579738865668,0.19092520729924395,0.0038781087578973698,0.04279299935815136,0.05432617322549164,0.08579231207557428,0.009404035365948242
0.2928103,0.02522213393095162,0.026117158528267268,0.19128689859872192,0.003799880896362462,0.0427538878897543,0.054102175409490354,0.08577499156110358,0.009315972758190889
0.2932759,0.025344317768415534,0.026077635552774512,0.19164086776310013,0.003722948474798307,0.042714580050591866,0.053877561422279084,0.0857599335039188,0.00922812164021216
0.2937414,0.02546850278391588,0.026037235455374626,0.19198705538162217,0.0036473284517651613,0.04267507905417898,0.05365235207880689,0.08574709121382575,0.009140500414455046
0.2942069,0.025594657938618273,0.02599596551828751,0.19232540428592912,0.003573037713395514,0.042635387928235756,0.05342656804014621,0.08573641741249848,0.009053127553901223
0.2946724,0.025722751505705837,0.02595383330819089,0.19265585955822903,0.0035000930715446354,0.042595509514681676,0.05320022981170363,0.08572786426001731,0.008966021600282694
0.2951379,0.02585275107595929,0.025910846671534794,0.1929783685386834,0.003428511261939008,0.042555446469834696,0.052973357741650184,0.08572138338160465,0.00887920116228967
0.2956034,0.02598462356355866,0.025867013729740318,0.19329288083201143,0.003358308942322256,0.04251520126481193,0.052745972019573574,0.08571692589453925,0.00879268491377504
0.296069,0.0261183352121072,0.02582234287428662,0.19359934831331183,0.003289502690598207,0.04247477618612838,0.052518092675353886,0.08571444243522935,0.008706491591955854
0.2965345,0.02625385160087777,0.025776842761690438,0.193897725133101,0.003222109002970745,0.0424341733364899,0.05228973957826469,0.08571388318642459,0.00862063999561213
0.297,0.02639113765128175,0.02573052230838261,0.19418796772156752,0.0031561442920801566,0.04239339463577629,0.05206093243630055,0.08571519790454617,0.008535148983283345
0.2974655,0.02653015763356038,0.025683390685486588,0.194470034792041,0.0030916248851356456,0.042352441822210186,0.05183169079573209,0.085718335947115,0.008450037471462887
0.297931,0.026670875173698202,0.025635457313504285,0.19474388734367368,0.0030285670220437473,0.0423113164537073,0.05160203404088917,0.08572324630025757,0.008365324432790746
0.2983966,0.026813253260558105,0.025586731856914794,0.19500948866333306,0.0029669868535323407,0.04227001990940301,0.05137198139417254,0.08572987760627006,0.00828102889424465
0.2988621,0.026957254253237486,0.025537224218691704,0.195266804326703,0.0029069004392699663,0.04222855339135036,0.05114155191629387,0.08573817819122218,0.008197169935329826
0.2993276,0.02710283988864498,0.025486944534744652,0.19551580219859008,0.002848323745980122,0.042186917926383974,0.05091076450674383,0.08574809609258334,0.00811376668626748
0.2997931,0.027249971289297202,0.025435903168290613,0.1957564524324333,0.0027912726455502066,0.042145114368144394,0.05067963790448733,0.08575957908685457,0.008030838326182064
0.3002586,0.027398608971334875,0.025384110704160218,0.19598872746901205,0.002735762913134765,0.04210314339925719,0.05044819068888464,0.08577257471719003,0.007948404081287337
0.3007241,0.027548712852757798,0.025331577943044244,0.19621260203434918,0.002681810225252678,0.04206100553366107,0.050216441280837076,0.08578703032099186,0.007866483223071156
0.3011897,0.027700242261878043,0.025278315895685355,0.19642805313680362,0.0026294301578779285,0.04201870111907911,0.04998440794415525,0.08580289305746218,0.007785095066478897
0.3016552,0.027853155945990884,0.025224335777019925,0.19663506006334877,0.0025786381845235742,0.04197623033962722,0.04975210878714771,0.08582010993509662,0.007704258968095388
0.3021207,0.028007412080262938,0.02516964900027467,0.19683360437503045,0.0025294496743185715,0.04193359321855354,0.04951956176442758,0.08583862783910327,0.007623994324325117
0.3025862,0.028162968276837154,0.02511426717102263,0.19702366990159959,0.00248187989007711,0.041890789621102716,0.04928678467893442,0.08585839355873212,0.007544320569570501
0.3030517,0.02831978159415408,0.025058202081202813,0.1972052427353144,0.0024359439863601345,0.041847819257498316,0.049053795184168136,0.08587935381450051,0.0074652571744079415
0.3035172,0.028477808546488844,0.02500146570310781,0.19737831122390717,0.0023916570075287464,0.0418046816860372,0.04882061078663149,0.08590145528530084,0.0073868236437613834
0.3039828,0.028637005113703172,0.02494407018334321,0.1975428659627102,0.0023490338857891755,0.04176137631628921,0.04858724884847731,0.08592464463537754,0.007309039515073003
0.3044483,0.0287973267512115,0.02488602783676274,0.19769889978593702,0.0023080894392290274,0.04171790241239579,0.04835372659035602,0.08594886854116018,0.007231924356470632
0.3049138,0.028958728400159957,0.0248273511403826,0.19784640775711443,0.002268838369844519,0.041674259096460914,0.048120061094458925,0.08597407371794023,0.007155497764931482
0.3053793,0.02912116449781685,0.024768052727278392,0.1979853871586621,0.002231295261558436,0.041630445352027756,0.047886269307752076,0.08600020694637851,0.007079779364441656
0.3058448,0.029284588988173047,0.024708145380467877,0.19811583748061667,0.0021954745782285846,0.0415864600276341,0.04765236804539547,0.08602721509883166,0.007004788804150909
0.3063103,0.029448955332750198,0.0246476420267825,0.19823776040849833,0.002161390661646553,0.04154230184043953,0.047418373994341796,0.08605504516548478,0.006930545756522063
0.3067759,0.029614216521614806,0.024586555730730632,0.19835115981031812,0.0021290577295266263,0.04149796937991689,0.04718430371710871,0.08608364428027836,0.006857069915474473
0.3072414,0.029780325084595594,0.024524899688355202,0.19845604172272527,0.0020984898734847574,0.04145346111160069,0.04695017365571842,0.08611295974661652,0.006784380994520929
0.3077069,0.02994723310270163,0.02446268722108839,0.19855241433629428,0.0020697010570075156,0.04140877538088445,0.04671600013579835,0.08614293906284382,0.006712498724897385
0.3081724,0.030114892219738384,0.024399931769605906,0.1986402879799531,0.002042705113410972,0.04136391041685931,0.04648179937083683,0.0861735299474768,0.006641442853684963
0.3086379,0.03028325365411876,0.0243366468876833,0.19871967510455277,0.0020175157437894984,0.04131886433618566,0.046247587466588094,0.08620468036417651,0.006571233141923658
0.3091034,0.030452268210865975,0.0242728462360567,0.19879059026558055,0.0019941465149544684,0.04127363514698979,0.04601338042562126,0.08623633854644704,0.0065018893627172
0.309569,0.03062188629380528,0.024208543576290265,0.19885305010501764,0.001972610857362881,0.04122822075277738,0.04577919415200818,0.08626845302204553,0.006433431299328478
0.3100345,0.030792057917941353,0.024143752764652634,0.1989070733323431,0.001952922063035921,0.04118261895635631,0.045545044456144886,0.08630097263708825,0.006365878743264917
0.3105,0.030962732722018587,0.024078487746004632,0.1989526807046849,0.0019350932834674914,0.041136827463761835,0.045310947059701595,0.08633384657983693,0.006299251492353205
0.3109655,0.031133859981261395,0.02401276254770045,0.1989898950061186,0.0019191375275227464,0.041090843888177644,0.04507691760069587,0.08636702440414941,0.006233569348802686
0.311431,0.03130538862029214,0.023946591273504365,0.19901874102611333,0.0019050676593266858,0.04104466575384698,0.04484297163868351,0.0864004560525792,0.006168852117256757
0.3118966,0.031477267226224695,0.023879988097525194,0.19903924553712554,0.0018928963961428742,0.04099829049996791,0.044609124660061616,0.08643409187910861,0.006105119602831587
0.3123621,0.03164944406193192,0.02381296725817057,0.19905143727134306,0.001882636306242372,0.040951715484567365,0.04437539208347807,0.0864678826715003,0.006042391609141469
0.3128276,0.03182186707948564,0.02374554305212305,0.19905534689658366,0.0018742998067629913,0.040904937988348454,0.044141789265341846,0.08650177967325279,0.005980687936310174
0.3132931,0.031994483933767935,0.023677729828340002,0.19905100699135655,0.0018678991615590323,0.04085795521850607,0.043908331505428354,0.0865357346051454,0.005920028378967668
0.3137586,0.032167241996252705,0.023609541982079194,0.19903845201909875,0.0018634464790417144,0.040810764312506284,0.04367503405257428,0.08656969968635893,0.005860432724231626
0.3142241,0.03234008836895632,0.02354099394895183,0.19901771830160417,0.0018609537100105849,0.040763362341825246,0.0434419121104563,0.08660362765515879,0.005801920749673135
0.3146897,0.03251296989855635,0.0234721001990047,0.19898884399166586,0.0018604326454762612,0.04071574631564377,0.043208980843448035,0.08663747178912906,0.005744512221266019
0.3151552,0.03268583319067719,0.023402875230832943,0.19895186904495601,0.0018618949144749322,0.040667913184494274,0.0429762553825495,0.08667118592494626,0.0056882268913192036
0.3156207,0.032858624624341616,0.023333333565724746,0.19890683519116992,0.0018653519818751115,0.04061985984385715,0.042743750831383244,0.08670472447768256,0.005633084496391561
0.3160862,0.03303129036658761,0.02326348974183923,0.1988537859044604,0.001870815146177203,0.04057158313770429,0.04251148227225107,0.08673804245962878,0.005579104755188679
0.3165517,0.03320377638724985,0.023193358308418517,0.19879276637318943,0.001878295537306502,0.04052307986198759,0.0422794647722451,0.0867710954986289,0.005526307366440992
0.3170172,0.033376028473905674,0.023122953820034788,0.19872382346902256,0.001887804114400311,0.04047434676807121,0.042047713389406896,0.08680383985591944,0.005474712006762683
0.3174828,0.033547992246985486,0.023052290830873047,0.1986470057153927,0.001899351663589926,0.040425380566106436,0.04181624317892822,0.08683623244346922,0.005424338328490737
0.3179483,0.03371961317504732,0.02298138388905007,0.19856236325535764,0.0019129487957783037,0.04037617792834895,0.04158506919938674,0.08686823084081705,0.005375205957503508
0.3184138,0.03389083659021576,0.022910247530969888,0.19846994781887728,0.0019286059444142715,0.040326735492418955,0.04135420651900998,0.08689979331140635,0.005327334491018093
0.3188793,0.034061607703784996,0.022838896275716055,0.19836981268953616,0.0019463333632641707,0.04027704986450507,0.041123670221960625,0.08693087881841725,0.005280743495365803
0.3193448,0.0342318716219856,0.022767344619480743,0.19826201267073723,0.0019661411241818517,0.04022711762251351,0.040893475414635935,0.08696144704009683,0.005235452503744991
