Time,Rectus Femoris right,Rectus Femoris left,Hamstrings right,Hamstrings left,TibilaisÂ Anterior right,TibilaisÂ Anterior left,Gastrocnemius right,Gastrocnemius left
0.0,-0.0007087675970298355,0.0010694902120568241,-0.007468660174562381,-0.0063776672007517295,0.001218018444643392,-0.001997985243593216,0.0005318191136102817,-0.008832273208631546
0.0004655,-0.0006518572409690883,0.0011242250909128068,-0.007257356723072024,-0.005846008771256382,0.001264109113017811,-0.001758378909734084,0.000504347939605253,-0.008151065249961873
0.000931,-0.0005952933930737598,0.0011796080131541908,-0.007042139092240263,-0.005315203331229936,0.0013105910692811295,-0.0015176380344378861,0.0004768225722791234,-0.007473639919647348
0.0013966,-0.0005390825289865497,0.0012356406127164243,-0.006822976600611621,-0.004785326783830842,0.0013574636074591153,-0.0012757825113592649,0.00044925718913860294,-0.0068000970475393455
0.0018621,-0.00048323096339732634,0.0012923244636214107,-0.006599838830387008,-0.004256454875584318,0.0014047260038690407,-0.0010328324456675315,0.0004216662669364348,-0.006130535390106979
0.0023276,-0.00042774484628047883,0.0013496610794007603,-0.006372695636537047,-0.0037286631728125053,0.001452377518102498,-0.000788808149805968,0.0003940645823372657,-0.005465052595535549
0.0027931,-0.0003726301591838191,0.0014076519125123517,-0.00614151715599218,-0.0032020270381330892,0.001500417394012379,-0.0005437301392172648,0.00036646721250533813,-0.0048037451693204655
0.0032586,-0.0003178927115717293,0.0014662983537495039,-0.005906273816909213,-0.002676621607040926,0.001548844860702382,-0.00029761912803751413,0.0003388895356126243,-0.00414670844038053
0.0037241,-0.0002635381372252135,0.0015256017316420767,-0.005666936348013793,-0.0021525217645861246,0.0015976591335175921,-5.049602476110986e-05,0.00031134723126607184,-0.003494036527714218
0.0041897,-0.00020957189070146831,0.0015855633118488336,-0.005423475788018152,-0.001629802122161093,0.0016468594150348972,0.00019761807212114406,0.0002838562808526725,-0.002845822307622421
0.0046552,-0.00015599924385553736,0.0016461842965404174,-0.005175863495113306,-0.0011085369944082287,0.0016964448960522626,0.00044670187850845975,0.00025643296780109546,-0.0022021573815207626
0.0051207,-0.00010282528242656559,0.0017074658237723253,-0.004924071156534779,-0.0005888003762593609,0.001746414756576129,0.0006967339290988227,0.000229093877758645,-0.001563132044364404
0.0055862,-5.005490269111028e-05,0.0017694089668473317,-0.004668070798200785,-7.0665920117671e-05,0.001796768166806359,0.0009476925818179492,0.00020185589868231156,-0.0009288352537079608
0.0060517,2.3071918140924272e-06,0.0018320147336669057,-0.004407834794421679,0.0004457930868073723,0.0018475042881182942,0.001199556022266408,0.00017473622084269758,-0.00029935459942294525
0.0065172,5.4256493497573634e-05,0.001895284066071284,-0.004143335877679363,0.0009605037450016797,0.0018986222740415503,0.0014523022681829831,0.00014775233673961177,0.00032522372590512667
0.0069828,0.00010578869384453036,0.0019592178391679804,-0.0038745471484751904,0.0014733935649745725,0.001950121271235232,0.0017059091739224834,0.00012092204092814525,0.0009448149558781956
0.0074483,0.0001568996864719948,0.0020238168606486373,-0.0036014420852447876,0.0019843904894031746,0.0020020004204592853,0.0019603544349463447,9.42634297540606e-05,0.0015593357784645157
0.0079138,0.00020758557010567508,0.0020890818700942046,-0.00332399455433807,0.00249342291508351,0.0020542588575417067,0.002215615592324517,6.779490099734459e-05,0.0021687043634345165
0.0083793,0.00025784265147645534,0.002155013538268494,-0.0030421788200626063,0.003000419714679057,0.0021068957143413314,0.0024716700372472864,4.153515342279196e-05,0.0027728403890342097
0.0088448,0.0003076674481346328,0.0022216124664001975,-0.0027559695547883264,0.003505310258257926,0.002159910119705925,0.0027284950155458303,1.5503186236509694e-05,0.003371665067877643
0.0093103,0.00035705669118005993,0.0022888791854534965,-0.0024653418491114043,0.004008024434610159,0.002213301200425303,0.0029860676322204516,-1.0281701552741476e-05,0.00396510117204074
0.0097759,0.000406007327906454,0.0023568141553874074,-0.0021702712220749887,0.004508492672336842,0.0022670680821792032,0.0032443648559755587,-3.579991186841774e-05,0.00455307305733952
0.0102414,0.0004545165243582265,0.0024254177644040535,-0.0018707336314443168,0.005006645960702836,0.0023212098904796166,0.0035033635237605412,-6.103154839828803e-05,0.005135506686776177
0.0107069,0.000502581667798283,0.0024946903281860755,-0.0015667054840335702,0.005502415870245042,0.002375725751607298,0.0037630403453157587,-8.595641752473239e-05,0.005712329653136944
0.0111724,0.0005502003690853369,0.0025646320891234285,-0.0012581636460816436,0.00599573457312815,0.002430614793542145,0.004023371907722904,-0.00011055402935418815,0.0062834712007261775
0.0116379,0.0005973704649593785,0.0026352432155298477,-0.000945085453673774,0.0064865348632399625,0.0024858761468871276,0.004284334679959014,-0.00013480359884666474,0.006848862246221804
0.0121034,0.0006440900202340418,0.0027065238008492794,-0.0006274487232057707,0.006974750176018422,0.0025415089457854656,0.004545905017453488,-0.000158684047046228,0.007408435398638068
0.012569,0.0006903573298947041,0.0027784738628525906,-0.0003052317618874168,0.0074603146080025814,0.0025975123288307306,0.004808059166647537,-0.000182174002413339,0.007962124978382513
0.0130345,0.0007361709211012504,0.0028510933428248755,2.1586621718502598e-05,0.007943162936099797,0.0026538854399695898,0.005070773269555651,-0.00020525180225991238,0.008509867035395293
0.0135,0.0007815295550945346,0.002924382104743701,0.0003530271071251636,0.00842323063656147,0.0027106274293969084,0.00533402336832884,-0.0002278954942879378,0.009051599366360326
0.0139655,0.0008264322290056512,0.0029983399344486426,0.0006891098513223358,0.008900453903659646,0.0027677374544429435,0.005597785409819677,-0.0002500828382324856,0.009587261530979357
0.014431,0.000870878177567211,0.003072966538802492,0.0010298544781524048,0.009374769668056778,0.0028252146804523723,0.00586203525014939,-0.00027179130760989444,0.010116794867301748
0.0148966,0.0009148668747258635,0.003148261544844533,0.001375280067665545,0.009846115614860948,0.0028830582816549042,0.006126748659277435,-0.0002929980915719157,0.01064014250610451
0.0153621,0.0009583980351553557,0.0032242244989363045,0.001725405145457831,0.010314430201358839,0.0029412674420272395,0.006391901325574135,-0.0003136800968665564,0.011157249384318564
0.0158276,0.001001471615669452,0.0033008548659002536,0.002080247671996083,0.010779652674418737,0.0029998413561461513,0.006657468860396972,-0.0003338139499063187,0.01166806225749831
0.0162931,0.001044087816534095,0.0033781520281516825,0.0024398250319332465,0.011241723087555862,0.0030587792300325097,0.006923426802671168,-0.00035337599894447815,0.012172529711332421
0.0167586,0.0010862470826782488,0.0034561152848243825,0.002804154023418117,0.011700582317652357,0.0031180802819860813,0.007189750623475104,-0.0003723423163599821,0.01267060217219431
0.0172241,0.0011279501048029297,0.003534743850890341,0.0031732508474032225,0.01215617208132442,0.0031777437434109563,0.007456415730631131,-0.0003906887010514844,0.01316223191673137
0.0176897,0.0011691978203880078,0.0036140368562739052,0.0035471310969547136,0.01260843495092927,0.0032377688596314943,0.007723397473302226,-0.00040839068094096015,0.013647373080492983
0.0181552,0.0012099914145964287,0.0036939933449607965,0.003925809746568149,0.013057314370204987,0.003298154890698702,0.007990671146594946,-0.0004254235155872734,0.014125981665598416
0.0186207,0.001250332321075575,0.0037746122741023837,0.004309301141494107,0.0135027546695366,0.003358901112186969,0.008258211996169053,-0.00044176219890999823,0.014598015547446911
0.0190862,0.0012902222226555437,0.003855892513115628,0.004697618987077635,0.01394470108084237,0.0034200068159811223,0.008525995222854148,-0.0004573814620237231,0.015063434480473734
0.0195517,0.0013296630519441723,0.00393783284277915,0.005090776338115588,0.014383099752074708,0.0034814713110537577,0.008793995987273609,-0.00047225577618301455,0.015522200102957314
0.0200172,0.0013686569918187007,0.004020431954325872,0.005488785588235974,0.014817897761330764,0.0035432939242328286,0.00906218941447609,-0.0004863593558381748,0.015974275940884183
0.0204828,0.0014072064758140173,0.004103688448532743,0.005891658459303475,0.015249043130568232,0.0036054740009594756,0.009330550598574766,-0.0004996661618018987,0.016419627410880055
0.0209483,0.0014453141884074952,0.004187600834808055,0.006299405990855323,0.0156764848389225,0.0036680109060360623,0.009599054607394429,-0.0005121499045269122,0.01685822182221711
0.0214138,0.0014829830652004973,0.004272167530276919,0.006712038529571801,0.01610017283562178,0.0037309040243644048,0.009867676487126553,-0.0005237840474946576,0.017290028377909123
0.0218793,0.0015202162929966883,0.004357386858865483,0.007129565718785565,0.016520058052497302,0.003794152761674148,0.01013639126699229,-0.0005345418107150746,0.01771501817490755
0.0223448,0.0015570173097773515,0.004443257050384517,0.007551996488034073,0.016936092416086044,0.0038577565452412367,0.010405173963913359,-0.0005443961743375091,0.01813316420341278
0.0228103,0.0015933898045739823,0.004529776239613028,0.007979339042659335,0.017348228859323724,0.003921714824596398,0.0106739995871908,-0.0005533198823727722,0.01854444134531559
0.0232759,0.0016293377172384852,0.004616942465382585,0.008411600853459206,0.01775642133282604,0.003986027072223538,0.010942843143191435,-0.0005612854465263555,0.018948826371784223
0.0237414,0.0016648652381113704,0.004704753669663066,0.008848788646394526,0.018160624815756154,0.004050692784247906,0.011211679640042013,-0.0005682651501427953,0.019346297940012712
0.0242069,0.0016999768075884123,0.0047932076966505895,0.009290908392356401,0.018560795326276632,0.004115711481113863,0.01148048409233092,-0.0005742310522611573,0.019736836589146038
0.0246724,0.0017346771155863018,0.004882302291858348,0.009737965296998106,0.01895688993158433,0.004181082708252079,0.01174923152581742,-0.0005791549917815971,0.020120424735397584
0.0251379,0.001768971100907904,0.004972035101211172,0.010189963790636213,0.019348866757527228,0.004246806036735927,0.012017896982148378,-0.0005830085917429307,0.020497046666374325
0.0256034,0.001802863950507811,0.005062403670144582,0.010646907518225756,0.01973668499780279,0.004312881063926817,0.012286455523582457,-0.0005857632637111348,0.02086668853462508
0.026069,0.0018363610986589529,0.005153405442709161,0.011108799329414514,0.020120304922738336,0.004379307414108204,0.012554882237721719,-0.0005873902122786742,0.021229338350427125
0.0265345,0.00186946822602111,0.005245037760681046,0.011575641268681651,0.02049968788765455,0.004446084739107967,0.012823152242250556,-0.0005878604396745271,0.021584985973826337
0.027,0.0019021912586122134,0.005337297862679389,0.012047434565566272,0.02087479634081392,0.004513212718908826,0.013091240689681835,-0.000587144750484746,0.021933623105946147
0.0274655,0.0019345363666833702,0.0054301828832915965,0.012524179624991558,0.021245593830956453,0.004580691062246465,0.013359122772110201,-0.0005852137564833424,0.02227524327958038
0.027931,0.0019665099634985713,0.0055236898522072,0.013005876017690283,0.02161204501442541,0.0046485195071949955,0.013626773725972544,-0.0005820378815732307,0.022609841849085228
0.0283966,0.001998118704020057,0.005617815693361205,0.013492522470737551,0.021974115661886062,0.004716697821739346,0.013894168836815896,-0.0005775873668369027,0.022937415979585624
0.0288621,0.0020293694835003284,0.005712557224087795,0.013984116858196597,0.022331772664640752,0.004785225804334181,0.014161283444073303,-0.0005718322756964366,0.023257964635511306
0.0293276,0.0020602694359817906,0.00580791115428535,0.014480656191883422,0.02268498404054355,0.0048541032844488866,0.014428092945848438,-0.0005647424991823852,0.023571488568478093
0.0297931,0.002090825932705051,0.005903874085593765,0.01498213661225617,0.023033718939518007,0.004923330123098154,0.014694572803709942,-0.0005562877613110302,0.02387799030453001
0.0302586,0.0021210465804269055,0.0060004425105851305,0.015488553379435003,0.023377947648681296,0.0049929062133577265,0.014960698547496556,-0.0005464376245694494,0.024177474130757885
0.0307241,0.002150939219649098,0.006097612811968895,0.015999900864358426,0.023717641597078027,0.005062831480864839,0.015226445780134205,-0.0005351614955078133,0.024469946081310073
0.0311897,0.0021805119227589743,0.006195381261812645,0.016516172540081902,0.024052773360026897,0.005133105884302918,0.01549179018246611,-0.0005224286304382943,0.024755413922810943
0.0316552,0.0022097729920831847,0.0062937440207797195,0.01703736097322465,0.02438331666308305,0.005203729415870104,0.01575670751809698,-0.0005082081412399376,0.025033887139202734
0.0321207,0.002238730957855613,0.006392697137384913,0.017563457815570463,0.024709246385619024,0.0052747021017311175,0.016021173638252235,-0.0004924690012687921,0.025305376916026485
0.0325862,0.0022673945761007203,0.006492236547269521,0.0180944537958283,0.02503053856402683,0.005346024002451995,0.016285164486653146,-0.00047518005137253417,0.025569896124157568
0.0330517,0.002295772826433497,0.006592358072497085,0.018630338711558427,0.025347170394543622,0.005417695213417149,0.016548656104408564,-0.0004563100060087531,0.02582745930301153
0.0335172,0.0023238749097772024,0.00669305742087113,0.0191711014212697,0.025659120235703253,0.0054897158652282094,0.016811624634923875,-0.0004358274594660054,0.026078082643235835
0.0339828,0.0023517102460000774,0.006794330185276253,0.019716729836693606,0.025966367610415833,0.00556208612408403,0.017074046328827655,-0.0004137008921866903,0.0263217839689032
0.0344483,0.0023792884714721797,0.006896171843043908,0.020267210915240693,0.026268893207677297,0.005634806192141257,0.017335897548916342,-0.00038989867719074257,0.026558582719222172
0.0349138,0.0024066194365434954,0.006998577755344208,0.020822530652644913,0.026566678883910923,0.00570787630785483,0.017597154775117137,-0.00036438908659906837,0.026788499929780704
0.0353793,0.002433713202944463,0.007101543166605058,0.02138267407580149,0.02685970766394252,0.005781296746297801,0.017857794609469284,-0.0003371402982555601,0.02701155821333837
0.0358448,0.00246058004111004,0.007205063203959908,0.021947625235803934,0.027147963741610937,0.0058550678194598405,0.01811779378112368,-0.000308120402446427,0.027227781740182998
0.0363103,0.0024872304274284377,0.007309132876725393,0.022517367201185728,0.027431432480015405,0.0059291898765238184,0.018377129151360715,-0.0002772974087154718,0.027437196218067363
0.0367759,0.0025136750414156625,0.007413747075910117,0.023091882051372362,0.027710100411401043,0.006003663304119918,0.018635777718626106,-0.00024463925277385263,0.02763982887174153
0.0372414,0.002539924762816986,0.007518900573755809,0.02367115087034918,0.0279839552366838,0.006078488526556709,0.018893716623584376,-0.00021011380350279254,0.027835708422096577
0.0377069,0.002565990668636494,0.007624588023312059,0.02425515374055048,0.028252985824616026,0.006153666006028681,0.019150923154189484,-0.000173688870047642,0.028024865064935192
0.0381724,0.0025918840300958534,0.007730803958045818,0.02484386973697527,0.0285171822105937,0.006229196242799778,0.019407374750772026,-0.00013533220900165647,0.028207330449384616
0.0386379,0.0026176163095234365,0.007837542791486801,0.02543727692153484,0.028776535595106244,0.006305079775362476,0.01966304901114234,-9.501153167782449e-05,0.02838313765596735
0.0391034,0.002643199157174936,0.007944798816909893,0.026035352337637197,0.029031038341829855,0.006381317180572039,0.019917923695708623,-5.2694511467066285e-05,0.028552321174344975
0.039569,0.002668644407986588,0.008052566207055594,0.02663807200501336,0.029280683975365165,0.006457909073755521,0.020171976732609107,-8.348791281111417e-06,0.028714916880750303
0.0400345,0.002693964078262106,0.00816083901388948,0.027245410914790158,0.0295254671786201,0.006534856108795184,0.02042518622285723,3.8058008921645744e-05,0.028870962015123038
0.0405,0.002719170362294413,0.008269611168401634,0.027857343024814133,0.02976538378983887,0.00661215897818595,0.020677530445498634,8.6558284529029e-05,0.02902049515796396
0.0409655,0.002744275628923243,0.008378876480446891,0.028473841255231017,0.03000043079927807,0.006689818413066501,0.020928987862778498,0.00013718443858843864,0.02916355620692248
0.041431,0.002769292418029663,0.008488628638626726,0.029094877484325012,0.03023060634553112,0.006767835183223663,0.021179537125317765,0.0001899688740424511,0.02930018635313238
0.0418966,0.002794233436968581,0.00859886121021354,0.029720422544621945,0.03045590971150264,0.00684621009706966,0.021429157077296545,0.00024494398588845943,0.029430428057310377
0.0423621,0.00281911155694027,0.008709567641117992,0.03035044621926015,0.03067634132003442,0.006924944001591871,0.021677826761642833,0.00030214215326419293,0.029554325025631815
0.0428276,0.002843939809301963,0.008820741255900004,0.03098491723863281,0.030891902729185173,0.007004037782274661,0.02192552542522453,0.0003615957314609928,0.029671922185397864
0.0432931,0.0028687313818205394,0.008932375257824027,0.031623803277305136,0.031102596627166374,0.007083492362992909,0.022172232524042605,0.00042333704386675526,0.02978326566050821
0.0437586,0.0028934996148673488,0.009044462728959035,0.03226707095120963,0.03130842682693665,0.00716330870587687,0.022417927728422972,0.00048739837384048347,0.02988840274675322
0.0442241,0.002918257997556187,0.009156996630323733,0.032914685815122316,0.03150939826045753,0.007243487811148003,0.02266259092820454,0.0005538119565204131,0.029987381886939266
0.0446897,0.002943020163825462,0.009269969802077388,0.033566612360422785,0.03170551697261325,0.007324030716925396,0.02290620223792078,0.0006226099705676959,0.03008025264586077
0.0451552,0.002967799888465597,0.009383374963756606,0.03422281401314036,0.0318967901147976,0.007404938499002457,0.02314874200197195,0.0006938245298476458,0.03016706568513225
0.0456207,0.00299261108309273,0.009497204714558354,0.03488325313228866,0.03208322593817072,0.007486212270593461,0.023390190799785143,0.0007674876750505673,0.030247872737893467
0.0460862,0.003017467792069793,0.00961145153366947,0.0355478910084904,0.032264833786588655,0.0075678531820496065,0.023630529450959076,0.0008436313652541989,0.03032272658340048
0.0465517,0.0030423841883760847,0.009726107780642838,0.036216687862894274,0.03244162408920863,0.00764986242054418,0.023869739020390697,0.0009222874694298141,0.030391681021515266
0.0470172,0.003067374569426461,0.009841165695820381,0.036889602846385296,0.032613608352772806,0.0077322412097264185,0.024107800823380633,0.0010034877578940348,0.030454790847106155
0.0474828,0.0030924533528412916,0.009956617400803017,0.03756659403908991,0.03278079915357336,0.007814990809343668,0.024344696430714657,0.001087263893708425,0.030512111824371194
0.0479483,0.0031176350721683556,0.010072454898967638,0.03824761845017683,0.03294321012910217,0.007898112514831364,0.024580407673718416,0.0011736474240289553,0.030563700661096288
0.0484138,0.0031429343725578552,0.010188670076031137,0.03893263201795453,0.033100855969388505,0.0079816076568704,0.024814916649282818,0.0012626697714074623,0.030609614982859624
0.0488793,0.003168366006391709,0.010305254700661456,0.03962158961026577,0.033253752408028796,0.008065477600911376,0.025048205724857633,0.0013543622250472601,0.030649913307193768
0.0493448,0.0031939448288682763,0.010422200425135602,0.040314445025179696,0.03340191621291258,0.008149723746665212,0.025280257543411,0.0014487559320151171,0.030684655017716576
0.0498103,0.003219685793543657,0.010539498786044496,0.04101115099198154,0.033545365176649654,0.008234347527559598,0.025511055028352624,0.0015458818884118495,0.030713900338241923
0.0502759,0.003245603947830686,0.01065714120504458,0.04171165917245977,0.03368411810670346,0.008319350410160733,0.02574058138841841,0.0016457709305038371,0.030737710306881005
0.0507414,0.0032717144284567256,0.010775118989655993,0.042415920162490475,0.033818194815236215,0.00840473389355975,0.025968820122514315,0.0017484537258178098,0.030756146750145045
0.0512069,0.0032980324568813333,0.010893423334107175,0.04312388349391854,0.03394761610867173,0.008490499508723272,0.026195755024516917,0.0018539607642012916,0.03076927225705988
0.0516724,0.003324573334674861,0.011012045320225726,0.043835497636734805,0.03407240377698198,0.008576648817807453,0.026421370188028218,0.001962322348851128,0.03077715015330312
0.0521379,0.0033513524388590317,0.011130975918375249,0.044550710001548595,0.034192580582703795,0.0086631834134349,0.026645650011082014,0.002073568587312542,0.030779844475374137
0.0526034,0.0033783852172105306,0.011250205988437964,0.045269466942354654,0.03430817024969239,0.008750104917933845,0.026868579200799263,0.002187729382451185,0.030777419944807195
0.053069,0.0034056871835286594,0.011369726280842726,0.04599171375959365,0.034419197451618505,0.008837414982538932,0.02709014277798985,0.0023048344234006817,0.030769941942437665
0.0535345,0.0034332739128681267,0.011489527437638047,0.04671739470350523,0.034525687800216115,0.008925115286552978,0.027310326081698397,0.0024249131764881864,0.030757476482731232
0.054,0.003461161036738083,0.011609599993609637,0.047446452977772675,0.03462766783328778,0.009013207536469081,0.027529114773691955,0.00254799487614051,0.030740090188185677
0.0544655,0.003489364238268538,0.01172993437744191,0.048178830743458335,0.034725165002474544,0.00910169346505244,0.0277464948428877,0.0026741085157734015,0.030717850263814572
0.054931,0.0035178992473453657,0.011850520912922836,0.04891446912322911,0.034818207660797205,0.009190574830381283,0.027962452609718958,0.0028032828386666104,0.030690824471722142
0.0553966,0.003546781835715121,0.011971349820191483,0.04965330820587127,0.034906825049975665,0.00927985341484636,0.028176974730438002,0.002935546328827403,0.030659081105778252
0.0558621,0.0035760278120609405,0.012092411217027551,0.05039528705109399,0.034991047287532655,0.009369531024108537,0.02839004820135408,0.00307092720184528,0.030622688966402262
0.0563276,0.0036056530170508316,0.01221369512018224,0.051140343694620914,0.03507090535368824,0.009459609486014075,0.02860166036300509,0.003209453395740703,0.030581717335464276
0.0567931,0.00363567331835969,0.01233519144674979,0.051888415153569255,0.035146431078051224,0.009550090649467295,0.028811798904261172,0.0033511525618106866,0.03053623595131199
0.0572586,0.0036661046056663833,0.012456890015579118,0.052639437432115584,0.035217657126113515,0.009640976383260365,0.029020451866358512,0.0034960520554741504,0.030486314983931256
0.0577241,0.0036969627856272592,0.012578780548724893,0.05339334552744754,0.03528461698555357,0.009732268574860013,0.029227607646861373,0.0036441789271199486,0.030432025010248095
0.0581897,0.003728263776827451,0.012700852672937605,0.05415007343600031,0.03534734495235494,0.00982396912915089,0.02943325500355051,0.003795559912960487,0.030373436989579828
0.0586552,0.0037600235047113664,0.012823095921192067,0.054909554159976885,0.035405876116746005,0.009916079967135394,0.029637383058235954,0.00395022142589384,0.030310622239242732
0.0591207,0.0037922578964937363,0.01294549973425389,0.055671719714150594,0.03546024634896687,0.010008603024589594,0.029839981300492046,0.004108189546377263,0.030243652410323462
0.0595862,0.003824982876052626,0.013068053462283498,0.056436501132948604,0.03551049228486968,0.010101540250674942,0.030041039591312522,0.004269490013315033,0.030172599463621285
0.0600517,0.0038582143588057815,0.013190746366477277,0.05720382847781473,0.0355566513113584,0.010194893606505306,0.030240548166683253,0.004434148214963524,0.03009753564576787
0.0605172,0.003891968246571693,0.013313567620745445,0.05797363084484983,0.035598761551674296,0.01028866506366884,0.03043849764107,0.004602189179856464,0.03001853346553138
0.0609828,0.003926260422416746,0.01343650631342628,0.058745836372727754,0.035636861850533275,0.010382856602704103,0.03063487901081844,0.004773637567753332,0.029935665670311033
0.0614483,0.003961106745489802,0.0135595514490364,0.059520372250884857,0.03567099175912122,0.010477470211529871,0.030829683657463528,0.004948517660613845,0.029849005222828406
0.0619138,0.003996523045845555,0.013682691950056678,0.060297164727980385,0.035701191519953525,0.010572507883828018,0.031022903350945135,0.00512685335360155,0.029758625278021266
0.0623793,0.004032525119257984,0.013805916658753496,0.06107613912062522,0.0357275020516048,0.01066797161737898,0.031214530252726667,0.005308668146119488,0.02966459916014554
0.0628448,0.004069128722025207,0.013929214339035014,0.06185721982237632,0.035749964933314934,0.010763863412349325,0.03140455691881344,0.005493985132881015,0.029567000340090802
0.0633103,0.00410634956576704,0.014052573678342119,0.06264033031299458,0.03576862238947729,0.010860185269531123,0.031592976302667296,0.005682826995018851,0.029465902412914434
0.0637759,0.004144203312216547,0.014175983289573736,0.06342539316796449,0.03578351727401467,0.01095693918853286,0.031779781758013805,0.005875215991235517,0.029361379075599246
0.0642414,0.0041827055680068986,0.014299431713046169,0.06421233006827419,0.035794693054648934,0.011054127165921803,0.03196496704153852,0.0060711739489983175,0.029253504105039317
0.0647069,0.004221871879454855,0.014422907418486066,0.06500106181045591,0.03580219379706961,0.011151751193317752,0.032148526315468294,0.006270722255782113,0.0291423513362584
0.0651724,0.004261717727342197,0.0145463988070566,0.0657915083168869,0.03580606414900682,0.011249813255438177,0.03233045415003374,0.006473881850363085,0.029027994640865157
0.0656379,0.00430225852169646,0.014669894213416362,0.06658358864635235,0.035806349324213706,0.011348315328094697,0.03251074552580856,0.00668067321416671,0.028910507905749165
0.0661034,0.004343509596572315,0.014793381907810352,0.06737722100487228,0.035803095086363416,0.011447259376140873,0.032689395835921675,0.006891116362673103,0.028789965012021437
0.066569,0.004385486204834967,0.014916850098192427,0.06817232275679559,0.03579634773286559,0.011546647351371203,0.0328664008881377,0.007105230836882895,0.02866643981420293
0.0670345,0.004428203512946969,0.015040286932378343,0.06896881043616426,0.035786154078607045,0.011646481190371144,0.03304175690680139,0.00732303569484673,0.028540006119664313
0.0675,0.004471676595759848,0.015163680500228614,0.06976659975835182,0.03577256143962153,0.011746762812317993,0.03321546053464188,0.007544549503261408,0.02841073766831997
0.0679655,0.004515920431311985,0.015287018835860113,0.07056560563197994,0.03575561761669307,0.011847494116732455,0.03338750883443265,0.007769790329135674,0.028278708112578942
0.068431,0.004560949895634226,0.015410289919885467,0.07136574217111692,0.035735370878897554,0.011948676981180831,0.033557899290503415,0.007998775731528603,0.028143990997555414
0.0688966,0.004606779757564711,0.015533481681679206,0.07216692270776179,0.03571186994708701,0.012050313258927942,0.033726629810100446,0.008231522753363455,0.028006659741540974
0.0693621,0.0046534246735744555,0.015656582001669625,0.07296905980461717,0.035685163977321015,0.012152404776541137,0.03389369872459202,0.008468047913319881,0.0278667876167407
0.0698276,0.004700899182605264,0.015779578713655328,0.07377206526815387,0.03565530254424959,0.012254953331445974,0.0340591047905156,0.008708367197807352,0.02772444773027485
0.0702931,0.004749217700921555,0.0159024596071455,0.07457585016196938,0.035622335624451745,0.012357960689434344,0.03422284719046356,0.008952496053022679,0.02757971300544777
0.0707586,0.004798394516977733,0.01602521242972311,0.07538032482044212,0.03558631357973359,0.012461428582126066,0.03438492553380411,0.009200449377094484,0.027432656163285423
0.0712241,0.004848443786302763,0.01614782488943027,0.07618539886268291,0.035547287140389815,0.012565358704385023,0.034545339857234146,0.009452241512317503,0.02728334970434278
0.0716897,0.00489937952640359,0.01627028465717532,0.07699098120678455,0.03550530738843219,0.012669752711691023,0.03470409062516143,0.009707886237479561,0.02713186589078224
0.0721552,0.004951215611689044,0.016392579369161213,0.07779698008436933,0.03546042574078836,0.012774612217468681,0.03486117872991363,0.009967396760284014,0.02697827672872427
0.0726207,0.005003965768415866,0.01651469662933516,0.0786033030554347,0.035412693932474294,0.012879938790374705,0.035016605491772795,0.010230785709870396,0.026822653950871453
0.0730862,0.005057643569658434,0.016636624011859447,0.07940985702349627,0.03536216399974365,0.01298573395154518,0.035170372658834374,0.010498065129435925,0.026665068999407366
0.0735517,0.0051122624303037755,0.016758349063603635,0.08021654825102777,0.03530888826321723,0.013091999171804676,0.035322482406690454,0.010769246468960526,0.026505593009171716
0.0740172,0.005167835602073398,0.01687985930665835,0.08102328237519667,0.03525291931099604,0.013198735868839273,0.035472937337937424,0.011044340578037966,0.026344296791113258
0.0744828,0.005224376168573486,0.017001142240870997,0.08182996442389538,0.0351943099817613,0.01330594540433563,0.035621740481508346,0.011323357698815732,0.026181250816021972
0.0749483,0.005281897040374994,0.017122185346403793,0.0826364988320668,0.03513311334786494,0.013413629081088401,0.035768895291830624,0.01160630745904635,0.026016525198542015
0.0754138,0.005340410950125181,0.017242976086314494,0.08344278945832398,0.03506938269841442,0.013521788140078202,0.03591440564780992,0.011893198865252912,0.025850189681466688
0.0758793,0.00539993044769214,0.01736350190916032,0.08424873960186359,0.03500317152235553,0.013630423757522462,0.03605827585164132,0.012184040296011583,0.025682313620316616
0.0763448,0.005460467895343882,0.017483750251625425,0.08505425201967275,0.0349345334915573,0.013739537041901468,0.03620051062744899,0.012478839495353916,0.025512965968202125
0.0768103,0.005522035462963529,0.017603708541172384,0.08585922894402961,0.0348635224439029,0.013849129030961926,0.0363411151197555,0.012777603566291824,0.025342215260970462
0.0772759,0.005584645123302204,0.01772336419871799,0.08666357210029761,0.034790192366390985,0.0139592006887004,0.036480094891781945,0.013080338964467916,0.025170129602638473
0.0777414,0.005648308647271133,0.017842704641333567,0.08746718272501376,0.03471459737825175,0.014069752902328973,0.03661745592358002,0.013387051491933949,0.024996776651111146
0.0782069,0.005713037599274533,0.017961717284969935,0.08826996158427154,0.03463679171408249,0.014180786479225502,0.0367532046099973,0.013697746291060004,0.02482222360418624
0.0786724,0.005778843332584747,0.018080389547206935,0.08907180899239871,0.034556829707007325,0.014292302143870853,0.036887347758477226,0.014012427838576988,0.024646537185845283
0.0791379,0.005845736984761118,0.018198708850027445,0.08987262483093057,0.0344747657718662,0.014404300534775413,0.037019892586695205,0.01433109993975491,0.024469783632831053
0.0796034,0.005913729473114019,0.01831666262261561,0.09067230856787883,0.034390654388438247,0.014516782201397266,0.03715084672003254,0.01465376572271936,0.02429202868151175
0.080069,0.005982831490215426,0.018434238304178945,0.0914707592772961,0.03430455008470496,0.014629747601054309,0.0372802181888899,0.014980427632908543,0.024113337555031897
0.0805345,0.006053053499457347,0.018551423346793973,0.09226787565913583,0.0342165074201587,0.014743197095832702,0.037408015425842496,0.015311087427673124,0.023933774950749994
0.081,0.006124405730659441,0.018668205218274895,0.09306355605940743,0.03412658096916185,0.014857130949494108,0.037534247262639556,0.01564574617102119,0.02375340502796271
0.0814655,0.006196898175727073,0.01878457140506482,0.09385769849062571,0.03403482530436213,0.014971549324384293,0.037658922927050885,0.015984404228510593,0.02357229139591543
0.081931,0.00627054058436105,0.01890050941514907,0.09465020065255371,0.03394129498016919,0.015086452278345777,0.03778205203956347,0.01632706126229105,0.02339049710209888
0.0823966,0.006345342459820238,0.01901600678098999,0.0954409599532374,0.033846044516297635,0.015201839761637335,0.037903644609931245,0.016673716226298308,0.023208084620831567
0.0828621,0.006421313054738242,0.019131051062482647,0.09622987353033056,0.033749128381381464,0.015317711613863071,0.03802371103358135,0.01702436736160282,0.023025115842127887
0.0833276,0.006498461366995293,0.01924562984993089,0.0970168382727076,0.03365060097666505,0.015434067560913787,0.0381422620878803,0.017379012191915243,0.022841652060851942
0.0837931,0.006576796135646486,0.0193597307670431,0.0978017508423626,0.0335505166197756,0.015550907211923195,0.038259308928263715,0.017737647519251075,0.022657753966157334
0.0842586,0.0066563258369074655,0.01947334147394708,0.09858450769659374,0.03344892952858238,0.015668230056241454,0.038374863084232956,0.018100269419756686,0.02247348163121331
0.0847241,0.006737058680198636,0.019586449670223428,0.09936500511047243,0.033345893805147984,0.01578603546042838,0.0384889364552226,0.018466873239698887,0.022288894503217853
0.0851897,0.006819002604248924,0.019699043097956913,0.10014313919959798,0.033241463419777066,0.015904322665268564,0.03860154130634218,0.01883745359162015,0.02210405139369838
0.0856552,0.00690216527326009,0.019811109544805302,0.10091880594313851,0.03313569219516812,0.016023090782810608,0.03871269026399635,0.019212004350661543,0.021919010469100778
0.0861207,0.0069865540731325676,0.019922636847085107,0.10169190120715943,0.03302863379067393,0.016142338793432645,0.03882239631138765,0.019590518651055384,0.021733829241667536
0.0865862,0.007072176107753757,0.020033612892873868,0.10246232076824113,0.03292034168667661,0.01626206554293641,0.03893067278390636,0.01997298888278954,0.021548564560605603
0.0870517,0.007159038195349695,0.020144025625128445,0.10322996033738671,0.03281086916908293,0.016382269739672217,0.03903753336441193,0.02035940668844525,0.02136327260354471
0.0875172,0.007247146864901025,0.02025386304481894,0.1039947155842207,0.03270026931394583,0.016502949951697404,0.03914299207841032,0.02074976296021012,0.021178008868286698
0.0879828,0.0073365083526242166,0.020363113214077844,0.10475648216147909,0.03258859497221801,0.016624104603970857,0.03924706328913193,0.021144047837067862,0.02099282816484628
0.0884483,0.007427128598518998,0.020471764259364016,0.10551515572978996,0.032475898754643545,0.01674573197558636,0.039349761692514085,0.021542250702166144,0.020807784607783607
0.0889138,0.007519013242982965,0.020579804374641124,0.10627063198274343,0.03236223301679346,0.01686783019704754,0.039451102312092264,0.021944360180363803,0.02062293160882879
0.0893793,0.007612167623494327,0.0206872218245701,0.1070228066722492,0.03224764984425118,0.016990397247587025,0.03955110049380386,0.02235036413595847,0.02043832186979847
0.0898448,0.007706596771363738,0.020794004947715237,0.10777157563417855,0.0321322010379538,0.01711343095253269,0.03964977190070788,0.02276024967059548,0.020254007375804305
0.0903103,0.007802305408556103,0.020900142159763446,0.10851683481428787,0.03201593809969501,0.01723692898072371,0.0397471325076238,0.023174003121358793,0.020070039388753125
0.0907759,0.0078992979445832,0.02100562195675606,0.10925848029441951,0.03189891221779552,0.01736088884197943,0.03984319859569245,0.02359161005904448,0.019886468441138373
0.0912414,0.007997578473467909,0.02111043291833265,0.10999640831897618,0.03178117425294665,0.017485307884624223,0.0399379867468615,0.024013055286617114,0.01970334433012227
0.0917069,0.008097150770780801,0.021214563710986085,0.11073051532166524,0.03166277472423273,0.01761018329307169,0.04003151383829797,0.02443832283784918,0.019520716111908077
0.0921724,0.00819801829074975,0.021318003091327996,0.11146069795250861,0.03154376379533773,0.017735512085471715,0.04012379703672971,0.024867395976143597,0.019338632096401607
0.0926379,0.008300184163443212,0.021420739909363842,0.1121868531051151,0.0314241912609416,0.01786129111142413,0.040214853792717706,0.025300257193539167,0.01915713984216101
0.0931034,0.008403651192027729,0.021522763111776422,0.11290887794421156,0.03130410653331137,0.017987517049762713,0.04030470183486079,0.025736888209898695,0.0189762861516337
0.093569,0.00850842185010021,0.021624061745216715,0.11362666993343008,0.03118355862909212,0.01811418640641342,0.04039335916393409,0.026177269972279326,0.018796117066679136
0.0940345,0.008614498279095491,0.021724624959600695,0.11434012686334818,0.03106259615630248,0.01824129551233086,0.04048084404696214,0.02662138265448465,0.018616677864376076
0.0945,0.008721882285769667,0.02182444201141069,0.11504914687977913,0.03094126730153931,0.018368840521516838,0.040567175011227356,0.02706920565679798,0.018438013053112687
0.0949655,0.008830575339759656,0.021923502266999607,0.11575362851231011,0.030819619817395772,0.018496817409125017,0.04065237083821436,0.027520717605896142,0.018260166368957744
0.095431,0.008940578571219548,0.02202179520589625,0.11645347070308502,0.03069770101009693,0.0186252219696555,0.040736450557490055,0.027975896354943047,0.018083180772311108
0.0958966,0.009051892768534194,0.02211931042410987,0.11714857283582862,0.030575557727356623,0.018754049815243146,0.040819433440519345,0.02843471898386203,0.01790709844483142
0.0963621,0.009164518376110566,0.022216037637431723,0.11783883476510802,0.030453236346459207,0.0188832963740434,0.04090133899441604,0.028897161799786034,0.017731960786638842
0.0968276,0.00927845549224745,0.022311966684731586,0.1185241568458265,0.030330782762569466,0.019012956888719137,0.040982186955628525,0.029363200337684487,0.01755780841379051
0.0972931,0.009393703867083936,0.022407087531246598,0.11920443996294372,0.03020824237727377,0.019143026415032023,0.041061997283559616,0.029832809361165682,0.017384681156026264
0.0977586,0.009510262900627219,0.022501390271859927,0.11987958556141548,0.030085660087355387,0.01927349982054181,0.041140790154120394,0.03030596286345342,0.017212618054782098
0.0982241,0.009628131640860241,0.022594865134366496,0.12054949567634515,0.029963080273806727,0.01940437178341675,0.04121858595321793,0.03078263406853648,0.01704165736146863
0.0986897,0.009747308781929592,0.022687502482722926,0.12121407296333778,0.029840546791081057,0.01953563679135829,0.04129540527017723,0.03126279543248945,0.016871836536011788
0.0991552,0.009867792662414086,0.02277929282027889,0.12187322072904708,0.029718102956586247,0.019667289140643026,0.04137126889109797,0.03174641864496329,0.01670319224565279
0.0996207,0.009989581263674413,0.02287022679298691,0.1225268429619047,0.029595791540422887,0.019799322935284885,0.04144619779214713,0.032233474630844076,0.016535760364004583
0.1000862,0.010112672208284188,0.02296029519258784,0.12317484436302013,0.029473654755369092,0.019931732086320215,0.04152021313278889,0.032723933552078144,0.016369575970361826
0.1005517,0.010237062758542716,0.023049488959769295,0.12381713037723885,0.02935173424711425,0.02006451031121844,0.04159333624895361,0.033217764809661834,0.016204673349261522
0.1010172,0.010362749815069742,0.023137799187294427,0.12445360722434581,0.029230071084743774,0.020197651133420782,0.0416655886461477,0.03371493704579404,0.016041085990291647
0.1014828,0.01048972991548241,0.023225217123098645,0.12508418193040055,0.02910870575147693,0.02033114788200937,0.041736991992506405,0.03421541814618984,0.015878846588145038
0.1019483,0.010617999233154643,0.023311734173352014,0.12570876235918912,0.028987678135659663,0.02046499369150894,0.04180756811179149,0.03471917524255346,0.01571798704291593
0.1024138,0.01074755357605907,0.023397341905485352,0.12632725724377836,0.028867027522014345,0.0205991815018232,0.041877338976336234,0.03522617471520926,0.015558538460636713
0.1028793,0.010878388385691665,0.02348203205117826,0.1269395762181568,0.028746792583148325,0.02073370405830768,0.0419463266999406,0.03573638219588939,0.01540053115405245
0.1033448,0.011010498736079224,0.023565796509307443,0.12754562984894746,0.028627011371323192,0.02086855391198093,0.04201455353072004,0.03624976257067689,0.015243994643630845
0.1038103,0.011143879332869913,0.023648627348854034,0.12814532966717773,0.02850772131048658,0.021003723419875497,0.04208204184391194,0.0367662799831029,0.015088957658805267
0.1042759,0.011278524512507175,0.023730516811768715,0.12873858820009212,0.028388959188568406,0.02113920474553017,0.04214881413464398,0.03728589783739655,0.014935448139448452
0.1047414,0.01141442824148739,0.023811457315793642,0.1293253190029938,0.02827076115004335,0.021274989859624695,0.042214893010669094,0.03780857880188623,0.014783493237574403
0.1052069,0.011551584115701782,0.023891441457240196,0.12990543669110036,0.028153162688761543,0.021411070540758005,0.04228030118507185,0.038334284812550606,0.014633119319265916
0.1056724,0.011689985359863127,0.023970462013721664,0.1304788569713995,0.028036198641049163,0.021547438376370825,0.04234506146895145,0.03886297707671849,0.014484351966825116
0.1061379,0.011829624827017876,0.024048511946840014,0.13104549667448925,0.027919903179080986,0.02168408476381337,0.04240919676408651,0.0393946160769167,0.014337215981144262
0.1066034,0.011970494998144334,0.02412558440482579,0.1316052737863863,0.027804309804526507,0.02182100091155859,0.04247273005558714,0.039929161574865556,0.014191735384294026
0.107069,0.012112587981837532,0.024201672725130078,0.13215810748028553,0.02768945134247146,0.021958177840561338,0.042535684404539635,0.040466572615622136,0.014047933422326275
0.1075345,0.012255895514081442,0.024276770436967354,0.13270391814825183,0.027575359935616283,0.02209560638576352,0.04259808294064944,0.04100680753187159,0.013905832568288362
0.108,0.012400408958109092,0.02435087126380791,0.13324262743282594,0.02746206703875295,0.022233277197745142,0.042659948854887796,0.041549823948367134,0.013765454525445826
0.1084655,0.012546119304351127,0.02442396912581825,0.13377415825852437,0.027349603413521467,0.022371180744521043,0.042721305392147566,0.0420955787865195,0.013626820230710194
0.108931,0.01269301717047331,0.02449605814224779,0.13429843486321372,0.02723799912344696,0.02250930731348286,0.042782175843913625,0.04264402826913667,0.01348994985826859
0.1093966,0.01284109280150334,0.024567132633759956,0.13481538282933875,0.027127283529258195,0.022647647013485525,0.042842583540952675,0.04319512792531516,0.013354862823411674
0.1098621,0.012990336070047372,0.024637187124705615,0.13532492911498387,0.027017485284488166,0.022786189777077564,0.0429025518460275,0.04374883259548404,0.013221577786556438
0.1103276,0.01314073647659661,0.02470621634533675,0.13582700208474716,0.026908632331357145,0.022924925362874105,0.042962104146640194,0.04430509643660352,0.013090112657460245
0.1107931,0.013292283149924268,0.024774215233958077,0.13632153154040588,0.026800751896938424,0.02306384335807149,0.0430212638478088,0.04486387292751949,0.012960484599622566
0.1112586,0.013444964847573205,0.024841178939014278,0.13680844875135154,0.02669387048960696,0.0232029331811021,0.04308005436488159,0.04542511487447612,0.012832710034870801
0.1117241,0.013598769956434541,0.024907102821110434,0.13728768648477252,0.026588013895770868,0.023342184084427883,0.04313849911639294,0.04598877441678818,0.012706804648126614
0.1121897,0.01375368649341753,0.024971982454963328,0.13775917903556112,0.02648320717688563,0.02348158515747095,0.04319662151696477,0.04655480303267506,0.012582783392349224
0.1126552,0.013909702106210904,0.025035813631281167,0.13822286225592112,0.0263794746667509,0.023621125329679412,0.04325444497025707,0.047123151545258195,0.012460660493652095
0.1131207,0.014066804074135887,0.02509859235856937,0.13867867358465166,0.02627683996908948,0.023760793373726535,0.04331199286197166,0.047693770128723986,0.01234044945658938
0.1135862,0.014224979309091088,0.025160314864860103,0.13912655207608124,0.026175325955408068,0.023900577908841023,0.04336928855291237,0.04826660831465391,0.012222163069608516
0.1140517,0.014384214356589306,0.025220977599363426,0.13956643842862626,0.026074954763139428,0.024040467404266363,0.04342635537210529,0.048841614998523686,0.012105813410665205
0.1145172,0.014544495396886292,0.02528057723403805,0.13999827501294768,0.02597574779406526,0.024180450182846733,0.043483216609982396,0.04941873844637345,0.011991411852997
0.1149828,0.014705808246201364,0.025339110665079816,0.14042200589967863,0.02587772571301923,0.0243205144247371,0.04353989551163162,0.04999792630165082,0.011878969071051614
0.1154483,0.014868138358029657,0.02539657501432625,0.14083757688669676,0.025780908446869404,0.02446064817123494,0.043596415270116436,0.05057912559222852,0.011768495046565923
0.1159138,0.015031470824545699,0.02545296763057596,0.14124493552591388,0.025685315183779246,0.024600839328730854,0.04365279901986754,0.051162282737598354,0.01165999907479165
0.1163793,0.015195790378097826,0.02550828609082162,0.14164403114955518,0.025590964372746324,0.024741075672775385,0.04370906983014898,0.05174734355624272,0.011553489770863552
0.1168448,0.01536108139279291,0.0255625282013958,0.14203481489589984,0.025497873723417712,0.02488134485225912,0.04376525069860095,0.05233425327318484,0.01144897507630599
0.1173103,0.015527327886170663,0.025615691999029088,0.14241723973445383,0.02540606020618106,0.025021634393703123,0.04382136454486089,0.05292295652771847,0.011346462265673608
0.1177759,0.01569451352096676,0.025667775751820186,0.14279126049052515,0.025315540052530144,0.025161931705656705,0.04387743420426427,0.053513397381317516,0.01124595795332188
0.1182414,0.0158626216069639,0.025718777960117897,0.14315683386917152,0.025226328755703607,0.02530222408319937,0.043933482421626105,0.05410551932572563,0.011147468100303171
0.1187069,0.016031635102929976,0.0257686973573151,0.14351391847849074,0.025138441071595526,0.025442498712543716,0.043989531845103576,0.05469926529122556,0.01105099802138399
0.1191724,0.016201536618642483,0.02581753291055503,0.14386247485222434,0.025051891019936323,0.025582742675736063,0.044045605020140224,0.055294577655087274,0.010956552392179044
0.1196379,0.016372308416998372,0.025865283821350227,0.14420246547164597,0.02496669188574236,0.025722942955451418,0.04410172438349155,0.055891398250193784,0.010864135256397598
0.1201034,0.01654393241620869,0.02591194952611464,0.14453385478670705,0.02488285622103254,0.0258630864398793,0.0441579122573315,0.056489668373842984,0.010773750033197606
0.120569,0.01671639019207751,0.02595752969660939,0.14485660923641294,0.024800395846810052,0.02600315992769693,0.04421419084343893,0.057089328796723425,0.010685399524643069
0.1210345,0.01688966298036469,0.026002024240302506,0.1451706972684053,0.024719321855307227,0.026143150133126153,0.0442705822174632,0.057690319772061315,0.010599085923259925
0.1215,0.017063731679232245,0.02604543330064294,0.14547608935772718,0.024639644612491476,0.02628304369107037,0.044327108323267056,0.05829258104493583,0.010514810819685777
0.1219655,0.017238576851774292,0.026087757257249006,0.14577275802474968,0.024561373760829928,0.02642282716232779,0.04438379096734514,0.05889605186175929,0.010432575210408645
0.122431,0.0174141787286306,0.026128996726011076,0.14606067785224136,0.02448451822231025,0.026562487038877133,0.04444065181331597,0.05950067097991835,0.010352379505589954
0.1228966,0.017590517210683998,0.02616915255910843,0.14633982550156316,0.02440908620171506,0.026702009749231995,0.04449771237648465,0.06010637667757201,0.010274223536966932
0.1233621,0.017767571871841945,0.02620822584493995,0.14661017972797352,0.02433508519014698,0.02684138166386012,0.044554994018473806,0.06071310676360142,0.010198106565829571
0.1238276,0.01794532196190272,0.02624621790796827,0.14687172139503077,0.024262521968801232,0.02698058910066424,0.044612517941919234,0.0613207985877066,0.010124027291067315
0.1242931,0.01812374640950672,0.026283130308477176,0.1471244334880811,0.024191402612982617,0.02711961833052114,0.04467030518522676,0.061929389050644094,0.010051983857280683
0.1247586,0.018302823825173398,0.026318964842241825,0.14736830112682195,0.0241217324963634,0.02725845558287587,0.04472837661738652,0.06253881461459948,0.009981973862953018
0.1252241,0.0184825325044243,0.02635372354011155,0.14760331157693166,0.024053516295478514,0.02739708705138806,0.04478675293284049,0.06314901131368801,0.009913994368677664
0.1256897,0.01866285043099264,0.026387408667505045,0.14782945426075672,0.02398675799445423,0.027535498899627274,0.04484545464639895,0.06375991476457626,0.009848041905435947
0.1261552,0.01884375528011975,0.026420022723818017,0.14804672076704842,0.02392146088996637,0.027673677266814262,0.0449045020882011,0.06437146017721757,0.009784112482921376
0.1266207,0.019025224421938772,0.026451568441743397,0.1482551048597409,0.02385762759642379,0.02781160827360496,0.04496391539871524,0.06498358236569322,0.009722201597905633
0.1270862,0.019207234924945957,0.026482048786504595,0.1484546024857637,0.023795260051372877,0.02794927802791395,0.045023714523773524,0.06559621575915227,0.009662304242641988
0.1275517,0.01938976355956011,0.026511466955002373,0.14864521178188364,0.02373435952111853,0.02808667263077413,0.0450839192096366,0.06620929441284225,0.009604414913301927
0.1280172,0.01957278680177087,0.026539826374876247,0.14882693308057213,0.023674926606557158,0.028223778182229178,0.04514454899808357,0.06682275201922391,0.00954852761844083
0.1284828,0.0197562808368767,0.026567130703481576,0.148999768914896,0.02361696124921703,0.02836058078725547,0.04520562322152273,0.0674365219191632,0.009494635887488617
0.1289483,0.019940221563313765,0.026593383826783678,0.14916372402243175,0.023560462737501495,0.028497066561710378,0.045267160998119005,0.0680505371131938,0.009442732779261357
0.1294138,0.0201245845965769,0.0266185898581706,0.14931880534820308,0.023505429713130545,0.028633221638304004,0.04532918122693409,0.06866473027284375,0.009392810890489751
0.1298793,0.020309345273234053,0.026642753137186392,0.14946502204664427,0.02345186017777626,0.02876903217259185,0.045391702583076066,0.0692790337520202,0.009344862364360442
0.1303448,0.020494478655035505,0.026665878228187032,0.14960238548259197,0.02339975149988769,0.028904484348986237,0.04545474351285521,0.06989337959844662,0.009298878899066125
0.1308103,0.020679959533119213,0.02668796991892114,0.1497309092313095,0.023349100421700898,0.02903956438678437,0.04551832222894338,0.0705076995651482,0.009254851756360528
0.1312759,0.020865762432313428,0.02670903321903801,0.14985060907754852,0.023299903066429865,0.029174258546211005,0.045582456705534395,0.07112192512198218,0.009212771770114416
0.1317414,0.02105186161553778,0.02672907335852555,0.149961503013656,0.023252154945633954,0.02930855313447395,0.045647164673503576,0.07173598746721048,0.009172629354869049
0.1322069,0.021238231088303885,0.02674809578608076,0.15006361123673542,0.023205850966757684,0.029442434511830602,0.045712463615565274,0.07234981753911295,0.009134414514383713
0.1326724,0.021424844603316395,0.02676610616741551,0.1501569561448749,0.0231609854408386,0.029575889097664027,0.04577837076142813,0.07296334602763951,0.009098116850174231
0.1331379,0.02161167566517533,0.026783110383500248,0.15024156233245647,0.023117552090378923,0.02970890337656707,0.045844903082948404,0.0735765033860996,0.009063725570039599
0.1336034,0.021798697535180326,0.026799114528748252,0.15031745658456402,0.02307554405737673,0.029841463904433152,0.04591207728928203,0.07418921984288696,0.009031229496574096
0.134069,0.021985883236237402,0.02681412490914294,0.1503846678705074,0.023034953911512352,0.029973557314552438,0.04597990982203625,0.07480142541323795,0.009000617075662392
0.1345345,0.022173205557868548,0.026828148040310473,0.15044322733648194,0.022995773658485645,0.030105170323712287,0.04604841685042184,0.07541304991102096,0.00897187638495522
0.135,0.02236063706132458,0.026841190645539754,0.15049316829738174,0.022957994748499654,0.03023628973830098,0.046117614266407043,0.07602402296055506,0.008944995142323248
0.1354655,0.02254815008480149,0.02685325965375167,0.15053452622778454,0.022921608084886295,0.030366902460413802,0.04618751767987497,0.07663427400845597,0.008919960714286815
0.135931,0.022735716748760453,0.026864362197419406,0.1505673387521268,0.022886604032869427,0.03049699549396069,0.046258142413786764,0.0772437323355085,0.008896760124419346
0.1363966,0.022923308961351602,0.026874505610441378,0.1505916456340859,0.02285297242846061,0.030626555950774348,0.046329503499353546,0.07785232706856522,0.00887538006172228
0.1368621,0.023110898423941734,0.02688369742596829,0.1506074887651882,0.02282070258748276,0.030755571056717813,0.04640161567122091,0.078459987192472,0.008855806888969522
0.1373276,0.023298456636745797,0.026891945374185586,0.15061491215266093,0.022789783314716643,0.030884028157790237,0.04647449336266999,0.07906664156202196,0.008838026651019565
0.1377931,0.023485954904562206,0.026899257380052572,0.15061396190654625,0.022760202913165127,0.031011914726229602,0.04654815070083935,0.07967221891393902,0.008822025083093522
0.1382586,0.023673364342611802,0.026905641560999248,0.1506046862260964,0.022731949193430006,0.031139218366610988,0.04662260150197252,0.08027664787889319,0.008807787619017439
0.1387241,0.023860655882480396,0.026911106224581743,0.15058713538546822,0.02270500948319622,0.031265926821938926,0.04669785926669577,0.08087985699354909,0.008795299399427267
0.1391897,0.02404780027816472,0.026915659866097074,0.15056136171873566,0.02267937063681831,0.03139202797973223,0.04677393717533122,0.08148177471265029,0.008784545279934905
0.1396552,0.024234768112221656,0.02691931116615781,0.1505274196042399,0.022655019045003943,0.03151750987809966,0.046850848083250386,0.08208232942114191,0.008775509839253683
0.1401207,0.024421529802020607,0.026922068988227056,0.15048536544829638,0.022631940644589447,0.031642360711804686,0.046928604516273446,0.08268144944633506,0.008768177387281667
0.1405862,0.024608055606098925,0.02692394237611404,0.15043525766827903,0.022610120928402373,0.03176656883831733,0.04700721866611938,0.08327906307011687,0.008762531973141164
0.1410517,0.02479431563061997,0.02692494055143046,0.15037715667510282,0.02258954495520614,0.03189012278385122,0.04708670238591208,0.08387509854121047,0.008758557393172769
0.1415172,0.0249802798359337,0.026925072911007774,0.15031112485512518,0.022570197359721825,0.032013011249383584,0.047167067185747744,0.08446948408748967,0.008756237198882312
0.1419828,0.025165918043239345,0.026924349024275596,0.15023722655148783,0.02255206236272218,0.03213522311665595,0.04724832422832867,0.08506214792835344,0.008755554704839024
0.1424483,0.025351199941349902,0.026922778630601385,0.15015552804491972,0.02253512378119305,0.032256747454153176,0.047330484324669055,0.0856530182871657,0.008756492996523244
0.1429138,0.025536095093558232,0.026920371636591722,0.15006609753402142,0.02251936503855731,0.032377573523058055,0.04741355792987833,0.08624202340376572,0.00875903493812195
0.1433793,0.025720572944604694,0.02691713811335556,0.14996900511505074,0.022504769174956463,0.03249769078317894,0.04749755513902751,0.08682909154705482,0.008763163180270424
0.1438448,0.025904602827746256,0.02691308829372993,0.14986432276122758,0.02249131885758493,0.03261708889884732,0.0475824856831041,0.08741415102766466,0.008768860167738307
0.1443103,0.026088153971927142,0.026908232569468823,0.14975212430157578,0.022478996391072197,0.03273575774478221,0.04766835892506095,0.08799713021071198,0.008776108147058342
0.1447759,0.02627119550905109,0.02690258148839615,0.14963248539931892,0.022467783727907812,0.03285368741191815,0.047755183855964,0.08857795752864463,0.008784889174096058
0.1452414,0.026453696481355284,0.026896145751523784,0.1495054835298454,0.022457662478904364,0.03297086821319306,0.0478429690912437,0.0891565614941827,0.008795185121558658
0.1457069,0.026635625848885975,0.026888936210136,0.1493711979582581,0.022448613923693475,0.03308729068929232,0.04793172286705449,0.08973287071335874,0.008806977686441321
0.1461724,0.026816952497075653,0.02688096386284182,0.14922970971652247,0.02244061902124986,0.033202945614345156,0.0480214530367462,0.09030681389865984,0.00882024839740913
0.1466379,0.02699764524442148,0.026872239852596815,0.14908110158022636,0.022433658420438547,0.033317824001568866,0.048112167067451146,0.0908783198822743,0.008834978622112789
0.1471034,0.027177672850264456,0.026862775463696333,0.14892545804496288,0.022427712470580285,0.03343191710885667,0.04820387203678997,0.09144731762944434,0.008851149574436265
0.147569,0.027357004022668593,0.026852582118741884,0.14876286530234706,0.022422761232030318,0.03354521644430432,0.048296574629699336,0.09201373625192685,0.008868742321674476
0.1480345,0.02753560742639918,0.02684167137558284,0.1485934112156758,0.022418784486765556,0.03365771377167047,0.04839028113538392,0.09257750502156271,0.008887737791639145
0.1485,0.027713451690998987,0.026830054924235375,0.14841718529523862,0.02241576174897527,0.03376940111576564,0.0484849974443946,0.09313855338395605,0.008908116779690887
0.1489655,0.027890505418961056,0.02681774458378065,0.14823427867328678,0.022413672275650488,0.03388027076776421,0.04858072904583461,0.09369681097226383,0.008929859955695613
0.149431,0.028066737193996414,0.02680475229924424,0.14804478407866598,0.02241249507716718,0.033990315290433816,0.048677481024694894,0.0942522076210971,0.008952947870903312
0.1498966,0.02824211558939498,0.026791090138458554,0.14784879581111782,0.0224122089278583,0.03409952752327586,0.0487752580593194,0.09480467338053371,0.008977360964747287
0.1503621,0.028416609176477703,0.026776770288909926,0.14764640971525414,0.022412792376569658,0.03420790058757101,0.04887406441900076,0.09535413853024334,0.00900307957156189
0.1508276,0.02859018653313786,0.026761805054571958,0.1474377231542081,0.022414223757194564,0.03431542789132319,0.04897390396170626,0.09590053359372412,0.00903008392721677
0.1512931,0.028762816252469313,0.026746206852726256,0.1472228349829667,0.022416481199182128,0.03442210313409538,0.04907478013193366,0.09644378935264956,0.009058354175665645
0.1517586,0.028934466951479526,0.026729988210771684,0.14700184552138948,0.022419542638014104,0.034527920311730624,0.04917669595869595,0.09698383686132431,0.009087870375407515
0.1522241,0.029105107279885144,0.026713161763022922,0.14677485652691982,0.022423385825645254,0.03463287372095117,0.049279654053634,0.09752060746124593,0.009118612505858196
0.1526897,0.029274705928987878,0.026695740247498975,0.1465419711669954,0.022427988340902212,0.03473695796382906,0.0493836566092551,0.09805403279576973,0.009150560473629969
0.1531552,0.029443231640628318,0.026677736502702016,0.14630329399116546,0.022433327599835993,0.034840167952121075,0.04948870539729546,0.09858404482487321,0.009183694118717138
0.1536207,0.02961065321621542,0.026659163464386744,0.14605893090292343,0.02243938086602331,0.03494249891146144,0.049594801767204204,0.0991105758400172,0.009217993220585176
0.1540862,0.029776939525829157,0.026640034162320216,0.14580898913126392,0.022446125260812008,0.03504394638540556,0.049701946644745955,0.0996335584791007,0.009253437504161199
0.1545517,0.029942059517393687,0.026620361717031894,0.1455535772019714,0.02245353777350613,0.03514450623931816,0.049810140530718826,0.10015292574150766,0.009290006645723489
0.1550172,0.030105982225918444,0.02660015933655354,0.14529280490864976,0.02246159527148629,0.03524417466409936,0.049919383499784135,0.10066861100324355,0.009327680278687836
0.1554828,0.03026867678280417,0.026579440313148083,0.14502678328349944,0.022470274510261228,0.03534294817974185,0.05002967519940426,0.10118054803216023,0.009366437999288576
0.1559483,0.03043011242521104,0.026558218020026704,0.14475562456785065,0.02247955214344662,0.03544082363871253,0.05014101484888448,0.10168867100326685,0.009406259372152259
0.1564138,0.030590258505485975,0.026536505908052958,0.1444794421824612,0.022489404732667462,0.03553779822915177,0.05025340123851487,0.10219291451412431,0.009447123935762027
0.1568793,0.030749084500646517,0.026514317502432647,0.14419835069758763,0.022499808757380512,0.03563386947788365,0.05036683272880802,0.1026932136003199,0.009489011207810878
0.1573448,0.030906560021918664,0.026491666399387992,0.14391246580283978,0.022510740624613536,0.03572903525323031,0.0504813072498286,0.10318950375101885,0.009531900690442095
0.1578103,0.031062654824326262,0.02646856626281464,0.14362190427682775,0.02252217667861828,0.03582329376762347,0.05059682230061058,0.10368172092458844,0.009575771875375188
0.1582759,0.03121733881632949,0.026445030820919785,0.14332678395661047,0.022534093210434303,0.0359166435800059,0.050713374948658414,0.10416980156429023,0.009620604248915773
0.1587414,0.03137058206951008,0.026421073862839716,0.14302722370695437,0.02254646646736095,0.03600908359801552,0.050830961829527996,0.10465368261403626,0.009666377296847871
0.1592069,0.0315223548283007,0.026396709235235037,0.14272334338940973,0.022559272662334873,0.03610061307994458,0.050949579146483535,0.1051333015342052,0.00971307050920724
0.1596724,0.0316726275197558,0.026371950838861766,0.14241526383121278,0.02257248798321061,0.0361912316364661,0.051069222670226566,0.10560859631751522,0.009760663384934587
0.1601379,0.031821370763361244,0.026346812625116543,0.14210310679402186,0.022586088601941594,0.03628093923211984,0.051189887738693596,0.10607950550495121,0.009809135436407825
0.1606034,0.03196855538087995,0.02632130859255413,0.1417869949424977,0.022600050683659126,0.036369736186550004,0.05131156925691912,0.10654596820174414,0.009858466193852795
0.161069,0.032114152406230806,0.026295452783375525,0.1414670518127395,0.02261435039564662,0.03645762317548687,0.051434261696961546,0.10700792409340049,0.009908635209632269
0.1615345,0.03225813309539806,0.026269259279885125,0.14114340178058932,0.02262896391620641,0.036544601231464725,0.05155795909788992,0.10746531346177979,0.009959622062413288
0.162,0.032400468936368255,0.026242742200915534,0.14081617002981892,0.022643867443416225,0.03663067174426851,0.05168265506582943,0.10791807720121781,0.010011406361213082
0.1624655,0.03254113165909171,0.026215915698219034,0.14048548252021298,0.02265903720377251,0.03671583646110141,0.051808342774064285,0.10836615683469294,0.010063967749323959
0.162931,0.03268009324546534,0.02618879395282516,0.14015146595556296,0.022674449460717797,0.03680009748646562,0.051935014963196975,0.10880949453003318,0.01011728590811769
0.1633966,0.032817325939333335,0.026161391171364384,0.13981424775158516,0.0226900805230493,0.03688345728174828,0.0520626639413641,0.10924803311616148,0.010171340560730118
0.1638621,0.032952802256502094,0.026133721582358375,0.13947395600377618,0.02270590675320604,0.03696591866450444,0.05219128158450982,0.10968171609937766,0.010226111475626935
0.1643276,0.03308649499476565,0.02610579943247795,0.13913071945521974,0.022721904575431946,0.03704748480742902,0.05232085933671937,0.11011048767967428,0.010281578470051974
0.1647931,0.03321837724393746,0.02607763898277007,0.13878466746435802,0.022738050483812375,0.03712815923700987,0.052451388210615846,0.11053429276708453,0.010337721413359603
0.1652586,0.033348422395884335,0.026049254504855755,0.1384359299727413,0.022754321050181603,0.0372079458318545,0.052582858787824135,0.11095307699805886,0.01039452023023322
0.1657241,0.03347660415455804,0.026020660277100892,0.13808463747276886,0.022770692931898817,0.03728684882068377,0.05271526121950587,0.11136678675186755,0.01045195490379209
0.1661897,0.03360289654601968,0.02599187058076211,0.13773092097543455,0.022787142879490227,0.03736487277998641,0.052848585226969495,0.11177536916702469,0.010510005478588998
0.1666552,0.03372727392845186,0.0259628996961098,0.1373749119780881,0.02280364774415491,0.037442022631328675,0.05298282010235938,0.11217877215772913,0.010568652063501348
0.1671207,0.0338497110021533,0.025933761898530406,0.1370167424322242,0.022820184485132088,0.03751830363831349,0.053117954709427616,0.11257694443031682,0.010627874834518337
0.1675862,0.03397018281951052,0.02590447145460995,0.13665654471130959,0.022836730176927472,0.037593721403183476,0.053253977484392666,0.11296983549971759,0.010687654037426914
0.1680517,0.0340886647949406,0.02587504261820054,0.13629445157865855,0.0228532620163965,0.037668281863062585,0.053390876436888335,0.11335739570590975,0.010747969990399156
0.1685172,0.03420513271479935,0.0258454896264716,0.13593059615536582,0.02286975732968208,0.03774199128583134,0.05352863915100664,0.1137395762303642,0.010808803086483706
0.1689828,0.03431956274724861,0.025815826695947217,0.13556511188830564,0.02288619357900479,0.0378148562656314,0.05366725278643762,0.11411632911246959,0.010870133796003838
0.1694483,0.03443193145207674,0.025786068018531068,0.1351981325182045,0.0229025483693033,0.03788688371799574,0.05380670407970903,0.11448760726592865,0.010931942668864754
0.1699138,0.03454221579046642,0.02575622775752026,0.13482979204779397,0.02291879945472307,0.0379580808746019,0.05394697934552854,0.11485336449511593,0.010994210336772762
0.1703793,0.03465039313470388,0.02572632004360945,0.13446022471004934,0.02293492474495122,0.038028455277647075,0.05408806447823121,0.11521355551138626,0.011056917515369032
0.1708448,0.03475644127782414,0.025696358970886613,0.13408956493651872,0.022950902311395967,0.03809801477384629,0.054229944953334754,0.1155681359493219,0.011120045006280686
0.1713103,0.0348603384431869,0.025666358592821948,0.1337179473257461,0.022966710393208845,0.03816676750805749,0.05437260582920587,0.11591706238290639,0.011183573699091943
0.1717759,0.03496206329397817,0.025636332918251514,0.13334550661179115,0.02298232740314854,0.03823472191653985,0.05451603174884069,0.1162602923416114,0.011247484573238075
0.1722414,0.03506159494263263,0.025606295907357395,0.1329723776328486,0.02299773193328524,0.038301886719853614,0.054660206941762726,0.11659778432638265,0.01131175869982491
0.1727069,0.03515891296017223,0.025576261467646116,0.1325986952999694,0.023012902760544938,0.03836827091541082,0.054805115226041604,0.11692949782551003,0.011376377243376489
0.1731724,0.03525399738545622,0.025546243449927324,0.13222459456588595,0.023027818852093197,0.038433883769687024,0.05495074001043654,0.11725539333036573,0.011441321463513444
0.1736379,0.03534682873433821,0.025516255644294782,0.1318502103939449,0.02304245937055849,0.0384987348101044,0.055097064296668455,0.117575432350994,0.011506572716564557
0.1741034,0.03543738800872547,0.02548631177611189,0.13147567772715033,0.023056803679095166,0.03856283381659719,0.055244070681824964,0.11788957743153507,0.011572112457113991
0.174569,0.035525656705535806,0.025456425502003884,0.1311011314573198,0.02307083134628634,0.03862619081287093,0.055391741360902816,0.11819779216546498,0.011637922239486531
0.1750345,0.03561161682554701,0.025426610405859053,0.13072670639435593,0.02308452215088704,0.038688816057367445,0.05554005812949216,0.11850004121063289,0.011703983719173175
0.1755,0.03569525088213398,0.025396879994841463,0.1303525372356347,0.023097856086407784,0.03875072003394815,0.055689002386607005,0.11879629030407633,0.011770278654199337
0.1759655,0.035776541909888444,0.025367247695417604,0.12997875853551186,0.02311081336553886,0.03881191344230856,0.055838555137665814,0.11908650627659534,0.011836788906437924
0.176431,0.035855473473116274,0.025337726849399472,0.1296055046749483,0.023123374424415515,0.038872407188137344,0.055988696997625785,0.11937065706706598,0.011903496442869402
0.1768966,0.03593202967420744,0.025308330710006714,0.1292329098312547,0.023135519926724378,0.03893221237303376,0.05613940819427393,0.1196487117364755,0.011970383336791006
0.1773621,0.036006195161873575,0.02527907243795043,0.12886110794795594,0.023147230767651704,0.038991340284197665,0.05629066857167781,0.1199206404816616,0.012037431768977086
0.1778276,0.03607795513924818,0.02524996509754121,0.12849023270477522,0.023158488077674323,0.03904980238390648,0.05644245759379794,0.12018641464874046,0.012104624028792577
0.1782931,0.03614729537184423,0.025221021652824097,0.12812041748773825,0.02316927322619453,0.03910761029879378,0.05659475434826393,0.12044600674620792,0.012171942515261436
0.1787586,0.036214202195364094,0.025192254963742982,0.12775179535939665,0.023179567825020536,0.03916477580894453,0.05674753755031564,0.12069939045769988,0.012239369738091834
0.1792241,0.03627866252335619,0.0251636777823367,0.12738449902917068,0.02318935373169439,0.03922131083682164,0.0569007855469106,0.12094654065439922,0.012306888318659765
0.1796897,0.03634066385471313,0.025135302748969125,0.12701866082381053,0.0231986130526695,0.039277227436039085,0.05705447632099829,0.1211874334070787,0.012374480990952685
0.1801552,0.03640019428100587,0.025107142388595242,0.12665441265797545,0.023207328146340165,0.0393325377799964,0.05720858749596198,0.12142204599777201,0.01244213060247467
0.1806207,0.03645724249364849,0.025079209107065063,0.12629188600493027,0.023215481625925533,0.039387254150389475,0.05736309634022822,0.12165035693106858,0.012509820115114558
0.1810862,0.036511797790888034,0.02505151518746689,0.12593121186735903,0.023223056362210698,0.03944138892561216,0.05751797977204406,0.12187234594502962,0.012577532605978433
0.1815517,0.036563850084613915,0.02502407278651142,0.12557252074829586,0.023230035486147566,0.03949495456906308,0.05767321436442152,0.1220879940217249,0.012645251268187732
0.1820172,0.036613389906981514,0.024996893930957984,0.12521594262217378,0.023236402391318283,0.039547963617371604,0.05782877635024886,0.12229728339739086,0.012712959411644147
0.1824828,0.03666040841684485,0.024969990514083874,0.12486160690599261,0.023242140736264114,0.03960042866855666,0.057984641627567474,0.12250019757220973,0.012780640463762458
0.1829483,0.0367048974059939,0.024943374292197753,0.12450964243060769,0.023247234446682714,0.039652362370131956,0.0581407857650132,0.1226967213197104,0.012848277970172274
0.1834138,0.036746849305192696,0.024917056881197778,0.1241601774121414,0.023251667717496798,0.03970377740717069,0.05829718400742071,0.1228868406957901,0.012915855595389622
0.1838793,0.03678625719001512,0.02489104975317502,0.12381333942351995,0.023255425014797396,0.03975468649034271,0.05845381128158914,0.12307054304735614,0.012983357123459245
0.1843448,0.03682311478647596,0.024865364233062594,0.1234692553661381,0.02325849107766486,0.039805102343936735,0.058610642202207325,0.12324781702058736,0.013050766458568374
0.1848103,0.03685741647645528,0.024840011495330955,0.12312805144165348,0.02326085091987092,0.039855037693880074,0.058767651077936675,0.12341865256881485,0.013118067625632638
0.1852759,0.03688915730291435,0.024815002560729625,0.12278985312391248,0.023262489831465005,0.039904505255768295,0.05892481191764973,0.12358304096002215,0.013185244770854728
0.1857414,0.03691833297490176,0.02479034829307572,0.12245478513100862,0.0232633933802482,0.03995351772291718,0.05908209843682182,0.12374097478396624,0.013252282162256325
0.1862069,0.0369449398723483,0.02476605939608973,0.12212297139747323,0.023263547413138033,0.04000208775444938,0.0592394840640734,0.12389244795892045,0.013319164190183749
0.1866724,0.036968975050649173,0.024742146410278946,0.121794535046598,0.023262938057427334,0.04005022796342828,0.05939694194785982,0.1240374557380418,0.013385875367787627
0.1871379,0.036990436245031996,0.02471861970986913,0.12146959836288806,0.02326155172194023,0.04009795090505129,0.059554444963305635,0.12417599471536567,0.01345240033147693
0.1876034,0.037009321874709164,0.02469548949978493,0.12114828276464353,0.023259375098088137,0.04014526906491483,0.059711965719179805,0.12430806283143006,0.013518723841347531
0.188069,0.03702563104681273,0.024672765812679676,0.12083070877666705,0.02325639516082857,0.04019219484736329,0.059869476565008205,0.12443365937853279,0.013584830781585462
0.1885345,0.03703936356010996,0.024650458506015084,0.12051699600309498,0.02325259916952935,0.04023874056393383,0.06002694959831941,0.12455278500562407,0.013650706160845037
0.189,0.037050519908497316,0.02462857725919125,0.1202072631003493,0.023247974668740748,0.04028491842190883,0.0601843566720197,0.12466544172283703,0.013716335112601973
0.1894655,0.037059101284270375,0.024607131570727296,0.11990162775020798,0.023242509488877825,0.04033074051298794,0.06034166940189306,0.12477163290565801,0.013781702895481614
0.189931,0.037065109581166836,0.024586130755492756,0.11960020663299159,0.023236191746815196,0.04037621880209148,0.060498859174222076,0.1248713632987382,0.013846794893562359
0.1903966,0.03706854739717964,0.024565583941989745,0.11930311540086297,0.02322900984639633,0.04042136511630714,0.06065589715352562,0.12496463901934685,0.013911596616654429
0.1908621,0.03706941803713678,0.024545500069685672,0.11901046865123718,0.023220952478859334,0.04046619113399183,0.06081275429040965,0.12505146756046573,0.01397609370055418
0.1913276,0.03706772551504445,0.024525887886396345,0.11872237990029796,0.023212008623180968,0.04051070837404046,0.060969401329527294,0.1251318577935233,0.014040271907274337
0.1917931,0.037063474556189725,0.024506755945718994,0.11843896155661571,0.02320216754634067,0.040554928185333045,0.06112580881764458,0.1252058199707661,0.01410411712525083
0.1922586,0.03705667059899898,0.024488112604514733,0.11816032489486256,0.023191418803506055,0.04059886173637136,0.061281947111808115,0.1252733657272641,0.014167615369527176
0.1927241,0.03704731979664811,0.024469966020439746,0.11788658002961892,0.02317975223814134,0.04064252000511584,0.06143778638761063,0.1253345080825451,0.014230752781917615
0.1931897,0.03703542901842049,0.024452324149524498,0.11761783588926619,0.023167157982040068,0.04068591376903334,0.06159329664755025,0.12538926144185292,0.014293515631150552
0.1936552,0.03702100585080833,0.02443519474380001,0.11735420018996018,0.02315362645528344,0.04072905359536583,0.06174844772947885,0.12543764159702284,0.014355890312994078
0.1941207,0.037004058598353005,0.02441858534897037,0.11709577940968047,0.02313914836612555,0.04077194983162987,0.061903209315135294,0.1254796657269672,0.01441786335036548
0.1945862,0.03698459628421973,0.02440250330213038,0.11684267876235128,0.023123714710806972,0.04081461259635632,0.0620575509387589,0.12551535239776385,0.01447942139342666
0.1950517,0.03696262865050185,0.0243869557295273,0.11659500217202974,0.023107316773298095,0.04085705177007928,0.06221144199577919,0.12554472156233965,0.014540551219667476
0.1955172,0.036938166158250026,0.024371949544365647,0.11635285224715777,0.02308994612497366,0.040899276986583286,0.06236485175157862,0.12556779455974088,0.014601239733978862
0.1959828,0.03691121998722176,0.024357491444654003,0.11611633025487447,0.023071594624220274,0.04094129762441682,0.06251774935032582,0.1255845941139827,0.014661473968717658
0.1964483,0.03688180203534699,0.02434358791109317,0.11588553609538631,0.023052254415978465,0.04098312279868046,0.06267010382387733,0.12559514433246932,0.014721241083765085
0.1969138,0.03684992491790583,0.024330245205005017,0.1156605682763935,0.023031917931221287,0.04102476135309723,0.06282188410074639,0.12559947070397623,0.01478052836658072
0.1973793,0.03681560196641481,0.024317469366301706,0.11544152388757305,0.023010577886371536,0.041066221852372596,0.06297305901513764,0.12559760009618565,0.014839323232253837
0.1978448,0.036778847227218546,0.024305266211495327,0.11522849857512119,0.02298822728265988,0.04110751257485113,0.06312359731604647,0.12558956075276484,0.01489761322355393
0.1983103,0.036739675459784044,0.02429364133174827,0.115021586516362,0.022964859405426072,0.04114864150547652,0.06327346767642208,0.1255753822899769,0.014955386010982195
0.1987759,0.036698102134695654,0.02428260009096505,0.11482088039443178,0.02294046782336568,0.041189616329061256,0.06342263870239329,0.12555509569281184,0.015012629392825784
0.1992414,0.03665414343134888,0.024272147623926727,0.11462647137305122,0.022915046387724607,0.04123044442387205,0.06357107894255645,0.1255287333106269,0.0150693312952165
0.1997069,0.03660781623534188,0.024262288834469337,0.1144384490713999,0.02288858923144356,0.04127113285553659,0.06371875689732541,0.12549632885228323,0.015125479772195756
0.2001724,0.036559138135563975,0.02425302839370803,0.11425690153910745,0.022861090768254686,0.04131168837127696,0.06386564102834272,0.1254579173807681,0.015181063005787525
0.2006379,0.0365081274209807,0.024244370738308887,0.11408191523137645,0.02283254569173234,0.04135211739447469,0.06401169976795247,0.12541353530729096,0.015236069306081106
0.2011034,0.03645480307711523,0.02423632006881044,0.11391357498425111,0.02280294897429999,0.04139242601957207,0.06415690152873417,0.12536322038484327,0.015290487111325479
0.201569,0.0363991847822261,0.02422888034799706,0.1137519639900458,0.022772295866195055,0.04143262000731394,0.06430121471309724,0.12530701170121178,0.015344304988037086
0.2020345,0.03634129290318136,0.02422205529932624,0.11359716377294658,0.022740581894393524,0.04147270478033379,0.06444460772293549,0.12524494967143512,0.01539751163112277
0.2025,0.03628114849102918,0.02421584840541182,0.11344925416479877,0.022707802861496106,0.04151268541908776,0.06458704896934009,0.1251770760296933,0.015450095864019606
0.2029655,0.03621877327626529,0.024210262906565017,0.11330831328109309,0.02267395484457754,0.04155256665813963,0.06472850688236965,0.12510343382062042,0.015502046638853293
0.203431,0.03615418966379789,0.0242053017993951,0.11317441749716253,0.022639034194000585,0.041592352882799666,0.06486894992087522,0.12502406739003036,0.015553353036616587
0.2038966,0.036087420727611105,0.024200967835471376,0.11304764142460214,0.022603037532196165,0.04163204812611979,0.06500834658237827,0.1249390223750474,0.015604004267369251
0.2043621,0.03601849020512846,0.024197263520048022,0.1129280578879228,0.022565961752410872,0.04167165606624724,0.06514666541299965,0.12484834569363538,0.015653989670460767
0.2048276,0.035947422491278365,0.02419419111085337,0.11281573790145036,0.022527804017423228,0.04171118002413841,0.06528387501743746,0.12475208553352145,0.015703298714776978
0.2052931,0.035874242632263825,0.024191752616945093,0.11271075064648038,0.02248856175822973,0.0417506229616345,0.0654199440689918,0.12465029134051309,0.015751920999011695
0.2057586,0.035798976319039076,0.024189949797632913,0.11261316344869973,0.022448232672701914,0.04178998747990012,0.0655548413196352,0.12454301380620834,0.015799846251964178
0.2062241,0.03572164988049564,0.02418878416147019,0.11252304175588525,0.022406814724215664,0.04182927581822559,0.0656885356101263,0.12443030485509941,0.015847064332863276
0.2066897,0.03564229027636056,0.024188256965315857,0.11244044911589059,0.022364306140253837,0.041868489853193615,0.06582099588016498,0.12431221763107099,0.015893565231718882
0.2071552,0.03556092508980974,0.02418836921346826,0.11236544715493205,0.02232070541098345,0.04190763109821056,0.06595219117858621,0.124188806483295,0.01593933906970126
0.2076207,0.035477582519799794,0.024189121656872172,0.1122980955561851,0.022276011287808695,0.041946700703402236,0.0660820906735902,0.12406012695152474,0.01598437609954869
0.2080862,0.03539229137312192,0.024190514792400388,0.11223845203870388,0.022230222781900923,0.04198569945587382,0.06621066366300554,0.12392623575079317,0.016028666706003787
0.2085517,0.03530508105618224,0.024192548862211203,0.11218657233667595,0.022183339162706785,0.04202462778033315,0.06633787958458232,0.12378719075552247,0.01607220140627869
0.2090172,0.035215981566513,0.02419522385318304,0.11214251017902521,0.022135359956435667,0.04206348574007651,0.06646370802631128,0.12364305098305454,0.0161149708505493
0.2094828,0.03512502348401968,0.024198539496427328,0.11210631726937677,0.022086284944527357,0.042102273038335455,0.06658811873676539,0.12349387657661523,0.016156965822478574
0.2099483,0.035032237961969345,0.024202495266880616,0.11207804326639756,0.02203611416210083,0.04214098901998299,0.06671108163545887,0.12333972878772659,0.01619817723976884
0.2104138,0.03493765671772567,0.024207090382976845,0.11205773576452735,0.021984847896384833,0.0421796326735972,0.06683256682321911,0.12318066995808422,0.01623859615474306
0.2108793,0.034841312023236336,0.024212323806400506,0.11204544027511512,0.02193248668513085,0.04221820263387982,0.06695254459256582,0.1230167635009166,0.016278213754954807
0.2113448,0.034743236695278894,0.024218194241921284,0.11204120020797578,0.021879031315008925,0.04225669718442712,0.0670709854380918,0.12284807388184327,0.016317021363826744
0.2118103,0.03464346408547093,0.02422470013731051,0.11204505685338301,0.021824482819986783,0.04229511426085001,0.06718786006683947,0.12267466659924843,0.016355010441317243
0.2122759,0.03454202807005099,0.024231839683339737,0.1120570493645141,0.02176884247969268,0.04233345145423978,0.0673031394086666,0.12249660816418564,0.01639217258461471
0.2127414,0.03443896303943687,0.02423961081386146,0.11207721474036332,0.021712111817762544,0.04237170601497591,0.06741679462659449,0.12231396607982863,0.016428499528859122
0.2132069,0.034334303887567925,0.024248011205971785,0.11210558780914001,0.02165429260017194,0.042409874856871685,0.06752879712713152,0.12212680882048249,0.016463983147890084
0.2136724,0.03422808600103852,0.024257038280254824,0.11214220121216827,0.021595386833553675,0.04244795456165306,0.06763911857056464,0.12193520581016941,0.016498615455020727
0.2141379,0.03412034524803003,0.024266689201108325,0.11218708538830507,0.021535396763501833,0.042485941383766226,0.06774773088121114,0.1217392274008026,0.016532388603836694
0.2146034,0.03401111796704885,0.02427696087714991,0.11224026855889324,0.021474324872863014,0.04252383125550858,0.06785460625762277,0.12153894484996279,0.016565294889019394
0.215069,0.03390044095547826,0.02428784996170316,0.11230177671326544,0.02141217388001573,0.042561619792477766,0.06795971718273414,0.12133443029829091,0.0165973267471927
0.2155345,0.03378835145795216,0.02429935285336251,0.1123716335948149,0.02134894673713882,0.04259930229933318,0.06806303643394716,0.12112575674651196,0.016628476757792204
0.216,0.033674887154558956,0.02431146569663587,0.11244986068764776,0.021284646628469826,0.04263687377586394,0.06816453709314317,0.12091299803210476,0.01665873764395608
0.2164655,0.03356008614888411,0.024324184382663698,0.11253647720383116,0.021219276968554177,0.042674328923357145,0.06826419255661402,0.12069622880563287,0.01668810227343653
0.216931,0.03344398695589973,0.024337504550013118,0.11263150007125065,0.0211528414004861,0.042711662151259926,0.06836197654490374,0.12047552450675203,0.016716563659530698
0.2173966,0.03332662848971009,0.0243514215855456,0.11273494392208971,0.02108534379414197,0.04274886758412866,0.06845786311255178,0.12025096133990933,0.016744114962029807
0.2178621,0.03320805005116137,0.024365930625356646,0.1128468210819436,0.02101678824440681,0.04278593906885831,0.06855182665772885,0.12002261624974986,0.016770749488185178
0.2183276,0.03308829131532407,0.02438102655578591,0.11296714155957976,0.02094717906939447,0.04282287018218484,0.0686438419317562,0.11979056689624717,0.016796460693689747
0.2187931,0.03296739231885628,0.02439670401449605,0.11309591303735601,0.020876520808661966,0.0428596542384533,0.0687338840484998,0.11955489162957403,0.016821242183673705
0.2192586,0.032845393447255726,0.024412957391618605,0.11323314086230836,0.02080481822141835,0.042896284297643986,0.06882192849363084,0.11931566946473054,0.01684508771371288
0.2197241,0.03272233542200839,0.024429780830965146,0.11337882803791913,0.020732076284728507,0.04293275317364887,0.06890795113374501,0.11907298005594673,0.016867991190848617
0.2201897,0.03259825928764109,0.024447168231301917,0.11353297521657617,0.02065830019171212,0.0429690534427904,0.06899192822533351,0.11882690367087638,0.016889946674617958
0.2206552,0.03247320639868544,0.024465113247686222,0.11369558069273374,0.020583495349738128,0.04300517745257435,0.06907383642359909,0.1185775211645984,0.016910948378092948
0.2211207,0.03234721840656034,0.02448360929286277,0.11386664039678508,0.02050766737861489,0.04304111733066842,0.06915365279111074,0.11832491395344083,0.016930990668927892
0.2215862,0.03222033724637964,0.024502649538718294,0.11404614788965634,0.02043082210877639,0.04307686499409773,0.06923135480629058,0.11806916398864244,0.016950068070413316
0.2220517,0.03209260512369194,0.024522226917792954,0.11423409435813171,0.020352965579464817,0.04311241215864871,0.06930692037172648,0.11781035372986547,0.01696817526253534
0.2225172,0.031964064501158726,0.02454233412484722,0.11443046861091938,0.02027410403690998,0.04314775034847211,0.0693803278223038,0.11754856611857319,0.016985307083039095
0.2229828,0.03183475808517732,0.02456296361848321,0.11463525707546726,0.02019424393250596,0.04318287090587593,0.06945155593314985,0.11728388455128422,0.017001458528494735
0.2234483,0.0317047288124548,0.02458410762281966,0.11484844379553756,0.02011339192098565,0.04321776500129875,0.06952058392738462,0.11701639285271623,0.017016624755364602
0.2239138,0.03157401983653876,0.024605758129219835,0.1150700104295479,0.02003155485859375,0.04325242364345385,0.06958739148367149,0.1167461752488302,0.017030801081070045
0.2243793,0.03144267451431083,0.024627906898071983,0.11529993624968667,0.01994873980125885,0.043286837689634095,0.06965195874356125,0.11647331633978641,0.017043982985056483
0.2248448,0.03131073639244868,0.024650545460621957,0.11553819814180932,0.019864954002765275,0.0433209978561675,0.06971426631862314,0.11619790107282227,0.017056166109855303
0.2253103,0.031178249193862105,0.02467366512085763,0.11578477060612187,0.019780204912925273,0.04335489472901298,0.06977429529735531,0.11592001471506197,0.017067346262141136
0.2257759,0.03104525680410859,0.02469725695744476,0.11603962575865688,0.019694500175752153,0.04338851877448586,0.06983202725186771,0.11563974282626753,0.017077519413783073
0.2262414,0.030911803257793923,0.024721311825713972,0.11630273333354665,0.019607847627634838,0.0434218603501021,0.0698874442443294,0.11535717123153953,0.017086681702888223
0.2267069,0.030777932724962993,0.024745820359698398,0.11657406068609746,0.01952025529551424,0.04345490971553025,0.06994052883317219,0.1150723859939764,0.01709482943483596
0.2271724,0.03064368949748603,0.02477077297422156,0.11685357279666786,0.01943173139506174,0.04348765704363982,0.06999126407904281,0.11478547338730015,0.017101959083301047
0.2276379,0.03050911797544552,0.024796159867035334,0.11714123227535324,0.019342284328860048,0.043520092431634474,0.0700396335504953,0.1144965198684567,0.0171080672912636
0.2281034,0.030374262653528796,0.02482197102100807,0.11743699936747795,0.019251922684586645,0.04355220591225836,0.07008562132941641,0.11420561205019833,0.017113150872003897
0.228569,0.030239168107431418,0.02484819620636348,0.11774083195989564,0.01916065523320007,0.04358398746506341,0.07012921201617776,0.11391283667365636,0.017117206810079656
0.2290345,0.03010387898027625,0.024874824982971597,0.11805268558809737,0.019068490927129318,0.04361542702772558,0.0701703907345101,0.11361828058091203,0.01712023226228354
0.2295,0.0299684399690532,0.024901846702693662,0.11837251344412678,0.018975438898466628,0.04364651450739755,0.07020914313609532,0.11332203068757334,0.017122224558578404
0.2299655,0.029832895811084465,0.024929250511783692,0.11870026638530069,0.018881508457163923,0.043677239792085064,0.07024545540487331,0.11302417395536506,0.01712318120300792
0.230431,0.029697291270520135,0.024957025353349902,0.11903589294373333,0.018786709089233185,0.043707592762034245,0.07027931426106117,0.11272479736473867,0.01712309987458044
0.2308966,0.02956167112486884,0.02498515996987973,0.11937933933666173,0.018691050454950932,0.04373756330111695,0.07031070696488258,0.11242398788750853,0.017121978428123984
0.2313621,0.029426080151568237,0.0250136429058322,0.11973054947756986,0.018594542387066825,0.04376714130820114,0.07033962132000664,0.11212183245951894,0.01711981489511087
0.2318276,0.029290563114599943,0.025042462510301514,0.12008946498810799,0.01849719488901639,0.04379631670849346,0.07036604567669616,0.1118184179533468,0.017116607484450652
0.2322931,0.029155164751153425,0.025071606939755457,0.12045602521080351,0.018399018133137775,0.04382507946484114,0.07038996893466683,0.1115138311510433,0.017112354583250403
0.2327586,0.029019929758343437,0.025101064160852116,0.12083016722255961,0.018300022458892364,0.0438534195889804,0.07041138054565993,0.11120815871691862,0.017107054757541686
0.2332241,0.02888490277998535,0.025130821953338277,0.12121182584893864,0.018200218371089056,0.043881327152718176,0.0704302705157321,0.11090148717037314,0.017100706752973475
0.2336897,0.028750128393432658,0.025160867913032556,0.12160093367922721,0.018099616538111922,0.04390879229903418,0.07044662940726609,0.11059390285878003,0.01709330949547043
0.2341552,0.028615651096480774,0.02519118945489616,0.12199742108228082,0.017998227790150943,0.04393580525308972,0.07046044834070735,0.11028549193042445,0.017084862091855876
0.2346207,0.028481515294341325,0.025221773816194053,0.12240121622314533,0.017896063117435523,0.043962356333129955,0.0704717189960306,0.10997634030750547,0.01707536383043881
0.2350862,0.028347765286690786,0.025252608059748907,0.12281224508045327,0.01779313366847037,0.04398843596126608,0.07048043361394125,0.10966653365920824,0.017064814181564313
0.2355517,0.028214445254797233,0.025283679077290237,0.12323043146459242,0.01768945074827343,0.044014034674123695,0.07048658499681647,0.10935615737485399,0.01705321279812701
0.2360172,0.028081599248728883,0.025314973592900705,0.12365569703664302,0.017585025816615623,0.04403914313334412,0.07049016650939073,0.10904529653713671,0.017040559516047316
0.2364828,0.027949271174647915,0.02534647816656147,0.1240879613280799,0.017479870486262025,0.04406375213592495,0.07049117207919088,0.10873403589545487,0.017026854354710515
0.2369483,0.02781750478219295,0.025378179197798344,0.12452714176123492,0.017373996521214505,0.044087852624385936,0.07048959619672504,0.1084224598393471,0.017012097517368752
0.2374138,0.027686343651953334,0.02541006292943019,0.1249731536705151,0.01726741583495564,0.04411143569674682,0.07048543391542955,0.10811065237204166,0.016996289391506183
0.2378793,0.027555831183038285,0.02544211545142097,0.12542591032437114,0.01716014048869397,0.044134492616303096,0.07047868085137747,0.10779869708413044,0.016979430549167555
0.2383448,0.02742601058074365,0.0254743227048366,0.125885322948011,0.017052182689610607,0.04415701482118574,0.070469333182752,0.10748667712737973,0.01696152174725068
0.2388103,0.027296924844318924,0.025506670485907733,0.12635130074685358,0.016943554789107293,0.04417899393369081,0.07045738764908789,0.10717467518869102,0.016942563927763308
0.2392759,0.027168616754837026,0.025539144450199367,0.12682375093071618,0.01683426928105601,0.04420042176936489,0.0704428415502836,0.10686277346422653,0.01692255821804497
0.2397414,0.02704112886316906,0.025571730116888073,0.1273025787387296,0.01672433880005018,0.04422129034583172,0.07042569274538714,0.10655105363371521,0.0169015059309546
0.2402069,0.026914503478066135,0.025604412873147537,0.12778768746497374,0.016613776119657492,0.0442415918913456,0.0704059396511576,0.10623959683495492,0.01687940856502449
0.2406724,0.026788782654350165,0.025637177978642987,0.1282789784848258,0.016502594150674357,0.044261318853056404,0.07038358124040468,0.10592848363852732,0.016856267804581365
0.2411379,0.026664008181215434,0.02567001057013494,0.1287763512820121,0.016390805939381848,0.0442804639049712,0.0703586170401079,0.10561779402274102,0.016832085519835047
0.2416034,0.02654022157064247,0.025702895666192563,0.12927970347635354,0.01627842466580293,0.04429901995559697,0.07033104712931723,0.10530760734881846,0.01680686376693547
0.242069,0.026417464045925675,0.025735818172016853,0.12978893085219492,0.016165463641960812,0.0443169801552488,0.07030087213683665,0.10499800233634127,0.016780604787998567
0.2425345,0.02629577653031608,0.02576876288437374,0.13030392738750646,0.01605193631013819,0.04433433790300789,0.0702680932386919,0.10468905703896851,0.016753311011101682
0.243,0.02617519963578037,0.025801714496636995,0.13082458528364643,0.01593785624113731,0.04435108685331419,0.07023271215538372,0.10438084882044114,0.016724985050249063
0.2434655,0.02605577365187731,0.025834657603940773,0.13135079499577318,0.01582323713254091,0.04436722092217891,0.07019473114892828,0.10407345433088581,0.016695629705308017
0.243931,0.025937538534752613,0.02586757670844144,0.13188244526389414,0.015708092806974192,0.04438273429300363,0.07015415301968587,0.10376694948343085,0.016665247961916166
0.2443966,0.025820533896253172,0.025900456224688142,0.1324194231445405,0.015592437210368178,0.044397621421993654,0.07011098110297986,0.10346140943114561,0.01663384299136013
0.2448621,0.025704798993161686,0.025933280485101438,0.1329616140430555,0.015476284410224831,0.044411877043154975,0.0700652192655076,0.10315690854431502,0.01660141815042592
0.2453276,0.025590372716552783,0.025966033745559097,0.13350890174648564,0.015359648593884386,0.04442549617286578,0.07001687190154497,0.10285352038805963,0.01656797698122129
0.2457931,0.025477293581271966,0.02599870019108796,0.13406116845706342,0.015242544066795313,0.0444384741140149,0.06996594392894635,0.102551317700311,0.01653352321097022
0.2462586,0.025365599715538787,0.026031263941660537,0.13461829482627294,0.01512498525078723,0.04445080645970097,0.06991244078494158,0.10225037237015115,0.016498060751779942
0.2467241,0.02525532885067584,0.026063709058094846,0.13518015998948818,0.015006986682347043,0.04446248909648687,0.06985636842173175,0.10195075541652468,0.01646159370038092
0.2471897,0.025146518310965354,0.026096019548055748,0.13574664160117625,0.014888563010898529,0.044473518207205666,0.06979773330188635,0.10165253696733065,0.01642412633784045
0.2476552,0.025039205003635174,0.02612817937215581,0.13631761587065758,0.014769728997085516,0.044483890273315625,0.06973654239354447,0.10135578623890126,0.016385663129250685
0.2481207,0.024933425408976043,0.02616017245015358,0.13689295759841577,0.014650499511058766,0.04449360207680444,0.06967280316542329,0.10106057151587346,0.016346208723391997
0.2485862,0.024829215570591995,0.026191982667246927,0.13747254021295027,0.014530889530766571,0.044502650701645594,0.06960652358163712,0.10076696013145871,0.016305767952372614
0.2490517,0.024726611085785798,0.026223593880459004,0.13805623580816423,0.014410914140248955,0.04451103353481299,0.06953771209633033,0.10047501844811582,0.01626434583124541
0.2495172,0.02462564709608108,0.02625498992511418,0.13864391518128022,0.014290588527935296,0.0445187482668622,0.06946637764812774,0.10018481183863079,0.01622194755760272
0.2499828,0.024526358277882764,0.026286154621401162,0.13923544787127556,0.014169927984945088,0.044525792892088516,0.06939252965440595,0.09989640466760678,0.016178578511149986
0.2504483,0.024428778833277126,0.026317071781020347,0.13983070219782834,0.014048947903391422,0.0445321657082727,0.0693161780053897,0.09960986027336731,0.016134244253258805
0.2509138,0.024332942480972692,0.026347725213912286,0.1404295453007643,0.013927663774686691,0.04453786531602617,0.06923733305807662,0.09932524095027435,0.01608895052650006
0.2513793,0.024238882447382943,0.02637809873506416,0.14103184317999437,0.01380609118784996,0.04454289061774709,0.06915600562999515,0.09904260793146338,0.01604270325415752
0.2518448,0.02414663145785167,0.0264081761713908,0.14163746073593106,0.013684245827815376,0.04454724081619957,0.06907220699279867,0.09876202137199631,0.015995508539722342
0.2523103,0.024056221728021642,0.026437941368686796,0.1422462618103716,0.013562143473740967,0.044550915412728126,0.06898594886570024,0.0984835403324338,0.015947372666368698
0.2527759,0.023967684955347124,0.026467378198645964,0.14285810922783498,0.013439799997317188,0.044553914205119775,0.06889724340875066,0.09820722276282724,0.015898302096410827
0.2532414,0.023881052310750765,0.02649647056594434,0.1434728648373388,0.01331723136107456,0.044556237285126005,0.06880610321596395,0.09793312548713096,0.01584830347074174
0.2537069,0.02379635443042527,0.026525202415382722,0.14409038955460077,0.013194453616689805,0.04455788503565708,0.06871254130829306,0.09766130418803447,0.015797383608253786
0.2541724,0.023713621407780116,0.026553557739084452,0.14471054340464923,0.013071482903289971,0.044558858127660944,0.06861657112645911,0.09739181339221488,0.015745549505241256
0.2546379,0.02363288278553346,0.02658152058374411,0.1453331855648257,0.012948335445754033,0.04455915751669961,0.06851820652363752,0.09712470645600932,0.015692808334785067
0.2551034,0.02355416754794928,0.0266090750579224,0.14595817440816303,0.012825027553011643,0.04455878443923534,0.06841746175800481,0.09686003555150696,0.015639167446119553
0.255569,0.023477504113219732,0.02663620533938232,0.1465853675471221,0.012701575616338723,0.04455774040863941,0.06831435148514992,0.09659785165306016,0.015584634363981236
0.2560345,0.02340292032599271,0.026662895682461725,0.14721462187767004,0.012577996107649668,0.0445560272109359,0.06820889075035483,0.09633820452421414,0.015529216787939304
0.2565,0.02333044345004469,0.02668913042547686,0.14784579362368433,0.012454305577785922,0.04455364690029297,0.06810109498074922,0.09608114270505415,0.015472922591707516
0.2569655,0.02326010016109926,0.026714893998151534,0.14847873838166625,0.012330520654800692,0.04455060179427366,0.06799097997734402,0.09582671349996894,0.015415759822437126
0.257431,0.023191916539791902,0.026740170929066356,0.14911331116574839,0.012206658042239431,0.04454689446885798,0.06787856190694883,0.09557496296582907,0.01535773669999055
0.2578966,0.023125918064781727,0.026764945853122352,0.14974936645297926,0.012082734517415723,0.04454252775324766,0.06776385729397862,0.09532593590057785,0.015298861616195524
0.2583621,0.023062129606011113,0.026789203519013066,0.15038675822886868,0.011958766929682072,0.044537504724464924,0.06764688301215555,0.09507967583223298,0.015239143134079638
0.2588276,0.023000575418113768,0.02681292879669936,0.1510253400331764,0.01183477219869506,0.04453182870175597,0.0675276562761131,0.0948362250082975,0.015178589987085173
0.2592931,0.022941279133972103,0.026836106684880866,0.15166496500592724,0.011710767312674307,0.04452550324080994,0.0674061946329112,0.09459562438557872,0.015117211078264227
0.2597586,0.022884263758424363,0.02685872231845807,0.1523054859336362,0.011586769326654619,0.044518532127803774,0.06728251595347201,0.09435791362041586,0.015055015479454157
0.2602241,0.022829551662121958,0.026880760975978937,0.15294675529572674,0.011462795360730764,0.044510919373282935,0.06715663842394677,0.09412313105931863,0.014992012430433358
0.2606897,0.022777164575537318,0.026902208087063995,0.1535886253111277,0.011338862598294348,0.044502669205888204,0.06702858053702447,0.09389131373002108,0.014928211338057426
0.2611552,0.022727123583122434,0.02692304923980371,0.15423094798503387,0.011214988284262322,0.04449378606593797,0.06689836108319298,0.09366249733295684,0.01486362177537583
0.2616207,0.022679449117618062,0.02694327018812194,0.15487357515581643,0.011091189723296833,0.04448427459887563,0.06676599914196296,0.0934367162331637,0.014798253480729419
0.2620862,0.022634160954513604,0.026962856859099407,0.1555163585420704,0.010967484278016212,0.04447413964859109,0.06663151407306474,0.0932140034526263,0.014732116356829084
0.2625517,0.022591278206657392,0.026981795360250832,0.1561591497897862,0.010843889367197036,0.04446338625062565,0.06649492550762798,0.09299439066306722,0.014665220469816102
0.2630172,0.02255081931901714,0.027000071986749644,0.15680180051963202,0.010720422463967311,0.044452019625268874,0.0663562533393534,0.09277790817919697,0.01459757604830471
0.2634828,0.02251280206359003,0.027017673228593952,0.15744416237433392,0.010597101093990924,0.044440045170556136,0.0662155177156852,0.09256458495243301,0.01452919348240759
0.2639483,0.022477243534461986,0.02703458577770756,0.15808608706613916,0.010473942833643557,0.04442746845517507,0.06607273902899262,0.09235444856509817,0.014460083322745081
0.2644138,0.022444160143015472,0.027050796534969727,0.15872742642434715,0.010350965308180209,0.044414295211289326,0.06592793790776856,0.0921475252251073,0.01439025627943895
0.2648793,0.02241356761328514,0.02706629261716731,0.15936803244289144,0.010228186189894498,0.04440053132728754,0.0657811352078522,0.09194383976115152,0.014319723221091691
0.2653448,0.022385480977460518,0.027081061363863023,0.1600077573279551,0.010105623196269906,0.04438618284046545,0.06563235200368296,0.09174341561838771,0.014248495173752238
0.2658103,0.022359914571534908,0.027095090344173314,0.16064645354560075,0.009983294088123103,0.044371255929648926,0.0654816095795921,0.09154627485464081,0.014176583319868931
0.2662759,0.02233688203109955,0.027108367363449383,0.16128397386939541,0.009861216667739533,0.04435575690776525,0.0653289294211385,0.09135243813712536,0.014103998997230579
0.2667414,0.022316396287282096,0.027120880469854815,0.1619201714280096,0.00973940877700152,0.04433969221437012,0.06517433320649445,0.09116192473969252,0.014030753697896381
0.2672069,0.022298469562828417,0.02713261796083317,0.1625548997527685,0.009617888295509195,0.044323068408137614,0.06501784279788725,0.0909747525406079,0.013956859067115442
0.2676724,0.022283113368326557,0.027143568389458868,0.16318801282513218,0.009496673138694645,0.04430589215932015,0.06485948023310194,0.09079093802086514,0.013882326902236501
0.2681379,0.022270338498571855,0.027153720570664477,0.16381936512408093,0.009375781255929763,0.04428817024218519,0.06469926771705016,0.09061049626303996,0.01380716915160856
0.2686034,0.022260155029072012,0.027163063587337496,0.16444881167338066,0.009255230628628347,0.04426990952743561,0.06453722761340984,0.09043344095068859,0.013731397913472956
0.269069,0.022252572312690882,0.027171586796279578,0.16507620808870208,0.009135039268343057,0.04425111697461995,0.06437338243633985,0.09025978436829458,0.013655025434847323
0.2695345,0.02224759897642982,0.027179279834020995,0.1657014106245679,0.009015225214857847,0.0442317996245391,0.06420775484227342,0.09008953740176776,0.013578064110401852
0.27,0.022245242918345193,0.0271861326224831,0.1663242762211001,0.008895806534276502,0.04421196459165559,0.06404036762179363,0.089922709539498,0.01350052648132818
0.2704655,0.022245511304600764,0.027192135374481372,0.1669446625505399,0.008776801317107879,0.0441916190565113,0.06387124369159365,0.08975930887396726,0.013422425234201113
0.270931,0.022248410566653578,0.027197278599061583,0.16756242806351238,0.008658227676348388,0.04417077025815937,0.0637004060865245,0.08959934210392219,0.01334377319983335
0.2713966,0.022253946398571985,0.02720155310666173,0.16817743203500765,0.00854010374556226,0.04414942548661572,0.0635278779517319,0.08944281453710996,0.013264583352123271
0.2718621,0.02226212375448439,0.027204950014092722,0.1687895346100501,0.008422447676960088,0.04412759207533556,0.06335368253488387,0.0892897300935791,0.013184868806895816
0.2723276,0.02227294684615763,0.02720746074933083,0.1693985968490267,0.008305277639476203,0.04410527739371998,0.06317784317848962,0.0891400913095469,0.013104642820736282
0.2727931,0.022286419140703912,0.02720907705611527,0.1700044807726458,0.008188611816845402,0.04408248883965784,0.06300038331231042,0.08899389934183528,0.01302391878981697
0.2732586,0.022302543358415486,0.027209790998344335,0.17060704940649726,0.008072468405679625,0.044059233832108406,0.06282132644586245,0.08885115397287592,0.012942710248716318
0.2737241,0.022321321470726296,0.027209594964263756,0.17120616682518416,0.007956865613545147,0.044035519803730286,0.0626406961610114,0.0887118536162857,0.012861030869230183
0.2741897,0.02234275469830011,0.027208481670441313,0.17180169819599656,0.007841821657040835,0.04401135419356262,0.06245851610465816,0.08857599532301272,0.01277889445917479
0.2746552,0.0223668435092447,0.02720644416552229,0.1723935098220974,0.007727354759878011,0.04398674443976447,0.062274809981515196,0.08844357478805377,0.012696314961180852
0.2751207,0.02239358761745159,0.02720347583376104,0.1729814691851911,0.007613483150962401,0.043961697972418674,0.06208960154697195,0.08831458635774264,0.012613306451478307
0.2755862,0.022422985981061096,0.02719957039832468,0.17356544498764498,0.00750022506247861,0.043936222206406694,0.06190291460004816,0.08818902303760934,0.012529883138671096
0.2760517,0.022455036801052018,0.027194721924365964,0.17414530719403407,0.007387598727977529,0.04391032453436125,0.061714772976433,0.08806687650080984,0.012446059362501477
0.2765172,0.02248973751995555,0.027188924821863428,0.1747209270720807,0.007275622380466972,0.043884012319703763,0.06152520054160784,0.0879481370971262,0.012361849592603313
0.2769828,0.022527084820692805,0.027182173848227898,0.17529217723296045,0.00716431425050585,0.04385729288977341,0.06133422118405016,0.08783279386253667,0.012277268427243693
0.2774483,0.02256707462553546,0.027174464110675336,0.17585893167094774,0.007053692564302102,0.043830173529054606,0.061141858808515755,0.08772083452935524,0.012192330592052273
0.2779138,0.022609702095189275,0.02716579106836663,0.17642106580237532,0.006943775541814546,0.043802661472509614,0.060948137329396634,0.08761224553694041,0.012107050938737596
0.2783793,0.02265496162800061,0.027156150534315318,0.1769784565038829,0.006834581394858813,0.04377476389902276,0.06075308066415242,0.0875070120429723,0.012021444443789593
0.2788448,0.02270284685928653,0.02714553867706432,0.17753098214993165,0.006726128325217466,0.043746487924962975,0.060556712726813997,0.08740511793529687,0.011935526207167516
0.2793103,0.022753350660789644,0.02713395202213297,0.1780785226495624,0.006618434522754384,0.04371784059787128,0.06035905742155901,0.0873065458443358,0.011849311450972493
0.2797759,0.022806465140259188,0.02712138745323556,0.17862095948237722,0.006511518163533486,0.04368882889027999,0.06016013863636011,0.08721127715606018,0.011762815518103995
0.2802414,0.022862181641160106,0.02710784221327311,0.1791581757337243,0.00640539740794179,0.04365945969367043,0.05995998023670779,0.08711929202552575,0.01167605387089963
0.2807069,0.02292049074251237,0.02709331390510009,0.17969005612906744,0.0063000903988168185,0.04362973981257587,0.059758606059410704,0.08703056939096657,0.011589042089757853
0.2811724,0.022981382258862863,0.02707780049206826,0.18021648706752252,0.006195615259578286,0.043599675958836084,0.05955603990647683,0.08694508698844407,0.01150179587174331
0.2816379,0.023044845240392617,0.02706130029834997,0.18073735665454388,0.006091990092363988,0.04356927474600999,0.05935230553907916,0.08686282136704752,0.01141433102917482
0.2821034,0.02311086797316267,0.02704381200904335,0.181252554733743,0.005989232976169822,0.043538542683951964,0.05914742667160972,0.08678374790464115,0.011326663488196009
0.282569,0.02317943797950229,0.02702533467006181,0.18176197291782312,0.005887361964993809,0.0435074861735576,0.058941426965825654,0.08670784082415275,0.011238809287328707
0.2830345,0.023250542018543575,0.02700586768781022,0.18226550461861157,0.005786395085984072,0.04347611150168404,0.05873433002509071,0.08663507321039803,0.01115078457600929
0.2835,0.02332416608690648,0.02698541082865014,0.18276304507617408,0.005686350337590702,0.04344442483624995,0.05852615938871587,0.0865654170274337,0.011062605613108097
0.2839655,0.023400295419538576,0.026963964218156396,0.1832544913869969,0.00558724568772148,0.04341243222151992,0.058316938526402434,0.08649884313643257,0.01097428876543212
0.284431,0.02347891449071378,0.026941528340167546,0.1837397425312243,0.005489099071901445,0.04338013957357781,0.058106690832791526,0.08643532131407208,0.01088585050621121
0.2848966,0.02356000701519428,0.02691810403563283,0.18421869939894348,0.005391928391436255,0.043347552675993314,0.05789543962212418,0.08637482027142797,0.010797307413568102
0.2853621,0.023643555949559792,0.026893692501258476,0.1846912648155129,0.005295751511579316,0.04331467717568596,0.05768320812301607,0.08631730767336362,0.0107086761689725
0.2858276,0.023729543493708177,0.026868295287956506,0.18515734356593475,0.005200586259702586,0.043281518578989965,0.05747001947335146,0.08626275015840522,0.010619973555679568
0.2862931,0.02381795109253131,0.02684191429909911,0.1856168424182756,0.005106450423470922,0.04324808224792356,0.057255896715300604,0.08621111335909198,0.010531216457153107
0.2867586,0.023908759437769857,0.02681455178858177,0.18606967014614353,0.005013361749019813,0.043214373396665604,0.05704086279046481,0.08616236192279071,0.010442421855473722
0.2872241,0.024001948470050518,0.0267862103586982,0.18651573755023199,0.00492133793913633,0.04318039708824227,0.056824940535153606,0.08611645953296325,0.010353606829732296
0.2876897,0.02409749738110908,0.026756892957830243,0.18695495747894272,0.004830396651443054,0.04314615823142587,0.05660815267579865,0.08607336893087535,0.010264788554409187
0.2881552,0.024195384616202537,0.026726602877955825,0.18738724484809957,0.0047405554965847755,0.04311166157784778,0.056390521824509904,0.08603305193773515,0.010175984297739582
0.2886207,0.02429558787671337,0.02669534375197839,0.18781251665976598,0.00465183203641768,0.04307691171932698,0.05617207047477989,0.08599546947724916,0.010087211420065592
0.2890862,0.024398084122948863,0.026663119550881437,0.18823069202017803,0.004564243782200726,0.043041913085415336,0.05595282099734251,0.08596058159858355,0.009998487372175706
0.2895517,0.02450284957713841,0.02662993458071198,0.18864169215680476,0.0044778081927888775,0.04300666994116022,0.05573279563619332,0.08592834749971803,0.009909829693632275
0.2900172,0.024609859726631385,0.026595793479397105,0.18904544043454663,0.00439254267282785,0.04297118638508501,0.055512016504778126,0.08589872555117933,0.009821256011087765
0.2904828,0.02471908932729815,0.02656070121339781,0.1894418623710839,0.00430846457094997,0.04293546634738744,0.05529050558235639,0.08587167332014133,0.009732784036590548
0.2909483,0.024830512407136605,0.026524663074204334,0.18983088565138484,0.0042255911779707535,0.04289951358835532,0.05506828471054588,0.08584714759487759,0.00964443156588101
0.2914138,0.024944102270086612,0.026487684674677426,0.19021244014138383,0.0041439397250857815,0.04286333169699911,0.05484537559005439,0.08582510440955231,0.009556216476678763
0.2918793,0.025059831500054374,0.02644977194523953,0.19058645790083925,0.004063527382067451,0.04282692408990023,0.05462179977760379,0.08580549906933446,0.009468156726961666
0.2923448,0.025177671965148758,0.02641093112992005,0.1909528731953795,0.003984371255461164,0.04279029401027372,0.0543975786830517,0.08578828617581995,0.009380270353237385
0.2928103,0.0252975948221314,0.026371168782258713,0.19131162250774522,0.003906488386780488,0.04275344452724362,0.05417273356671529,0.08577341965274571,0.00929257546880809
0.2932759,0.02541957052108221,0.026330491761071086,0.19166264454823312,0.003829895750700841,0.04271637853532909,0.053947285536901673,0.08576085277197902,0.009205090262028879
0.2937414,0.02554356881028175,0.02628890722608018,0.19200588026434687,0.0037546102532512306,0.0426790987541391,0.05372125554764851,0.0857505381797653,0.00911783299456042
0.2942069,0.025669558741311844,0.02624642263341832,0.19234127284965813,0.0036806487300036048,0.042641607728272864,0.05349466439667835,0.08574242792321583,0.009030821999616283
0.2946724,0.02579750867437547,0.026203045731003252,0.19266876775188047,0.003608027944259364,0.0426039078274235,0.053267532723569586,0.0857364734770174,0.008944075680205403
0.2951379,0.025927386283836916,0.026158784553792565,0.19298831268015743,0.003536764585232618,0.04256600124668164,0.05303988100814678,0.08573262577034496,0.008857612507370067
0.2956034,0.026059158563982908,0.026113647418920333,0.19329985761156532,0.003466875266229777,0.04252789000703575,0.05281172956909226,0.08573083521395808,0.008771451018419836
0.296069,0.026192791835005197,0.026067642920720044,0.19360335479683038,0.0033983765228251133,0.042489575956065534,0.05258309856278122,0.08573105172746169,0.0086856098151618
0.2965345,0.026328251749204935,0.02602077992563808,0.19389875876526008,0.003331284811031948,0.04245106076882454,0.052354007982341744,0.0857332247667107,0.008600107562127512
0.297,0.02646550329741887,0.025973067567042277,0.19418602632888726,0.0032656165054691334,0.042412345948908046,0.05212447765694108,0.08573730335133858,0.008514962984796943
0.2974655,0.02660451081566731,0.025924515239930546,0.1944651165858257,0.0032013878975225337,0.04237343282970176,0.051894527251299144,0.08574323609238917,0.008430194867819743
0.297931,0.026745237992023455,0.025875132595545042,0.1947359909228363,0.0031386151935012077,0.04233432257580673,0.05166417626542993,0.08575097122003172,0.008345822053234097
0.2983966,0.026887647873703725,0.025824929535897496,0.1949986130171016,0.003077314512787992,0.0422950161846358,0.05143344403461119,0.08576045661133974,0.008261863438683374
0.2988621,0.02703170287437855,0.02577391620821146,0.19525294883720595,0.003017501885984173,0.04225551448817628,0.051202349729582305,0.08577163981811506,0.008178337975630747
0.2993276,0.02717736478170308,0.025722102999287157,0.1954989666433195,0.0029591932530479157,0.04221581815491363,0.05097091235696997,0.08578446809473994,0.008095264667571895
0.2997931,0.027324594765067222,0.02566950052979449,0.19573663698658264,0.002902404461426105,0.042175927691910475,0.050739150759940885,0.08579888842604046,0.008012662568245834
0.3002586,0.027473353383564453,0.025616119648499563,0.19596593270768706,0.002847151264179225,0.042135843447035345,0.05050708361908039,0.08581484755514486,0.007930550779843884
0.3007241,0.02762360059417882,0.025561971426429957,0.19618682893464967,0.002793449318098917,0.04209556561133543,0.05027472945349546,0.08583229201132102,0.007848948451216713
0.3011897,0.027775295760189563,0.025507067150983866,0.19639930307977468,0.0027413141818178484,0.04205509422154746,0.050042106622140294,0.08585116813777659,0.0077678747760793945
0.3016552,0.027928397659792933,0.025451418319987942,0.1966033348357992,0.00269076131391153,0.04201442916274085,0.04980923332536233,0.08587142211940586,0.007687348991214297
0.3021207,0.028082864494940647,0.025395036635708662,0.19679890617121715,0.002641806070991755,0.041973570171086855,0.049576127606666354,0.08589300001046761,0.007607390374671641
0.3025862,0.02823865390039459,0.025337933998821706,0.1969860013247765,0.00259446370579136,0.04193251683674764,0.049342807354693964,0.08591584776217823,0.007528018243967489
0.3030517,0.028395722952997405,0.025280122502343873,0.1971646067991448,0.002548749365240025,0.041891268606878654,0.04910929030541522,0.08593991125020593,0.0074492519542789385
0.3035172,0.02855402818115828,0.025221614425531634,0.19733471135373779,0.0025046780885308755,0.04184982478873803,0.04887559404452909,0.08596513630205219,0.007371110896636227
0.3039828,0.028713525574553415,0.025162422227750406,0.1974963059967067,0.002462264805177604,0.04180818455289649,0.04864173601006879,0.08599146872430691,0.007293614496111426
0.3044483,0.028874170594040197,0.02510255854231827,0.1976493839760798,0.0024215243330618797,0.041766346936541326,0.04840773349520779,0.08601885432976446,0.0072167822100033556
0.3049138,0.029035918181783985,0.02504203617032785,0.1977939407700543,0.0023824713764707896,0.041724310846867875,0.04817360365126182,0.08604723896438726,0.007140633526018284
0.3053793,0.029198722771596144,0.02498086807444964,0.19792997407643484,0.0023451205241240844,0.04168207506455201,0.047939363490881765,0.08607656853410475,0.007065187960445941
0.3058448,0.02936253829948169,0.024919067372720056,0.19805748380121654,0.0023094862471910375,0.04163963824729669,0.04770502989143235,0.08610678903143482,0.006990465056330332
0.3063103,0.029527318214394666,0.02485664733231719,0.19817647204630975,0.002275582897296755,0.04159699893344561,0.047470619598550715,0.08613784656191541,0.006916484381634787
0.3067759,0.029693015489199132,0.024793621363327186,0.19828694309640593,0.0022434247045178143,0.04155415554565652,0.04723614922987909,0.08616968737033377,0.006843265527400651
0.3072414,0.029859582631833418,0.02473000301250395,0.19838890340498327,0.002213025775367149,0.04151110639462682,0.04700163527896528,0.08620225786674032,0.006770828105899046
0.3077069,0.03002697169667507,0.02466580595702479,0.1984823615794527,0.0021844000907681313,0.04146784968286368,0.046767094119324844,0.08623550465223405,0.006699191748775117
0.3081724,0.030195134296103734,0.024601043998244553,0.19856732836544416,0.0021575615040178163,0.04142438350849083,0.04653254200865894,0.08626937454450548,0.006628376105184239
0.3086379,0.030364021612258926,0.02453573105545062,0.1986438166302353,0.002132523738739349,0.04138070586908396,0.046297995093222334,0.08630381460312297,0.006558400839919662
0.3091034,0.03053358440898983,0.024469881159621207,0.19871184134532402,0.002109300386823536,0.04133681466552664,0.04606346941233617,0.08633877215454756,0.006489285631531063
0.309569,0.030703773043993902,0.02440350844718913,0.19877141956814626,0.002087904906359611,0.041292707705878666,0.04582898090304044,0.08637419481686107,0.006421050170433464
0.3100345,0.030874537481141388,0.02433662715381336,0.19882257042294077,0.002068350619555222,0.04124838270924949,0.04559454540488125,0.08641003052419173,0.006353714157005931
0.3105,0.03104582730298285,0.024269251608160538,0.19886531508076177,0.002050650710645673,0.04120383730966963,0.045360178664827576,0.08644622755082139,0.00628729729967942
0.3109655,0.031217591723436987,0.024201396225698557,0.19889967673863965,0.002034818223792456,0.04115906905995387,0.045125896342312524,0.08648273453495814,0.006221819313013156
0.311431,0.031389779600656385,0.02413307550250441,0.19892568059789015,0.002020866060971109,0.041114075435550415,0.044891714014393486,0.08651950050215851,0.00615729991575883
0.3118966,0.03156233945006917,0.0240643040090883,0.19894335384157216,0.002008806979848465,0.0410688538383705,0.04465764718102587,0.08655647488838339,0.00609375882891192
0.3123621,0.03173521945759487,0.023995096384236154,0.19895272561109706,0.001998653591649336,0.04102340160059295,0.044423711270444685,0.08659360756267258,0.0060312157737494425
0.3128276,0.0319083674930331,0.023925467328872452,0.19895382698199307,0.0019904183590127283,0.04097771598843867,0.04418992164464843,0.08663084884942292,0.005969690469853418
0.3132931,0.03208173112362401,0.023855431599945402,0.19894669093883355,0.001984113593837725,0.04093179420590995,0.043956293604979636,0.0866681495502553,0.0059092026331194186
0.3137586,0.032255257627779275,0.02378500400433639,0.19893135234934187,0.0019797514551192163,0.040885633398490225,0.043722842397796696,0.08670546096545648,0.005849771973749523
0.3142241,0.03242889400898266,0.023714199392795465,0.19890784793768992,0.0019773439467737452,0.040839230656799945,0.0434895832202315,0.0867427349149823,0.005791418194229038
0.3146897,0.03260258700985896,0.023643032653904574,0.19887621625701135,0.001976902915455795,0.0407925830202049,0.043256531226027246,0.08677992375901046,0.005734160987286313
0.3151552,0.03277628312641038,0.023571518708070106,0.19883649766115413,0.00197844004836493,0.04074568748037356,0.04302370153145099,0.08681698041803132,0.005678020033835035
0.3156207,0.032949928622419314,0.023499672501546158,0.1987887342756982,0.0019819668710442683,0.040698540984780485,0.042791109221275006,0.08685385839246652,0.00562301500089838
0.3160862,0.0331234695440171,0.023427509000489677,0.19873296996826517,0.0019874947451708497,0.04065114044015347,0.042558769354820974,0.08689051178180543,0.005569165539514435
0.3165517,0.03329685173441805,0.023355043185048587,0.19866925031814645,0.0019950348663385228,0.040603482715862574,0.04232669697206093,0.08692689530325101,0.005516491282622337
0.3170172,0.03347002084881896,0.02328229004348374,0.1985976225852758,0.0020045982618340542,0.04055556464724939,0.04209490709976846,0.0869629643098685,0.005465011842928503
0.3174828,0.03364292236946376,0.02320926456632537,0.19851813567857207,0.0020161957884072333,0.04050738303889576,0.0418634147577139,0.0869986748082318,0.0054147468107523565
0.3179483,0.033815501620873566,0.02313598174056448,0.19843084012367698,0.002029838130035803,0.040458934667831715,0.041632234964896896,0.0870339834755655,0.005365715751850916
0.3184138,0.03398770378524232,0.02306245654387968,0.19833578803011379,0.002045535795686094,0.04041021628668298,0.04140138274580957,0.08706884767638107,0.005317938205221547
0.3188793,0.03415947391799765,0.022988703938899516,0.19823303305789217,0.002063299117070278,0.040361224626759326,0.0411708731367234,0.08710322547860765,0.005271433680882174
0.3193448,0.03433075696352712,0.02291473886750059,0.19812263038358552,0.0020831382464011556,0.040311956401085106,0.04094072119199276,0.08713707566921802,0.005226221657628254
0.3198103,0.03450149777106911,0.022840576245141322,0.19800463666590698,0.0021050631541454064,0.040262408307374126,0.04071094199036761,0.08717035776935081,0.005182321580765723
