Time,Rectus Femoris right,Rectus Femoris left,Hamstrings right,Hamstrings left,TibilaisÂ Anterior right,Gastrocnemius right,Gastrocnemius left
0.0,0.0013290359266745282,-0.004329987282166959,-0.048318101850345685,-0.0025057840925311737,0.0003751871341985888,0.04269704482448968,0.0012988070495856998
0.0004655,0.0013535823682785612,-0.003867394631669085,-0.04673957431054077,-0.0024604718464305403,0.00039775752029552324,0.043234848495056,0.0014213934082923762
0.000931,0.0013782139481466717,-0.0034054519296201347,-0.04515641603827239,-0.0024154116828988296,0.0004205965022104916,0.043770094272371544,0.0015438086906204654
0.0013966,0.001402928499694765,-0.0029442196479602086,-0.04356877911204717,-0.0023706072782068684,0.0004437035160515997,0.044302703171236954,0.0016660337476457462
0.0018621,0.0014277238525267856,-0.0024837580661198266,-0.04197681652776733,-0.0023260621574979472,0.00046707794523217876,0.04483259704021613,0.0017880494345176618
0.0023276,0.001452597833337695,-0.0020241272524817136,-0.04038068216765028,-0.0022817796919598877,0.0004907191202901931,0.045359698593781965,0.0019098366164875303
0.0027931,0.0014775482668176417,-0.001565387045971469,-0.03878053076936117,-0.002237763096051432,0.0005146263187212233,0.04588393144409048,0.002031376174953166
0.0032586,0.0015025729765563954,-0.0011075970377899984,-0.03717651789538988,-0.002194015424785311,0.000538798764825184,0.04640522013234948,0.0021526490135168226
0.0037241,0.0015276697859471116,-0.0006508165533002097,-0.035568799902702064,-0.002150539571070277,0.0005632356295669382,0.0469234901597482,0.002273636064053366
0.0041897,0.0015528365190884943,-0.00019510463408004968,-0.033957533912692066,-0.0021073382631143145,0.0005879360304509633,0.047438668017914756,0.002394318292785608
0.0046552,0.0015780710016844253,0.0002594799798464296,-0.032342877781462796,-0.002064414061891178,0.0006128990314102273,0.04795068121886919,0.0025146767063637574
0.0051207,0.0016033710619401688,0.0007128788675886564,-0.030724990070455736,-0.0020217693586723076,0.0006381236427094299,0.04845945832444006,0.0026346923579459868
0.0055862,0.001628734531454327,0.0011650339447687817,-0.02910403001745174,-0.001979406372626096,0.0006636088208627626,0.04896492897511331,0.0027543463532771996
0.0060517,0.0016541592461058149,0.0016158874806898918,-0.027480157507961313,-0.0019373271484864098,0.0006893534685663369,0.04946702391828216,0.002873619856763163
0.0065172,0.0016796430469352423,0.0020653821152828095,-0.025853533047021038,-0.0018955335542921701,0.0007153564346454271,0.049965675035867636,0.0029924940975372873
0.0069828,0.0017051837810201876,0.0025134608758214123,-0.024224317731410868,-0.0018540272791997315,0.0007416165140166704,0.05046081537128014,0.003110950375517439
0.0074483,0.0017307793023439402,0.0029600671933967516,-0.02259267322230529,-0.001812809831369706,0.0007681324476653602,0.050952379155693714,0.0032289700674502896
0.0079138,0.0017564274726573367,0.003405144919140634,-0.02095876171836952,-0.0017718825359297914,0.0007949029226379686,0.05144030183360607,0.0033465346329408082
0.0083793,0.0017821261623333405,0.0038486383401897784,-0.019322745929309944,-0.0017312465330150788,0.0008219265720500319,0.0519245200876587,0.0034636256204645887
0.0088448,0.001807873251214033,0.004290492195382123,-0.017684789049886362,-0.0016909027758872134,0.0008492019751095269,0.05240497186269246,0.003580224673360777
0.0093103,0.001833666629449688,0.004730651690677388,-0.016045054734391648,-0.0016508520291336928,0.000876727657155872,0.05288159638901481,0.0036963135358034204
0.0097759,0.0018595041983296094,0.005169062514294525,-0.014403707071602738,-0.0016110948669484887,0.000904502089714686,0.05335433420485625,0.003811874058749095
0.0102414,0.001885383871104419,0.0056056708515592165,-0.012760910560205084,-0.0015716316714950932,0.0009325236905684413,0.0538231271779945,0.003926888205858703
0.0107069,0.0019113035737994915,0.006040423399455159,-0.011116830084691096,-0.0015324626313530027,0.0009607908238431525,0.0542879185265265,0.00404133805939135
0.0111724,0.0019372612460192536,0.006473267380873307,-0.009471630891731489,-0.0014935877400485801,0.0009893018001112428,0.05474865283877089,0.004155205826068227
0.0116379,0.0019632548417420994,0.006904150558553787,-0.007825478567017015,-0.0014550067946711696,0.0010180548765107373,0.05520527609228527,0.004268473842904452
0.0121034,0.001989282330105706,0.007333021248715558,-0.006178539012566729,-0.0014167193945752706,0.0010470482568809406,0.05565773567198515,0.004381124583006777
0.012569,0.0020153416961825855,0.00775982833436932,-0.00453097842449769,-0.001378724940169531,0.0010762800919147588,0.056105980387353385,0.004493140661335104
0.0130345,0.002041430941745742,0.008184521278309466,-0.0028829632712499107,-0.0013410226317932584,0.0011057484793278287,0.056549960488731364,0.0046045048404257044
0.0135,0.002067548086024334,0.00860705013578117,-0.0012346602722593772,-0.0013036114686810884,0.0011354514640446265,0.05698962768268588,0.004715200036074048
0.0139655,0.002093691166449249,0.009027365566818967,0.0004137636229289578,-0.0012664902480163916,0.0011653870384017286,0.05742493514644839,0.004825209322975114
0.014431,0.002119858239388514,0.009445418848253307,0.0020621412551171015,-0.0012296575640739313,0.0011955531423684018,0.0578558375414254,0.004934515940319034
0.0148966,0.0021460473808724463,0.00986116188538188,0.0037103052754884525,-0.0011931118074522146,0.0012259476637846989,0.05828229102577946,0.005043103297339941
0.0153621,0.002172256687308439,0.010274547223302863,0.005358088165230923,-0.001156851164395912,0.0012565684386172376,0.05870425326608085,0.005150954978815874
0.0158276,0.0021984842761852605,0.010685528057907831,0.007005322254759442,-0.0011208736162086645,0.0012874132512328345,0.059121683448029434,0.005258054750517609
0.0162931,0.0022247282867667306,0.011094058246532798,0.008651839742548906,-0.001085176938756545,0.001318479834690166,0.059534542286246966,0.005364386564604246
0.0167586,0.002250986880774616,0.01150009231826663,0.010297472713588942,-0.0010497587020624002,0.001349765871049615,0.0599427920331396,0.005469934564963415
0.0172241,0.002277258243060576,0.011903585483916594,0.011942053157472089,-0.0010146162699912668,0.0013812689917014611,0.06034639648683074,0.005574683092493901
0.0176897,0.0023035405822669675,0.01230449364563124,0.013585412986127065,-0.0009797468000270148,0.001412986777712557,0.06074532099816491,0.005678616690328463
0.0181552,0.0023298321314762925,0.01270277340618099,0.015227384051208945,-0.0009451472431403361,0.0014449167601916287,0.061139532476782894,0.005781720108994611
0.0186207,0.0023561311488490685,0.013098382077896811,0.016867798161158132,-0.0009108143437481486,0.0014770564206733326,0.06152899939626879,0.005883978311511087
0.0190862,0.002382435918249878,0.013491277691267426,0.018506487097940248,-0.0008767446397644356,0.0015094031915211963,0.06191369179836923,0.00598537647841774
0.0195517,0.0024087447498613444,0.013881419003195372,0.020143282633479368,-0.0008429344627425031,0.001541954456349565,0.06229358129628497,0.00608590001273649
0.0200172,0.002435055980785781,0.014268765504912219,0.02177801654579729,-0.0008093799381085864,0.001574707550464684,0.06266864107703486,0.006185534544861044
0.0204828,0.0024613679756342478,0.014653277429553272,0.023410520634872076,-0.0007760769854867026,0.001607659761325044,0.06303884590289226,0.006284265937372996
0.0209483,0.002487679127102746,0.015034915759391955,0.025040626738229276,-0.0007430213191145926,0.0016408083290211197,0.06340417211189359,0.006382080289781877
0.0214138,0.002513987856535263,0.015413642232734162,0.02666816674627964,-0.0007102084483505546,0.0016741504467746341,0.06376459761741912,0.006478963943186749
0.0218793,0.002540292614473383,0.015789419350472716,0.028292972617417388,-0.0006776336782709185,0.0017076832614574971,0.06412010190684608,0.00657490348485685
0.0223448,0.002566591881192155,0.016162210382302075,0.029914876392893325,-0.0006452921103578753,0.001741403874130561,0.0644706660392746,0.006669885752728771
0.0228103,0.0025928841672219214,0.016531979372593365,0.03153371021147746,-0.000613178643277334,0.001775309340602346,0.06481627264232807,0.0067638978398176135
0.0232759,0.002619168013855814,0.01689869114592968,0.03314930632392597,-0.0005812879737464492,0.0018093966720079027,0.06515690590803087,0.0068569270985394835
0.0237414,0.0026454419936426015,0.017262311312301565,0.03476149710726779,-0.0005496145974904423,0.0018436628354079774,0.06549255158776728,0.0069489611449426916
0.0242069,0.0026717047108645855,0.017622806271962468,0.03637011507892618,-0.0005181528102883232,0.0018781047544086528,0.06582319698632692,0.007039987862844898
0.0246724,0.0026979548020002173,0.017980143219943855,0.03797499291069103,-0.00048689670910710773,0.0019127193098016403,0.06614883095504251,0.007129995407873461
0.0251379,0.0027241909361711038,0.01833429015022967,0.03957596344255752,-0.0004558401933241169,0.0019475033402254088,0.06646944388402531,0.007218972211406142
0.0256034,0.0027504118155730417,0.018685215859589703,0.04117285969644715,-0.00042497696603693467,0.0019824536428473282,0.06678502769350542,0.007306906984409308
0.026069,0.0027766161758907234,0.019032889951071597,0.042765514889826724,-0.0003943005354605913,0.002017566974067013,0.06709557582428291,0.007393788721170695
0.0265345,0.0028028027866957373,0.019377282837151226,0.04435376244924096,-0.00036380421641152695,0.002052840050241041,0.06740108322729751,0.0074796067029237944
0.027,0.002828970451827472,0.019718365742541422,0.04593743602377411,-0.0003334811318778759,0.0020882695484292246,0.06770154635232481,0.00756435050136089
0.0274655,0.002855118009756543,0.020056110706659202,0.047516369498455696,-0.0003033242146755916,0.0021238521071625955,0.06799696313580876,0.007648009982031745
0.027931,0.0028812443339303663,0.02039049058575169,0.04909039700762516,-0.0002733262091899058,0.002159584327233254,0.0682873329878421,0.0077305753076248864
0.0283966,0.0029073483331005135,0.020721479054681143,0.050659352948269884,-0.00024347967320158213,0.0021954627725062274,0.06857265677830728,0.0078120369411284005
0.0288621,0.0029334289516315393,0.02104905060836936,0.05222307199335068,-0.0002137769797973848,0.002231483970753456,0.0688529368221923,0.007892385648867057
0.0293276,0.002959485169790975,0.021373180562901845,0.05378138910512874,-0.00018421031936414296,0.00226764441451002,0.06912817686409685,0.007971612503412592
0.0297931,0.002985516004020271,0.021693845056291974,0.05533413954850776,-0.00015477170166575024,0.002303940561952698,0.06939838206194476,0.008049708886363898
0.0302586,0.0030115205071865004,0.02201102104890565,0.05688115890440529,-0.00012545295800240269,0.0023403688378009343,0.06966355896992119,0.008126666490993903
0.0307241,0.003037497768814724,0.022324686323547067,0.058422283083167256,-9.624574345134547e-05,0.0023769256342402877,0.06992371552065317,0.008202477324759885
0.0311897,0.00306344691530093,0.022634819485206743,0.059957348338040464,-6.714153918837011e-05,0.0024136073118684155,0.07017886100665387,0.008277133711674095
0.0316552,0.003089367110105545,0.02294139996047313,0.06148619127871829,-3.813165488928217e-05,0.0024504102006636485,0.07042900606105064,0.008350628294531566
0.0321207,0.003115257553927511,0.023244407996609786,0.06300864888497568,-9.20723121053857e-06,0.002487330600976199,0.07067416263761786,0.00842295403699219
0.0325862,0.003141117484858962,0.02354382466030024,0.06452455852041049,1.9640757651768125e-05,0.002524364784542039,0.07091434399013488,0.008494104225514262
0.0330517,0.003166946178520513,0.02383963183606322,0.0660337579463087,4.842150132542527e-05,0.002561508995519477,0.07114956465108975,0.00856407247113697
0.0335172,0.0031927429481771875,0.024131812224341204,0.06753608533565143,7.714435054898367e-05,0.0025987594515484726,0.07137984040974918,0.0086328527111095
0.0339828,0.0032185071448350027,0.024420349339265714,0.0690313792872822,0.00010581881438289266,0.0026361123448326957,0.07160518828961494,0.008700439210364648
0.0344483,0.003244238157318191,0.02470522750610309,0.07051947884025257,0.00013445455734577971,0.0026735638432443553,0.07182562652528664,0.008766826562835015
0.0349138,0.0032699354123270413,0.02498643185838502,0.07200022348836461,0.00016306139647677656,0.0027111100914518106,0.0720411745387501,0.008832009692609895
0.0353793,0.0032955983744763166,0.025263948334728167,0.0734734531949284,0.00019164929832480709,0.0027487472120699607,0.07225185291511078,0.00889598385493112
0.0358448,0.003321226546314204,0.025537763675347363,0.07493900840775239,0.00022022837586577014,0.0027864713068334085,0.07245768337779071,0.008958744637026134
0.0363103,0.0033468194683217486,0.025807865418266976,0.07639673007438445,0.0002488088853485713,0.0028242784577923842,0.07265868876320787,0.009020287958776716
0.0367759,0.0033723767188927373,0.026074241895235155,0.07784645965762092,0.0002774012230709782,0.002862164728531396,0.07285489299495712,0.009080610073222063
0.0372414,0.0033978979142940107,0.026336882227346016,0.0792880391513004,0.0003060159220862906,0.0029001261654105614,0.07304632105751238,0.009139707566895253
0.0377069,0.0034233827086062106,0.026595776320374975,0.08072131109639867,0.000334663648841829,0.0029381587988295604,0.07323299896947101,0.009197577359992624
0.0381724,0.003448830793645001,0.026850914859832663,0.08214611859744042,0.0003633551997502511,0.0029762586445141338,0.07341495375636212,0.00925421670637611
0.0386379,0.0034742418988628317,0.02710228930574312,0.08356230533924262,0.0003921014976947097,0.003014421704825022,0.0735922134230417,0.009309623193409057
0.0391034,0.0034996157912313636,0.02734989188715209,0.08496971560400428,0.00042091358846886806,0.0030526439700892137,0.07376480692569849,0.009363794741626475
0.039569,0.0035249522751046847,0.02759371559637118,0.08636819428875613,0.00044980263715279175,0.003090921419953362,0.07393276414349487,0.009416729604240956
0.0400345,0.003550251192063502,0.027833754182963643,0.08775758692318346,0.0004787799244257488,0.0031292500247591865,0.07409611584986754,0.009468426366485797
0.0405,0.0035755124207405165,0.028070002147477447,0.08913773968783423,0.0005078568428169667,0.0031676257469406732,0.07425489368351351,0.009518883944797172
0.0409655,0.0036007358766272095,0.028302454734931277,0.09050849943272417,0.0005370448928954207,0.003206044542442848,0.07440913011908633,0.009568101585837709
0.041431,0.0036259215118622993,0.028531107928059102,0.09186971369634996,0.0005663556793997509,0.003244502362161883,0.07455885843762808,0.009616078865364227
0.0418966,0.0036510693150021635,0.02875595844031914,0.0932212307251204,0.000595800907309429,0.003282995153406277,0.07470411269676198,0.009662815686942867
0.0423621,0.003676179310773517,0.02897700370867314,0.0945628994932156,0.0006253923778583127,0.0033215188613788206,0.07484492770067043,0.0097083122805151
0.0428276,0.003701251559808671,0.029194241886141975,0.09589456972288275,0.0006551419844917447,0.003360069430679052,0.07498133896988278,0.00975256920081828
0.0432931,0.0037262861583636873,0.02940767183414346,0.09721609190517672,0.0006850617087683714,0.0033986428068258734,0.07511338271089664,0.009795587325664545
0.0437586,0.00375128323801975,0.02961729311461845,0.09852731732115318,0.0007151636162078827,0.0034372349377999913,0.07524109578565576,0.00983736785408188
0.0442241,0.0037762429653680593,0.029823105981951495,0.09982809806352089,0.0007454598520859051,0.003475841775605812,0.07536451568090753,0.009877912304321204
0.0446897,0.003801165541678534,0.030025111374692475,0.10111828705875907,0.0007759626371773119,0.0035144592778523984,0.0754836804774623,0.009917222511733343
0.0451552,0.0038260512025525702,0.03022331090708616,0.10239773808970554,0.0008066842634492558,0.0035530834093530756,0.07559862881937673,0.009955300626519658
0.0456207,0.003850900217560115,0.03041770686041679,0.10366630581862009,0.0008376370897052602,0.003591710143743238,0.07570939988308298,0.009992149111360147
0.0460862,0.00387571288986127,0.03060830217417524,0.10492384581072732,0.0008688335371817444,0.003630335465115893,0.07581603334648539,0.010027770738922758
0.0465517,0.00390048955581262,0.030795100437056373,0.10617021455824178,0.0009002860850983872,0.0036689553696744328,0.0759185693580461,0.010062168589257615
0.0470172,0.003925230584558462,0.03097810587779437,0.1074052695048781,0.0009320072661637591,0.0037075658674021158,0.07601704850588084,0.01009534604707981
0.0474828,0.003949936377607088,0.03115732335584386,0.10862886907084757,0.0009640096620376787,0.0037461629837476887,0.07611151178688608,0.010127306798944363
0.0479483,0.003974607368392264,0.0313327583519145,0.10984087267834204,0.0009963058987517653,0.0037847427613265827,0.07620200057591846,0.010158054830316864
0.0484138,0.00399924402182002,0.03150441695836667,0.11104114077750549,0.0010289086420896697,0.0038233012616370704,0.07628855659504771,0.010187594422543298
0.0488793,0.004023846833800917,0.031672305869475795,0.112229534872892,0.0010618305929284743,0.0038618345667907695,0.07637122188290378,0.010215930149722474
0.0493448,0.004048416330767969,0.031836432371572944,0.11340591755040867,0.001095084482542753,0.0039003387812568493,0.07645003876413893,0.010243066875484456
0.0498103,0.004072953069180412,0.03199680433306943,0.1145701525047407,0.0011286830678727754,0.003938810033619282,0.07652504981902558,0.010269009749678417
0.0502759,0.004097457635013624,0.03215343019437332,0.11572210456725537,0.0011626391267583443,0.003977244478346474,0.0765962978532105,0.010293764204973266
0.0507414,0.004121930643235496,0.03230631895770584,0.11686163973438043,0.0011969654531397498,0.004015638297572593,0.07666382586764564,0.010317335953374352
0.0512069,0.004146372737269637,0.032455480176825896,0.11798862519645133,0.0012316748522273205,0.0040539877028898915,0.07672767702871598,0.010339730982659515
0.0516724,0.004170784588445807,0.032600923946671106,0.11910292936702106,0.001266780135641062,0.004092288937151335,0.07678789463858417,0.010360955552737673
0.0521379,0.004195166895437995,0.03274266089292392,0.12020442191262522,0.0013022941165218719,0.004130538276282798,0.07684452210577222,0.010381016191933042
0.0526034,0.0042195203836905264,0.032880702161511635,0.12129297378299377,0.0013382296046158238,0.0041687320311041345,0.07689760291599984,0.010399919693198008
0.053069,0.004243845804832589,0.03301505940804924,0.12236845724170031,0.0013745994013330271,0.004206866549158362,0.07694718060329862,0.01041767311025762
0.0535345,0.004268143936081511,0.033145744787234234,0.12343074589723813,0.0014114162947825599,0.0042449382165482205,0.07699329872142154,0.010434283753688586
0.054,0.004292415579635131,0.033272770942202545,0.12447971473451186,0.0014486930547849895,0.004282943459779354,0.07703600081556655,0.010449759186935624
0.0544655,0.004316661562053541,0.03339615099385468,0.12551524014673213,0.001486442427864007,0.004320878747609336,0.07707533039443278,0.010464107222267972
0.054931,0.004340882733630467,0.03351589853016102,0.12653719996769935,0.0015246771322187111,0.0043587405929017475,0.07711133090262745,0.010477335916678808
0.0553966,0.004365079967754505,0.03363202759545513,0.12754547350446238,0.0015634098526781175,0.004396525554484509,0.07714404569344119,0.010489453567730286
0.0558621,0.0043892541602604355,0.033744552679723906,0.1285399415703363,0.001602653235639495,0.004434230239011618,0.07717351800200856,0.01050046870934682
0.0563276,0.004413406228770798,0.03385348870790339,0.1295204865182625,0.0016424198839921729,0.004471851302827456,0.07719979091887039,0.010510390107559277
0.0567931,0.0044375371120279105,0.03395885102918906,0.13048699227449315,0.0016827223520284851,0.004509385453832759,0.07722290736395374,0.01051922675620266
0.0572586,0.004461647769216521,0.0340606554063695,0.13143934437258095,0.0017235731403435503,0.004546829453351353,0.07724291006098473,0.010526987872569915
0.0577241,0.0044857391792772925,0.03415891800519235,0.1323774299876548,0.0017649846907256028,0.004584180117996681,0.07725984151234924,0.010533682893024424
0.0581897,0.004509812340211293,0.034253655383771134,0.13330113797095952,0.0018069693810386068,0.004621434321537152,0.07727374397441562,0.010539321468573774
0.0586552,0.004533868268375721,0.03434488448204171,0.13421035888463756,0.0018495395200988903,0.004658588996759266,0.07728465943333358,0.010543913460407343
0.0591207,0.004557907997771052,0.03443262261127647,0.13510498503672985,0.0018927073425475344,0.004695641137327493,0.07729262958132288,0.010547468935400168
0.0595862,0.004581932579319872,0.034516887443664275,0.13598491051637068,0.0019364850037202489,0.004732587799639793,0.07729769579346485,0.01054999816158555
0.0600517,0.004605943080137636,0.034597697001963905,0.13685003122915118,0.001980884574516464,0.004769426104677709,0.07729989910500952,0.01055151160359876
0.0605172,0.004629940582795694,0.03467506964923842,0.137700244932625,0.002025918036269366,0.004806153239849896,0.07729928018921017,0.010552019918094162
0.0609828,0.004653926184576878,0.03474902407867759,0.13853545127192834,0.002071597275618623,0.0048427664608279375,0.07729587933569665,0.010551533949137968
0.0614483,0.004677900996723983,0.034819579303515265,0.13935555181548523,0.002117934079387567,0.0048792630933733325,0.07728973642939813,0.010550064723578773
0.0619138,0.004701866143681477,0.034886754647048296,0.1401604500907682,0.0021649401294665904,0.004915640535154472,0.07728089093002544,0.010547623446397952
0.0623793,0.004725822762330746,0.03495056973276321,0.14095005162008323,0.0022126269977045606,0.004951896257552462,0.07726938185212216,0.010544221496041895
0.0628448,0.0047497720012191985,0.03501104447457676,0.14172426395634644,0.002261006140810028,0.00498802780745461,0.07725524774569349,0.010539870419737996
0.0633103,0.004773715019783542,0.035068199067195945,0.14248299671881914,0.0023100888952640474,0.005024032809034408,0.0772385266774209,0.010534581928796288
0.0637759,0.004797652987567548,0.03512205397660308,0.1432261616287665,0.002359886472246411,0.0050599089655168576,0.0772192562124704,0.01052836789389852
0.0642414,0.004821587083434627,0.03517262993067092,0.14395367254500357,0.0024104099525771336,0.0050956540609279595,0.07719747339690136,0.010521240340376497
0.0647069,0.004845518494775539,0.035219947909912834,0.1446654454992921,0.0024616702816750292,0.005131265961827214,0.07717321474068255,0.010513211443481468
0.0651724,0.004869448416711549,0.03526402913837268,0.1453613987315495,0.0025136782645352324,0.005166742619021959,0.07714651620132133,0.01050429352364637
0.0656379,0.004893378051293292,0.03530489507465867,0.14604145272483068,0.0025664445607275067,0.005202082069262396,0.07711741316811176,0.010494499041742709
0.0661034,0.004917308606695606,0.035342567403125684,0.14670553024004235,0.0026199796794171715,0.0052372824369161484,0.07708594044700658,0.010483840594333821
0.066569,0.004941241296408538,0.035377068025209735,0.14735355635034808,0.002674293974410479,0.005272341935621202,0.07705213224611832,0.010472330908926292
0.0670345,0.004965177338424712,0.03540841905091858,0.14798545847522226,0.0027293976392262723,0.005307258869916084,0.07701602216185369,0.01045998283922124
0.0675,0.00498911795442321,0.035436642790481955,0.1486011664141097,0.002785300702195755,0.00534203163684612,0.07697764316568569,0.010446809360367203
0.0679655,0.005013064368950123,0.03546176174616489,0.14920061237964816,0.002842013021592206,0.005376658727544633,0.07693702759156695,0.010432823564216317
0.068431,0.005037017808595895,0.035483798604247156,0.14978373103041023,0.0028995442807924713,0.0054111387287879426,0.07689420712398772,0.010418038654585555
0.0688966,0.0050609795011695834,0.03550277622717177,0.1503504595031215,0.002957903983472062,0.005445470324522961,0.07684921278668093,0.010402467942524755
0.0693621,0.005084950674870194,0.03551871764586524,0.1509007374443132,0.003017101448835647,0.005479652297366223,0.07680207493197715,0.010386124841593253
0.0698276,0.005108932557455247,0.035531646052231955,0.15143450704136885,0.003077145806884743,0.005513683530073172,0.07675282323081088,0.010369022863146999
0.0702931,0.005132926375406811,0.035541584791824676,0.1519517130529263,0.0031380459937243705,0.0055475630069765835,0.0767014866633801,0.01035117561163805
0.0707586,0.0051569333530952655,0.03554855735669301,0.1524523028385995,0.00319981074691043,0.005581289815393064,0.07664809351045984,0.010332596779928439
0.0712241,0.005180954711941112,0.035552587378411306,0.15293622638798735,0.003262448600839548,0.00561486314699665,0.07659267134537089,0.010313300144620388
0.0716897,0.005204991669575207,0.03555369862128726,0.1534034363489397,0.0033259678821831104,0.005648282299158558,0.07653524702660357,0.010293299561404881
0.0721552,0.005229045438997829,0.03555191497575207,0.15385388805505423,0.003390376705367209,0.0056815466762522165,0.07647584669109704,0.010272608960430625
0.0726207,0.005253117227737031,0.03554726045193307,0.15428753955237964,0.0034556829681002045,0.005714655790922696,0.0764144957481735,0.010251242341695357
0.0730862,0.005277208237006785,0.0355397591734093,0.1547043516253012,0.003521894346949596,0.005747609265319794,0.07635121887412674,0.010229213770461432
0.0735517,0.005301319660865451,0.03552943537115061,0.15510428782158706,0.0035890182929698934,0.005780406832294057,0.07628604000746424,0.010206537372697564
0.0740172,0.005325452685375141,0.03551631337764058,0.15548731447657294,0.0036570620273831634,0.005813048336555131,0.07621898234480128,0.010183227330548493
0.0744828,0.005349608487762563,0.03550041762118352,0.15585340073646642,0.0037260325373139522,0.005845533735791855,0.07615006833740563,0.010159297877834287
0.0749483,0.0053737882355819905,0.03548177262039567,0.15620251858075518,0.0037959365715803254,0.0058778631017535055,0.07607931968839061,0.010134763295580917
0.0754138,0.005397993085880964,0.035460402978880555,0.15653464284370783,0.003866780636542838,0.005910036621291621,0.07600675735055386,0.010109637907583654
0.0758793,0.005422224184369382,0.035436333380088315,0.1568497512349602,0.003938570992013326,0.005942054597361782,0.07593240152485888,0.010083936076004756
0.0763448,0.005446482664592657,0.035409588582358376,0.15714782435918598,0.004011313647225487,0.005973917449984744,0.07585627165955608,0.010057672197006843
0.0768103,0.005470769647109581,0.03538019341414488,0.15742884573485358,0.004085014356869296,0.006005625717166356,0.07577838644993924,0.010030860696423265
0.0772759,0.005495086238675564,0.03534817276942377,0.15769280181207446,0.0041596786171913544,0.006037180055775751,0.07569876383873322,0.010003516025466704
0.0777414,0.005519433531431893,0.03531355160328025,0.15793968198954902,0.004235311662163293,0.006068581242381346,0.0756174210171082,0.009975652656477185
0.0782069,0.005543812602101659,0.035276354927675155,0.15816947863061767,0.004311918459720385,0.006099830174044205,0.07553437442631497,0.009947285078710625
0.0786724,0.0055682245111930125,0.03523660780738833,0.15838218707842405,0.004389503708072518,0.00613092786906833,0.07544963975993547,0.009918427794168978
0.0791379,0.005592670302210342,0.03519433535613707,0.15857780567019703,0.004468071832089732,0.006161875467707425,0.07536323196674198,0.009889095313473038
0.0796034,0.005617151000874012,0.035149562732867505,0.1587563357506569,0.004547626979764562,0.006192674232827699,0.07527516525415825,0.009859302151778947
0.080069,0.005641667614349235,0.035102315138216655,0.15891778168455054,0.004628173018753539,0.006223325550526268,0.0751854530923153,0.009829062824739441
0.0805345,0.005666221130484682,0.035052617811142724,0.15906215086831837,0.004709713533000286,0.006253830930704681,0.07509410821869365,0.009798391844510944
0.081,0.005690812517061408,0.035000496025720994,0.15918945374089585,0.0047922518194427445,0.006284192007597102,0.0750011426433442,0.009767303715807637
0.0814655,0.005715442721052682,0.03494597508810265,0.15929970379365116,0.004875790884807119,0.006314410540252607,0.07490656765467818,0.009735812932003672
0.081931,0.005740112667895295,0.03488908033363348,0.15939291757945995,0.00496033344249115,0.00634448841297107,0.07481039382581718,0.009703933971284774
0.0823966,0.005764823260772956,0.03482983712412954,0.1594691147209169,0.0050458819095393435,0.006374427635692058,0.07471263102149327,0.009671681292850435
0.0828621,0.00578957537991239,0.03476827084530645,0.15952831791768324,0.005132438403712714,0.006404230344336103,0.07461328840548895,0.009639069333167903
0.0833276,0.005814369881892837,0.03470440690435884,0.15957055295296863,0.00522000474065565,0.0064338988010977155,0.07451237444860641,0.009606112502279184
0.0837931,0.005839207598969717,0.03463827072768652,0.15959584869914467,0.005308582431162391,0.006463435394689476,0.0744098969371553,0.009572825180162173
0.0842586,0.0058640893384132265,0.03456988775876325,0.15960423712248628,0.0053981726785456265,0.006492842640536512,0.07430586298194806,0.00953922171314707
0.0847241,0.005889015881862727,0.03449928345614405,0.15959575328703665,0.005488776376109686,0.0065221231809206035,0.07420027902779226,0.00950531641038915
0.0851897,0.005913987984697755,0.03442648329160676,0.1595704353575912,0.005580394104730703,0.006551279785073186,0.07409315086346896,0.009471123540398965
0.0856552,0.005939006375426552,0.03435151274842315,0.15952832460179484,0.005673026130546144,0.006580315349216459,0.07398448363218632,0.009436657327630996
0.0861207,0.005964071755093007,0.034274397319754894,0.15946946539134751,0.005766672402756024,0.0066092328965518705,0.07387428184249716,0.009401931949131777
0.0865862,0.0059891847967029205,0.034195162507169384,0.15939390520231272,0.00586133255153811,0.006638035577195242,0.07376254937966846,0.009366961531248502
0.0870517,0.006014346144670506,0.03411383381927021,0.15930169461452362,0.005957005886079351,0.00666672666805786,0.07364928951749083,0.009331760146399148
0.0875172,0.006039556414286025,0.03403043677043694,0.15919288731008124,0.006053691392725785,0.006695309572672835,0.0735345049305153,0.0092963418099051
0.0879828,0.00606481619120548,0.03394499687966867,0.1590675400709383,0.006151387733253094,0.006723787820965991,0.07341819770670473,0.00926072047688731
0.0884483,0.006090126030963261,0.03385753966952566,0.15892571277556133,0.006250093243260044,0.006752165068970549,0.07330036936048698,0.009224910039226977
0.0889138,0.006115486458508674,0.03376809066516317,0.1587674683946633,0.006349805930686976,0.006780445098484812,0.07318102084619721,0.009188924322591658
0.0893793,0.00614089796776725,0.03367667539345138,0.15859287298599592,0.006450523474461523,0.006808631816672102,0.07306015257189613,0.009152777083527682
0.0898448,0.006166361021227761,0.03358331938217528,0.1584019956881921,0.006552243223273702,0.006836729255602232,0.07293776441355118,0.009116482006619691
0.0903103,0.006191876049555795,0.03348804815930798,0.15819490871364578,0.006654962194482542,0.0068647415717338605,0.07281385572956686,0.00908005270171807
0.0907759,0.006217443451234775,0.03339088725235098,0.15797168734041628,0.00675867707315634,0.006892673045337142,0.07268842537565076,0.009043502701235015
0.0912414,0.0062430635922352245,0.033291862187734375,0.15773240990314308,0.00686338421124864,0.006920528079856079,0.0725614717200021,0.009006845457509936
0.0917069,0.006268736805713067,0.033190998490270046,0.15747715778295587,0.0069690796269120305,0.006948311201210012,0.07243299265881022,0.008970094340244879
0.0921724,0.0062944633917376746,0.033088321682650516,0.15720601539636442,0.007075759003951779,0.006976027057033752,0.07230298563205065,0.008933262634010581
0.0926379,0.006320243617050339,0.03298385728498618,0.1569190701831121,0.007183417691421371,0.007003680415855879,0.07217144763956725,0.008896363535823805
0.0931034,0.0063460777148538145,0.03287763081437375,0.15661641259297776,0.007292050703361961,0.0070312761662148305,0.07203837525742825,0.008859410152796456
0.093569,0.006371965884633498,0.032769667784488796,0.15629813607151033,0.007401652718687724,0.007058819315712556,0.07190376465454501,0.008822415499857031
0.0940345,0.006397908292010802,0.03265999370519574,0.1559643370446816,0.007512218081219039,0.007086314990005641,0.07176761160954165,0.008785392497544819
0.0945,0.006423905068629191,0.03254863408216888,0.15561511490244306,0.007623740799865416,0.007113768431733947,0.07162991152786377,0.008748353969877274
0.0949655,0.0064499563120733435,0.03243561441651875,0.15525057198117517,0.007736214548959973,0.007141184999386918,0.07149065945911423,0.008711312642290863
0.095431,0.006476062085821838,0.03232096020441808,0.15487081354501764,0.007849632668747275,0.007168570166107855,0.07134985011460344,0.008674281139655661
0.0958966,0.006502222419233702,0.03220469693672224,0.15447594776607354,0.00796398816602624,0.00719592951843659,0.07120747788510154,0.008637271984363915
0.0963621,0.006528437307569142,0.03208685009857912,0.15406608570348151,0.008079273714949785,0.007223268754991167,0.07106353685877975,0.008600297594492759
0.0968276,0.006554706712044701,0.03196744516902388,0.15364134128135362,0.008195481657982836,0.007250593685089257,0.07091802083932823,0.00856337028204114
0.0972931,0.006581030559923091,0.031846507620554215,0.1532018312655789,0.008312604007020196,0.007277910227310076,0.07077092336423728,0.00852650225124106
0.0977586,0.006607408744637832,0.03172406291868193,0.1527476752394962,0.008430632444665801,0.007305224407997628,0.07062223772322915,0.008489705596943163
0.0982241,0.006633841125952863,0.031600136521457226,0.152278995578441,0.00854955832567474,0.007332542359706002,0.0704719569768269,0.00845299230307676
0.0986897,0.006660327530157194,0.03147475387896164,0.15179591742317314,0.008669372678559356,0.007359870319587599,0.07032007397504664,0.008416374241184348
0.0991552,0.006686867750294679,0.031347940432766085,0.15129856865219302,0.008790066207360748,0.007387214627725105,0.07016658137619902,0.008379863169030841
0.0996207,0.0067134615464290075,0.03121972161535032,0.1507870798529533,0.008911629293586817,0.007414581725408149,0.0700114716657858,0.008343470729287605
0.1000862,0.006740108645943969,0.03109012284948059,0.15026158429197367,0.009034051998318058,0.007441978153355631,0.06985473717547666,0.008307208448291475
0.1005517,0.006766808743879103,0.030959169547542482,0.14972221788386528,0.00915732406448216,0.007469410549884772,0.06969637010215142,0.00827108773487892
0.1010172,0.006793561503300814,0.030826887110826366,0.14916911915927208,0.009281434919298464,0.007496885649027899,0.06953636252699164,0.008235119879295524
0.1014828,0.0068203665557090495,0.03069330092876311,0.14860242923173542,0.009406373676893284,0.0075244102785979716,0.06937470643460622,0.008199316052180992
0.1019483,0.006847223501479597,0.030558436378107897,0.14802229176348827,0.009532129141087082,0.007551991358203808,0.0692113937321743,0.008163687303629851
0.1024138,0.0068741319103420425,0.030422318822070204,0.1474288529301847,0.009658689808354375,0.007579635897215909,0.06904641626858851,0.008128244562328125
0.1028793,0.0069010913218933885,0.030284973609388,0.14682226138456933,0.009786043870957236,0.007607350992683707,0.06887976585358142,0.008092998634766143
0.1033448,0.006928101246147346,0.030146426073344203,0.14620266821909192,0.009914179220253163,0.007635143827205036,0.06871143427681738,0.008057960204527691
0.1038103,0.0069551611641193115,0.03000670153072335,0.14557022692747157,0.010043083450178052,0.007663021666748544,0.06854141332693105,0.008023139831655668
0.1042759,0.00698227052844701,0.029865825280706432,0.14492509336521556,0.010172743860904913,0.007690991858429687,0.0683696948104941,0.007988547952094305
0.1047414,0.007009428764046817,0.029723822603701495,0.1442674257090974,0.0103031474626789,0.007719061828240926,0.0681962705708904,0.007954194877207986
0.1052069,0.00703663526880575,0.029580718760107705,0.14359738441559952,0.010434280979829144,0.007747239078736672,0.06802113250707958,0.007920090793376668
0.1056724,0.0070638894143090795,0.02943653898901025,0.14291513217832783,0.010566130854957792,0.007775531186673447,0.0678442725922288,0.007886245761667793
0.1061379,0.007091190546603531,0.029291308506803355,0.1422208338844084,0.010698683253306572,0.007803945800605708,0.06766568289219142,0.007852669717584625
0.1066034,0.007118537986996005,0.029145052505738615,0.14151465656988005,0.010831924067301095,0.007832490638437765,0.0674853555838121,0.00781937247089078
0.107069,0.007145931032887767,0.028997796152395762,0.1407967693741012,0.01096583892127305,0.007861173484932224,0.0673032829730381,0.0077863637055107454
0.1075345,0.0071733689586440325,0.028849564586073167,0.14006734349319452,0.0111004131763604,0.007890002189175415,0.06711945751281803,0.007753652979506078
0.108,0.007200851016498911,0.02870038291709543,0.13932655213255693,0.011235631935585556,0.007918984662000361,0.06693387182077089,0.007721249725126902
0.1084655,0.0072283764374956256,0.0285502762250359,0.13857457045846633,0.011371480049111463,0.007948128873367813,0.06674651869660976,0.00768916324893832
0.108931,0.0072559444324619546,0.028399269556852156,0.1378115755488193,0.011507942119675466,0.007977442849706001,0.06655739113930605,0.007657402732021232
0.1093966,0.00728355419302076,0.028247387924932997,0.13703774634303514,0.011645002508200726,0.008006934671209715,0.0663664823639815,0.00762597723024703
0.1098621,0.00731120489263545,0.028094656305055695,0.13625326359116285,0.011782645339584874,0.008036612469099416,0.06617378581851759,0.007594895674625619
0.1103276,0.007338895687690171,0.027941099634252654,0.13545830980222653,0.011920854508665568,0.008066484422841073,0.06597929519987343,0.007564166871726115
0.1107931,0.0073666257186044875,0.027786742808586742,0.13465306919184492,0.012059613686362464,0.008096558757327453,0.06578300447010567,0.0075337995041695974
0.1112586,0.0073943941109822445,0.027631610680834865,0.1338377276291596,0.012198906325995117,0.008126843740021542,0.06558490787208446,0.007503802131193254
0.1117241,0.007422199976794291,0.0274757280580793,0.13301247258310558,0.012338715669776212,0.008157347678062843,0.06538499994490056,0.007474183189285223
0.1121897,0.007450042415594702,0.027319119699206775,0.13217749306805793,0.012479024755479472,0.008188078915337235,0.06518327553895867,0.00744495099288946
0.1126552,0.007477920515770163,0.027161810312315456,0.1313329795888873,0.012619816423281471,0.008219045829511187,0.06497972983075187,0.007416113735179909
0.1131207,0.007505833355822103,0.02700382455203062,0.1304791240854568,0.012761073322776498,0.00825025682903113,0.06477435833731227,0.007387679488903212
0.1135862,0.007533780005681229,0.026845187016730134,0.1296161198765926,0.012902777920163533,0.008281720350088909,0.06456715693033298,0.007359656207289199
0.1140517,0.007561759528054043,0.02668592224568163,0.1287441616035597,0.013044912505604274,0.008313444853554276,0.06435812184995669,0.007332051725028324
0.1145172,0.0075897709798009175,0.02652605471609381,0.1278634451730751,0.013187459200751067,0.008345438821875417,0.06414724971822611,0.007304873759315149
0.1149828,0.007617813413345311,0.026365608840085018,0.12697416769988976,0.013330399966443467,0.008377710755948438,0.06393453755219151,0.007278129910956951
0.1154483,0.00764588587811362,0.026204608961572638,0.12607652744897038,0.013473716610572083,0.008410269171956723,0.06371998277667064,0.007251827665546455
0.1159138,0.007673987422005158,0.026043079353087143,0.12517072377731261,0.013617390796108342,0.00844312259818098,0.06350358323665531,0.007225974394697633
0.1163793,0.007702117092891705,0.025881044212514817,0.1242569570754164,0.013761404049298612,0.00847627957178074,0.06328533720935958,0.007200577357343479
0.1168448,0.007730273940146034,0.025718527659773314,0.12333542870845458,0.013905737768021176,0.008509748635548018,0.0630652434159031,0.007175643701094602
0.1173103,0.007758457016198859,0.025555553733424337,0.12240634095716658,0.014050373230304416,0.008543538334633765,0.06284330103262327,0.007151180463657402
0.1177759,0.007786665378123589,0.0253921463872277,0.12146989695850875,0.014195291603004522,0.008577657213247795,0.0626195097020097,0.007127194574310594
0.1182414,0.007814898089248328,0.025228329486640888,0.12052630064609433,0.014340473950640979,0.008612113811332782,0.06239386954325376,0.00710369285543876
0.1187069,0.007843154220794514,0.025064126805268296,0.11957575669045566,0.014485901244388016,0.008646916661213073,0.0621663811624063,0.007080682024121592
0.1191724,0.007871432853541643,0.024899562021264,0.11861847043916234,0.014631554371220098,0.00868207428421912,0.06193704566213686,0.0070581686937774505
0.1196379,0.007899733079517569,0.024734658713692,0.11765464785682908,0.01477741414320953,0.008717595187288455,0.061705864651087496,0.0070361593758598365
0.1201034,0.007928054003713955,0.02456944035884771,0.11668449546504661,0.014923461306974075,0.008753487859544239,0.061472840252814895,0.007014660481605403
0.120569,0.007956394745826564,0.02440393032654474,0.11570822028226906,0.015069676553272415,0.008789760768852484,0.06123797511431442,0.006993678323832124
0.1210345,0.007984754442020214,0.024238151876371086,0.11472602976368998,0.015216040526745212,0.008826422358359171,0.0610012724141199,0.00697321911878622
0.1215,0.008013132246718258,0.024072128153919032,0.11373813174113885,0.015362533835799289,0.008863481043008591,0.06076273586997308,0.006953288988036464
0.1219655,0.008041527334416527,0.02390588218699322,0.11274473436302852,0.015509137062632412,0.008900945206044588,0.060522369746056924,0.006933893960414499
0.122431,0.00806993890152165,0.02373943688180138,0.11174604603438372,0.015655830773396013,0.00893882319549662,0.06028017885978775,0.006915039973999775
0.1228966,0.008098366168213661,0.023572815019132345,0.11074227535697945,0.015802595528492988,0.008977123320652869,0.06003616858816158,0.006896732878147743
0.1233621,0.008126808380332822,0.023406039250525965,0.1097336310696182,0.015949411893007647,0.009015853848522961,0.05979034487365109,0.006878978435559936
0.1238276,0.008155264811290568,0.023239132094439636,0.10872032198857415,0.016096260447264754,0.009055023000293014,0.05954271422964959,0.0068617823243945905
0.1242931,0.00818373476400457,0.02307211593241588,0.10770255694823236,0.01624312179751442,0.009094638947775877,0.059293283745459224,0.006845150140416422
0.1247586,0.008212217572857882,0.022905013005255402,0.10668054474195025,0.016389976586739536,0.009134709809859426,0.059042061090821114,0.006829087399184214
0.1252241,0.008240712605682217,0.022737845409199892,0.10565449406316892,0.01653680550558235,0.009175243648955804,0.0587890545199861,0.006813599538274823
0.1256897,0.008269219265765343,0.02257063509212882,0.1046246134468009,0.016683589303386558,0.009216248467454434,0.05853427287532572,0.006798691919542256
0.1261552,0.008297736993882626,0.02240340384977427,0.1035911112109204,0.01683030879935136,0.00925773220418159,0.058277725590484004,0.006784369831410399
0.1266207,0.008326265270352675,0.022236173321957844,0.10255419539878129,0.01697694489379365,0.009299702730869221,0.05801942269307135,0.006770638491198019
0.1270862,0.008354803617117013,0.02206896498885355,0.10151407372118722,0.017123478579514503,0.009342167848635723,0.0577593748069017,0.006757503047474585
0.1275517,0.00838335159984361,0.02190180016728044,0.10047095349923847,0.017269890953265976,0.009385135284481191,0.05749759315377437,0.006744968582445464
0.1280172,0.008411908830054137,0.021734700007028786,0.09942504160747896,0.01741616322731414,0.009428612687799697,0.0572340895548015,0.006733040114364979
0.1284828,0.008440474967274673,0.02156768548722339,0.098376544417467,0.017562276741094233,0.009472607626910996,0.05696887643128214,0.0067217225999757855
0.1289483,0.008469049721209586,0.021400777412727463,0.09732566774179274,0.01770821297295363,0.00951712758561406,0.056701966805123946,0.006711020936973032
0.1294138,0.008497632853938245,0.021233996410590514,0.09627261677856493,0.01785395355197829,0.009562179959764744,0.05643337429881381,0.0067009399664917525
0.1298793,0.008526224182134135,0.02106736292654339,0.0952175960563897,0.017999480269898234,0.00960777205387988,0.05616311313493915,0.006691484475615933
0.1303448,0.00855482357930591,0.020900897221543542,0.09416080937986325,0.01814477509306738,0.009653911077770019,0.05589119813526259,0.00668265919990773
0.1308103,0.008583430978059818,0.020734619368373463,0.09310245977559983,0.018289820174513027,0.009700604143203078,0.0556176447193527,0.006674468825955323
0.1312759,0.008612046372382932,0.02056854924829497,0.09204274943881645,0.018434597866050114,0.00974785826060107,0.05534246890277417,0.0066669179939379064
0.1317414,0.008640669819946559,0.020402706547761947,0.09098187968049434,0.01857909073045517,0.009795680335772121,0.055065687294840425,0.00666001130020638
0.1322069,0.008669301444429225,0.020237110755193875,0.08992005087513716,0.018723281553694834,0.0098440771666799,0.05478731709593222,0.0066537532998782985
0.1326724,0.008697941437858576,0.020071781157812458,0.08885746240914456,0.01886715335720355,0.009893055440252603,0.05450737609438557,0.006648148509445686
0.1331379,0.008726590062971572,0.019906736838543458,0.08779431262981982,0.01901068941020508,0.00994262172923356,0.05422588266295346,0.00664320140939433
0.1336034,0.008755247655592352,0.01974199667298574,0.08673079879502893,0.019153873242072274,0.009992782489075544,0.053942855754846565,0.006638916446833176
0.134069,0.008783914627027125,0.01957757932644942,0.08566711702352835,0.019296688654719396,0.01004354405488077,0.05365831489935923,0.006635298038132419
0.1345345,0.008812591466475417,0.019413503251064924,0.08460346224597791,0.019439119735021222,0.010094912638388557,0.05337228019708768,0.006632350571568876
0.135,0.008841278743456974,0.019249786682964738,0.08354002815665487,0.01958115086725298,0.010146894325012618,0.05308477231474807,0.006630078409977246
0.1354655,0.008869977110253585,0.01908644763953947,0.0824770071658843,0.019722766745545003,0.01019949507092987,0.05279581247960188,0.006628485893405838
0.135931,0.008898687304364989,0.01892350391676983,0.08141459035320094,0.019863952386345883,0.010252720700222671,0.052505422473496086,0.006627577341775354
0.1363966,0.008927410150978038,0.018760973086636035,0.08035296742125678,0.020004693140887646,0.010306576902076254,0.05221362462652541,0.006627357057539256
0.1368621,0.008956146565448225,0.018598872494605987,0.07929232665048824,0.020144974707646382,0.010361069228033143,0.05192044181032381,0.006627829328344263
0.1373276,0.008984897555792648,0.01843721925720358,0.07823285485455635,0.020284783144791554,0.010416203089306207,0.05162589743099277,0.006628998429689452
0.1377931,0.009013664225193499,0.018276030259658287,0.0771747373365729,0.020424104882617106,0.01047198375415194,0.05133001542167407,0.006630868627582439
0.1382586,0.009042447774511181,0.018115322153637137,0.07611815784612512,0.020562926735947236,0.01052841634530552,0.05103282023477538,0.0066334441811910635
0.1387241,0.009071249504806207,0.01795511135506002,0.07506329853711058,0.02070123591650957,0.010585505837479104,0.050734336833857405,0.006636729345488975
0.1391897,0.009100070819868994,0.017795414041999275,0.0740103399263942,0.020839020045268376,0.010643257054924683,0.05043459068519221,0.006640728373893556
0.1396552,0.009128913228756776,0.017636246152664462,0.07295946085329803,0.020976267164710124,0.010701674669062912,0.05013360774900369,0.006645445520894568
0.1401207,0.009157778348336854,0.017477623383473417,0.07191083843993437,0.021112965751073732,0.01076076319617911,0.04983141447040209,0.006650885044671985
0.1405862,0.009186667905835421,0.017319561187210834,0.07086464805239204,0.021249104726517448,0.010820526995187645,0.04952803777002538,0.006657051209701526
0.1410517,0.009215583741391191,0.017162074771275806,0.06982106326278516,0.02138467347121433,0.010880970265465804,0.04922350503440061,0.006663948289346469
0.1415172,0.009244527810613072,0.01700517909601986,0.06878025581217315,0.02151966183536808,0.0109420970447582,0.04891784410603854,0.0066715805684344435
0.1419828,0.009273502187141071,0.016848888873177117,0.06774239557436014,0.021654060151140832,0.011003911207152625,0.0486110832732746,0.006679952345817926
0.1424483,0.009302509065209585,0.01669321856438811,0.06670765052058128,0.021787859244484446,0.011066416461128267,0.048303251259869104,0.006689067936917189
0.1429138,0.009331550762212195,0.016538182379818765,0.06567618668508307,0.021921050446866687,0.011129616347677044,0.04799437721437959,0.006698931676244486
0.1433793,0.009360629721267028,0.016383794276875904,0.06464816813160403,0.022053625606883634,0.0111935142384988,0.047684490699317524,0.0067095479199083055
0.1438448,0.009389748513781694,0.016230067959020447,0.06362375692076154,0.022185577101749596,0.011258113334271048,0.04737362168010165,0.0067209210480965315
0.1443103,0.009418909842016767,0.01607701687467951,0.06260311307835041,0.02231689784865569,0.011323416662993871,0.04706180051381953,0.006733055467537378
0.1447759,0.009448116541646685,0.015924654216258407,0.06158639456455774,0.02244758131598814,0.011389427078410572,0.04674905793780893,0.006745955613937058
0.1452414,0.009477371584316944,0.01577299291925367,0.06057375724409843,0.02257762153439741,0.011456147258504601,0.04643542505807018,0.006759625954393162
0.1457069,0.009506678080196389,0.015622045661467954,0.05956535485727519,0.02270701310770911,0.011523579704073231,0.04612093333752021,0.006774070989782734
0.1461724,0.009536039280523325,0.01547182486232792,0.05856133899196628,0.02283575122366758,0.011591726737378322,0.04580561458409877,0.006789295257124093
0.1466379,0.009565458580144168,0.015322342682305921,0.057561859056543624,0.022963831664503033,0.01166059050087448,0.0454895009387372,0.006805303331911396
0.1471034,0.009594939520043227,0.015173611022446487,0.05656706225372347,0.02309125081731306,0.01173017295601484,0.04517262486319952,0.0068220998304209515
0.147569,0.009624485789862209,0.015025641523998413,0.055577093555351384,0.023218005684249157,0.011800475882134655,0.04485501912780571,0.00683968941198825
0.1480345,0.009654101230407958,0.014878445568153362,0.05459209567812282,0.02334409389249894,0.011871500875412732,0.04453671679904673,0.00685807678125472
0.1485,0.009683789836146936,0.014732034275891778,0.053612209060240126,0.02346951370405476,0.01194324934791082,0.044217751227100595,0.00687726669038324
0.1489655,0.009713555757684867,0.014586418507936936,0.05263757183900623,0.023594264025259343,0.012015722526690947,0.04389815603325875,0.006897263941241531
0.149431,0.009743403304230064,0.014441608864817879,0.05166831982935491,0.023718344416119256,0.012088921453010774,0.04357796509727187,0.006918073387552641
0.1498966,0.0097733369460389,0.014297615687041992,0.050704586503317065,0.02384175509937701,0.012162846981596977,0.04325721254462436,0.0069396999370117994
0.1503621,0.009803361316841936,0.014154449055377912,0.04974650297042195,0.02396449696933246,0.012237499779996747,0.04293593273374707,0.006962148553368964
0.1508276,0.009833481216249246,0.014012118791249474,0.04879419795903189,0.024086571600404165,0.012312880328007383,0.04261416024317785,0.006985424258476432
0.1512931,0.00986370161213352,0.013870634457241316,0.04784779779860873,0.024207981255421222,0.012388988917184011,0.042291929858679786,0.007009532134300843
0.1517586,0.009894027642989574,0.013730005357716714,0.04690742640290945,0.024328728893636242,0.012465825650425285,0.04196927656032706,0.007034477324898938
0.1522241,0.009924464620268893,0.013590240539548246,0.04597320525410849,0.02444881817845006,0.012543390441636989,0.041646235509568474,0.007060265038356409
0.1526897,0.009955018030687901,0.013451348792961778,0.045045253387843535,0.02456825348483896,0.012621683015473284,0.04132284203627863,0.007086900548689218
0.1531552,0.009985693538508648,0.013313338652494226,0.04412368737918137,0.024687039906475396,0.012700702907155375,0.04099913162580701,0.007114389197706765
0.1536207,0.010016496987790592,0.013176218398065473,0.043208621329499916,0.024805183262533226,0.012780449462367253,0.04067513990603487,0.007142736396836203
0.1540862,0.01004743440461222,0.013039996056164687,0.04230016685428258,0.024922690104168532,0.012860921837228052,0.04035090263445013,0.007171947628907276
0.1545517,0.010078511999261183,0.01290467940115125,0.041398433071820485,0.025039567720667073,0.012942118998340513,0.04002645568524998,0.0072020284498969895
0.1550172,0.010109736168391658,0.012770275956670364,0.04050352659281794,0.025155824145249178,0.013024039722914948,0.03970183503648093,0.007232984490633597
0.1554828,0.010141113497147554,0.012636792997183307,0.03961555151089651,0.025271468160522843,0.013106682598967918,0.03937707675722569,0.007264821458459463
0.1559483,0.010172650761250181,0.012504237549612197,0.03873460939399243,0.0253865093035755,0.013190046025594862,0.039052216994846144,0.007297545138852587
0.1564138,0.0102043549290489,0.012372616395099057,0.0378607992766421,0.025500957870694747,0.013274128213315653,0.038727291962291195,0.007331161397006683
0.1568793,0.010236233163533243,0.01224193607087883,0.03699421765314996,0.02561482492170817,0.013358927184492143,0.03840233792547809,0.007365676179369872
0.1573448,0.010268292824304838,0.012112202872266012,0.03613495847163294,0.025728122283932127,0.01344444077381656,0.03807739119075534,0.007401095515142099
0.1578103,0.010300541469507516,0.011983422854754424,0.03528311312893514,0.025840862555719105,0.013530666628869531,0.037752488092455135,0.007437425517731491
0.1582759,0.010332986857713814,0.011855601836229673,0.03443877046640635,0.025953059109593134,0.01361760221074645,0.03742766498054297,0.007474672386170001
0.1587414,0.01036563694976612,0.011728745399293673,0.03360201676653764,0.02606472609496256,0.013705244794750765,0.037102958208371624,0.007512842406488772
0.1592069,0.010398499910570649,0.011602858893700654,0.03277293575044684,0.026175878440399224,0.01379359147115272,0.03677840412054642,0.00755194195305373
0.1596724,0.010431584110842433,0.011477947438903947,0.031951608576206714,0.026286531855473003,0.013882639146011962,0.03645403904090847,0.007591977489861996
0.1601379,0.010464898128799487,0.011354015926712795,0.031138113838007943,0.02639670283213056,0.013972384542062413,0.036129899260642084,0.007632955571799728
0.1606034,0.01049845075180432,0.011231069024058293,0.030332527566149174,0.026506408645607066,0.014062824199657762,0.03580602102651247,0.007674882845862041
0.161069,0.010532250977950929,0.011109111175867542,0.029534923227845837,0.02661566735485962,0.014153954477775801,0.035482440529239365,0.007717766052335695
0.1615345,0.010566308017595416,0.010988146608044999,0.028745371728849348,0.026724497802511033,0.014245771555079847,0.03515919389201192,0.0077616120259451585
0.162,0.010600631294828331,0.010868179330559894,0.02796394141586798,0.02683291961429272,0.014338271431035391,0.03483631715915004,0.007806427696962704
0.1624655,0.010635230448886807,0.010749213140638524,0.027190698079780664,0.026940953197975268,0.01443144992708005,0.034513846284916876,0.0078522200922831
0.162931,0.010670115335504512,0.010631251626060144,0.026425704959634606,0.02704861974177535,0.014525302687844799,0.034191817122487034,0.007898996336463475
0.1633966,0.010705296028197413,0.010514298168555166,0.025669022747417607,0.027155941212227575,0.01461982518242435,0.03387026541307473,0.007946763652728894
0.1638621,0.010740782819483288,0.010398355947304247,0.02492070959359565,0.027262940351509873,0.014715012705694506,0.03354922677522608,0.007995529363944142
0.1643276,0.010776586222032907,0.010283427942536871,0.02418082111340636,0.027369640674211042,0.014810860379674143,0.03322873669427937,0.008045300893552234
0.1647931,0.01081271696975071,0.01016951693922801,0.023449410393898657,0.027476066463529604,0.014907363154929477,0.032908830511997084,0.008096085766480122
0.1652586,0.010849186018782764,0.010056625530891348,0.022726528001708914,0.027582242766893666,0.01500451581201811,0.03258954341637308,0.008147891610012049
0.1657241,0.010886004548449723,0.009944756123467615,0.022012221991563705,0.027688195390992657,0.015102312962970314,0.032270910431618394,0.008200726154630966
0.1661897,0.010923183962102461,0.00983391093930647,0.02130653791549923,0.027793950896213462,0.015200749052805032,0.03195296640832861,0.008254597234828352
0.1666552,0.010960735887897971,0.009724092021240341,0.020609518832787242,0.027899536590475067,0.015299818361078037,0.03163574601383583,0.008309512789882761
0.1671207,0.010998672179493059,0.009615301236748535,0.019921205320557262,0.028004980522457732,0.015399515003459758,0.03131928372274777,0.008365480864607337
0.1675862,0.011037004916653291,0.009507540282209891,0.019241635485104682,0.02811031147422425,0.015499832933340351,0.03100361380767658,0.008422509610066534
0.1680517,0.011075746405774647,0.009400810687242158,0.018570844973874297,0.02821555895323206,0.015600765943459527,0.030688770330159643,0.008480607284262275
0.1685172,0.011114909180315234,0.009295113819126264,0.01790886698810865,0.028320753183735937,0.01570230766755868,0.030374787131774512,0.008539782252789757
0.1689828,0.011154506001134346,0.009190450887313526,0.017255732296150406,0.02842592509758122,0.01580445158205282,0.030061697825450196,0.00860004298946312
0.1694483,0.011194549856736133,0.009086822948013827,0.01661146924738791,0.028531106324388135,0.01590719100771985,0.029749535786976682,0.008661398076911176
0.1699138,0.011235053963415068,0.008984230908862724,0.015976103786832854,0.02863632918112795,0.01601051911140477,0.02943833414671464,0.008723856207143362
0.1703793,0.011276031765300357,0.008882675533665365,0.015349659470318947,0.028741626661092264,0.01611442890773633,0.029128125781507058,0.008787426182085955
0.1708448,0.011317496934296586,0.008782157447215014,0.014732157480310188,0.028847032422257612,0.016218913260853673,0.02881894330679441,0.008852116914088614
0.1713103,0.011359463369918037,0.008682677140183979,0.01412361664230739,0.028952580775048815,0.016323964886140473,0.028510819068934826,0.008917937426401202
0.1717759,0.011401945199014258,0.008584234974084656,0.01352405344184133,0.029058306669505776,0.016429576351963873,0.02820378513773063,0.008984896853620751
0.1722414,0.01144495677538481,0.008486831186298388,0.012933482042040893,0.029164245681860258,0.016535740081415545,0.027897873299162292,0.009053004442108404
0.1727069,0.011488512679281151,0.008390465895169792,0.012351914301764418,0.029270434000531014,0.016642448354052205,0.027593115048330848,0.009122269550376094
0.1731724,0.01153262771679387,0.008295139105164197,0.011779359794282372,0.029376908411547525,0.01674969330763299,0.0272895415826095,0.009192701649442636
0.1736379,0.01157731691912335,0.008200850712085796,0.011215825826499385,0.029483706283414637,0.016857466939851334,0.026987183795004973,0.009264310323158846
0.1741034,0.01162259554173226,0.008107600508354075,0.01066131745870357,0.029590865551431866,0.016965761110059235,0.026686072267728924,0.009337105268501266
0.174569,0.01166847906337822,0.008015388188336057,0.010115837524831018,0.029698424701482627,0.01707456754098207,0.026386237265979617,0.009411096295833952
0.1750345,0.011714983185025223,0.007924213353731804,0.009579386653233237,0.02980642275330929,0.017183877820422203,0.026087708731933782,0.009486293329137772
0.1755,0.011762123828632537,0.00783407551901066,0.009051963287935347,0.02991489924329072,0.017293683402949712,0.025790516278948544,0.009562706406206559
0.1759655,0.011809917135820034,0.007744974116895633,0.00853356371037274,0.030023894206739052,0.0174039756115786,0.025494689185973026,0.009640345678809439
0.176431,0.011858379466409021,0.007656908503893375,0.008024182061593922,0.030133448159732665,0.017514745639426742,0.02520025639216925,0.009719221412818698
0.1768966,0.011907527396838008,0.007569877965867247,0.007523810364917171,0.030243602080502124,0.01762598455135792,0.024907246491741714,0.00979934398830242
0.1773621,0.01195737771845304,0.007483881723650979,0.007032438549028656,0.030354397390385757,0.017737683285604235,0.024615687728974864,0.009880723899581207
0.1778276,0.012007947435672546,0.007398918938700495,0.006550054471509573,0.030465875934371448,0.017849832655367243,0.02432560799347762,0.009963371755248215
0.1782931,0.012059253764026853,0.007314988718781491,0.006076643942779791,0.03057807996124085,0.01796242335039613,0.024037034815633778,0.010047298278151753
0.1787586,0.01211131412807274,0.007232090123690426,0.005612190750445484,0.030691052103332173,0.018075445938541445,0.02374999536225703,0.010132514305339624
0.1792241,0.012164146159183507,0.007150222171006587,0.005156676684038162,0.0308048353559374,0.01818889086728291,0.023464516432449175,0.010219030787964442
0.1796897,0.012217767693215283,0.007069383841872936,0.004710081560132498,0.03091947305634964,0.01830274846523012,0.023180624453659995,0.010306858791149093
0.1801552,0.012272196768050612,0.006989574086803474,0.004272383247830334,0.0310350088625763,0.018417008943594985,0.0228983454779471,0.010396009493811557
0.1806207,0.012327451621020861,0.00691079183151489,0.003843557694598288,0.031151486731733607,0.018531662397635,0.02261770517843397,0.010486494188448355
0.1810862,0.012383550686209398,0.006833035982780267,0.0034235789524464455,0.031268950898138005,0.018646698808066332,0.02233872884596435,0.01057832428087587
0.1815517,0.012440512591637923,0.0067563054343026405,0.003012419204435649,0.03138744585111009,0.01876210804244603,0.02206144138595099,0.010671511289928954
0.1820172,0.012498356156338495,0.006680599072606186,0.0026100487915010143,0.03150701631250665,0.018877879856522683,0.021785867315416794,0.010766066847116246
0.1824828,0.012557100387313941,0.006605915782942838,0.002216436239579378,0.031627707213996555,0.018994003895555292,0.02151203076022618,0.010862002696231745
0.1829483,0.012616764476389387,0.00653225445521203,0.0018315482870284907,0.031749563674096246,0.019110469695600204,0.02123995545250463,0.01095933069292223
0.1834138,0.012677367796957665,0.006459613989891316,0.0014553499123258558,0.031872630974980595,0.019227266684766188,0.020969664728244082,0.011058062804210223
0.1838793,0.012738929900621405,0.006387993303975494,0.001087804362035221,0.03199695453908506,0.019344384184437798,0.020701181525091917,0.011158211107972105
0.1843448,0.012801470513734672,0.006317391336921898,0.0007288731790288111,0.0321225799055151,0.01946181141046725,0.0204345283803212,0.011259787792370994
0.1848103,0.012865009533847139,0.00624780705659948,0.0003785162309534829,0.03224955270627872,0.01957953747433525,0.020169727428979708,0.011362805155243936
0.1852759,0.012929567026053863,0.006179239465239316,3.6691738929067726e-05,0.03237791864235838,0.01969755138428147,0.019906800402215288,0.011467275603442897
0.1857414,0.012995163219253723,0.006111687605384182,-0.0002966436935327501,0.0325077234596383,0.019815842046405643,0.019645768625774943,0.011573211652128938
0.1862069,0.013061818502319652,0.006045150565834877,-0.0006215350514006031,0.03263901292470331,0.019934398265740658,0.019386653018675152,0.011680625924018861
0.1866724,0.013129553420183855,0.005979627487591005,-0.0009380288787981856,0.03277183280052534,0.020053208747299166,0.01912947409204076,0.011789531148583587
0.1871379,0.013198388669841332,0.005915117569783938,-0.0012461732494930527,0.032906228822053823,0.02017226209709554,0.018874251948109887,0.011899940161197341
0.1876034,0.013268345096275115,0.005851620075599738,-0.0015460177372109167,0.03304224667172602,0.020291546823144924,0.018621006279402264,0.012011865902236716
0.188069,0.013339443688306897,0.005789134338189856,-0.0018376133857868609,0.0331799319549134,0.020411051336441433,0.0183697563680485,0.012125321416128529
0.1885345,0.013411705574376818,0.0057276597665674445,-0.0021210126791648535,0.033319330175320135,0.02053076395191751,0.018120521085277765,0.012240319850345453
0.189,0.013485152018256261,0.005667195851487174,-0.0023962695112569256,0.03346048671034945,0.020650672889386525,0.017873318891061286,0.01235687445434832
0.1894655,0.013559804414697599,0.005607742171306466,-0.002663439155673318,0.03360344678645389,0.02077076627447065,0.017628167833908963,0.012474998578474027
0.189931,0.013635684285024815,0.005549298397826071,-0.0029225782353348552,0.03374825545448503,0.02089103213951609,0.017385085550816342,0.012594705672768157
0.1903966,0.013712813272668935,0.005491864302107911,-0.0031737446919787287,0.03389495756505814,0.021011458424497705,0.01714408926735916,0.01271600928576135
0.1908621,0.013791213138652164,0.005435439760268096,-0.003416997755568776,0.03404359774394725,0.02113203297791519,0.01690519579793255,0.01283892306318863
0.1913276,0.013870905757024585,0.005380024759243001,-0.0036523979136212454,0.03419422036752567,0.021252743557682967,0.016668421546132083,0.012963460746650907
0.1917931,0.013951913110257322,0.005325619402526252,-0.0038800068804569154,0.034346869538267,0.021373577832016155,0.01643378250527381,0.01308963617221797
0.1922586,0.014034257284596048,0.005272223915874509,-0.0040998875663903174,0.03450158906032145,0.021494523380315045,0.01620129425905064,0.013217463268972164
0.1927241,0.014117960465378651,0.005219838652979858,-0.004312104046866676,0.0346584224151817,0.021615567694050774,0.015970971982322345,0.01334695605749201
0.1931897,0.014203044932320934,0.005168464101106705,-0.004516721531557047,0.03481741273745303,0.021736698177654976,0.01574283044203676,0.013478128648274896
0.1936552,0.014289533054774105,0.005118100886691041,-0.004713806333421989,0.034978602790741394,0.021857902149416217,0.015516883998279713,0.013610995240097871
0.1941207,0.014377447286957824,0.005068749780899931,-0.004903425837753954,0.035142034943673676,0.021979166842386155,0.015293146605451419,0.013745570118315665
0.1945862,0.014466810163172415,0.005020411705149116,-0.005085648471208411,0.0353077511460634,0.022100479405298506,0.015071631813567127,0.013881867653094971
0.1950517,0.014557644292993797,0.004973087736576659,-0.0052605436708335375,0.03547579290523548,0.022221826903504084,0.01485235276967991,0.014019902297584033
0.1955172,0.01464997235645452,0.004926779113470549,-0.005428181853108166,0.03564620126252296,0.0223431963199254,0.014635322219423543,0.014159688586016518
0.1959828,0.014743817099214249,0.004881487240648267,-0.00558863438299746,0.03581901676994875,0.022464574556034497,0.014420552508673454,0.014301241131748611
0.1964483,0.014839201327722953,0.004837213694786333,-0.005741973543035621,0.03599427946710502,0.022585948432857727,0.014208055585323788,0.014444574625228211
0.1969138,0.01493614790437994,0.004793960229697901,-0.005888272502444757,0.03617202885824249,0.022707304692011352,0.013997843001178664,0.014589703831895045
0.1973793,0.015034679742691865,0.004751728781556505,-0.006027605286298839,0.03635230388958199,0.02282862999677182,0.013789925913955685,0.014736643590010439
0.1978448,0.015134819802432775,0.004710521474064093,-0.006160046744741553,0.03653514292685989,0.022949910933184468,0.01358431508939975,0.014885408808415494
0.1983103,0.01523659108480922,0.004670340623561493,-0.006285672522266691,0.03672058373311918,0.023071134011214245,0.013381020903505243,0.015036014464216279
0.1987759,0.015340016627633372,0.004631188744079446,-0.006404559027069576,0.036908663446757355,0.02319228566594201,0.013180053344844588,0.015188475600394664
0.1992414,0.01544511950050719,0.0045930685523283684,-0.006516783400477934,0.037099418559842175,0.02331335225880962,0.012981422017001112,0.015342807323343309
0.1997069,0.01555192280002052,0.004555982972624922,-0.006622423486470467,0.03729288489670585,0.023434320078916968,0.012785136141104108,0.015499024800323304
0.2001724,0.01566044964496613,0.0045199351417535266,-0.00672155780129133,0.037489097592828056,0.023555175344374,0.012591204558463895,0.015657143256842903
0.2006379,0.015770723171574602,0.004484928413760907,-0.006814265503168581,0.03768809107401791,0.023675904203710543,0.012399635733304545,0.015817177973955744
0.2011034,0.015882766528772067,0.004450966364681747,-0.00690062636214461,0.037889899035904395,0.023796492737346776,0.012210437755591963,0.015979144285476924
0.201569,0.015996602873463675,0.004418052797193553,-0.006980720730026472,0.038094554423744806,0.02391692695912699,0.012023618343954896,0.016143057575115267
0.2020345,0.01611225536584578,0.004386191745198777,-0.007054629510463973,0.03830208941256023,0.02403719281791926,0.011839184848696406,0.016308933273520006
0.2025,0.016229747164749696,0.004355387478332261,-0.0071224341291633,0.03851253538760669,0.024157276199283782,0.011657144254893401,0.01647678685524009
0.2029655,0.016349101423019926,0.004325644506392051,-0.007184216504243876,0.03872592292519055,0.02427716292721265,0.011477503185581703,0.016646633835594234
0.203431,0.016470341282929648,0.004296967583691644,-0.007240059016746053,0.03894228177383602,0.024396838765943812,0.011300267905024195,0.016818489767449943
0.2038966,0.01659348987163625,0.004269361713331719,-0.007290044481297182,0.039161640835812646,0.024516289421852137,0.011125444322059657,0.01699237023790983
0.2043621,0.01671857029667955,0.004242832151389437,-0.007334256116943496,0.03938402814903023,0.024635500545420293,0.0109530379935298,0.017168290864903478
0.2048276,0.016845605641525322,0.004217384411023447,-0.007372777518155152,0.03960947086930809,0.024754457733292174,0.01078305412778217,0.017346267293683257
0.2052931,0.016974618961156505,0.004193024266492773,-0.007405692626011684,0.03983799525302584,0.024873146530411415,0.010615497588246493,0.01752631519322236
0.2057586,0.017105633277714482,0.004169757757087788,-0.007433085699575036,0.04006962664016206,0.024991552432247332,0.010450372897082155,0.017708450252513205
0.2062241,0.017238671576192598,0.004147591190971605,-0.007455041287457241,0.04030438943772785,0.025109660887110506,0.010287684238894475,0.017892688176764333
0.2066897,0.01737375680018403,0.0041265311489302355,-0.007471644199589703,0.04054230710360178,0.025227457298559977,0.010127435464517488,0.018079044683493795
0.2071552,0.017510911847685908,0.004106584488029994,-0.00748297947920091,0.040783402130773354,0.025344927027903866,0.009969630094860899,0.018267535498517007
0.2076207,0.017650159566961494,0.0040877583451806795,-0.007489132375009339,0.04102769603200191,0.025462055396795018,0.009814271324818937,0.018458176351827036
0.2080862,0.017791522752462142,0.004070060140603177,-0.007490188313638149,0.04127520932489808,0.025578827689923016,0.009661362027238746,0.018650982973365465
0.2085517,0.017935024140810555,0.004053497581200161,-0.00748623287225818,0.041525961517434505,0.025695229157803808,0.009510904756945958,0.018845971088682235
0.2090172,0.01808068640684678,0.004038078663828641,-0.00747735175146562,0.04177997109389267,0.02581124501966779,0.009362901754825024,0.01904315641448325
0.2094828,0.018228532159738273,0.0040238116784731244,-0.0074636307484006415,0.042037255501252244,0.025926860466447196,0.009217354951951763,0.0192425546540649
0.2099483,0.018378583939155247,0.0040107052113181755,-0.007445155730113126,0.04229783113602927,0.02604206066386325,0.009074265973775596,0.019444181492635118
0.2104138,0.018530864211512378,0.003998768147719167,-0.007422012607181523,0.04256171333156934,0.026156830755613515,0.008933636144348786,0.019648052592520535
0.2108793,0.018685395366277963,0.003988009675069997,-0.007394287307590728,0.0428289163458015,0.026271155866659575,0.008795466490599951,0.01985418358825963
0.2113448,0.01884219971235133,0.003978439285566526,-0.007362065750874774,0.04309945334945855,0.026385021106615093,0.008659757746649092,0.020062590081581524
0.2118103,0.019001299474509358,0.0039700667788645,-0.007325433822529973,0.043373336414768884,0.026498411573233988,0.008526510358161273,0.02027328763627028
0.2122759,0.01916271678992273,0.003962902264630696,-0.007284477348704009,0.043650576504624956,0.026611312355998305,0.008395724486736037,0.020486291772914358
0.2127414,0.019326473704742567,0.003956956164986044,-0.0072392820711663156,0.04393118346223298,0.02672370853980515,0.00826740001432959,0.0207016179635408
0.2132069,0.01949259217075782,0.0039522392168395174,-0.007189933622564919,0.044215166001248744,0.026835585208751834,0.008141536547706763,0.020919281626133792
0.2136724,0.019661094042123895,0.003948762474111589,-0.0071365175019747155,0.044502531696404043,0.02694692745001813,0.008018133422919693,0.02113929811903705
0.2141379,0.019832001072162674,0.003946537309846126,-0.007079119050741996,0.0447932869746282,0.02705772035784441,0.007897189709810215,0.021361682735239817
0.2146034,0.020005334910234134,0.003945575418209626,-0.00701782342862985,0.04508743710666906,0.027167949037604302,0.007778704216532871,0.02158645069654619
0.215069,0.020181117098679625,0.003945888816376757,-0.00695271559026896,0.04538498619921759,0.027277598609970193,0.007662675494095504,0.02181361714762793
0.2155345,0.02035936906983673,0.003947489846301233,-0.00688388026191814,0.04568593718753989,0.02738665421516996,0.00754910184091436,0.022043197149961235
0.216,0.020540112143125566,0.003950391176371123,-0.006811401918538874,0.04599029182861994,0.027495101017332987,0.007437981307380679,0.02227520567564821
0.2164655,0.020723367522206288,0.003954605802947738,-0.0067353647611880256,0.0462980506948162,0.02760292420892342,0.007329311700435738,0.022509657601124472
0.216931,0.020909156292207336,0.003960147051787322,-0.006655852694732802,0.04660921316803497,0.02771010901525871,0.007223090588151305,0.022746567700754564
0.2173966,0.021097499417024,0.003967028579344764,-0.0065729493058919895,0.04692377743442281,0.02781664069911123,0.007119315304312471,0.022985950640317544
0.2178621,0.021288417736686542,0.003975264373958624,-0.006486737841607379,0.04724174047958008,0.027922504565390863,0.007017982952999779,0.023227820970385383
0.2183276,0.021481931964797026,0.003984868756916737,-0.0063973011877492,0.04756309808429763,0.028027685965906195,0.006919090413167534,0.023472193119597144
0.2187931,0.0216780626860339,0.003995856383401726,-0.006304721848159228,0.04788784482081828,0.02813217030420202,0.006822634343215162,0.023719081387832016
0.2192586,0.02187683035372308,0.004008242243315729,-0.006209081924035037,0.048215974049624875,0.028235943040470595,0.006728611185548382,0.02396849993928447
0.2197241,0.022078255287474206,0.004022041661983697,-0.00611046309365868,0.04854747791675641,0.028338989696533996,0.006637017171126983,0.0242204627954449
0.2201897,0.022282357670880614,0.004037270300734646,-0.006008946592472838,0.0488823473516539,0.028441295860894715,0.006547848323995908,0.024474983827989554
0.2206552,0.022489157549281342,0.00405394415736028,-0.005904613193507337,0.04922057206553749,0.028542847193851556,0.006461100465796393,0.02473207675158413
0.2211207,0.02269867482758358,0.004072079566450391,-0.005797543188158716,0.04956214055031614,0.028643629432677654,0.00637676922025385,0.024991755116605962
0.2215862,0.02291092926814378,0.004091693199604558,-0.005687816367325464,0.049907040078031116,0.02874362839685736,0.006294850017639197,0.025254032301790123
0.2220517,0.02312594048870566,0.004112802065519611,-0.005575512002901342,0.050255256700834416,0.028842829993378664,0.006215338099200305,0.025518921506805032
0.2225172,0.0233437279603932,0.004135423509952422,-0.005460708829629019,0.05060677525150316,0.028941220222077572,0.006138228521560224,0.025786435744763376
0.2229828,0.0235643110057568,0.004159575215557544,-0.00534348502731608,0.05096157934449101,0.029038785181030806,0.006063516161078857,0.026056587834674395
0.2234483,0.023787708796870546,0.0041852752015992594,-0.005223918203415146,0.05131965137751739,0.02913551107199304,0.005991195718174749,0.026329390393843806
0.2239138,0.02401394035347849,0.004212541823537586,-0.00510208537596967,0.051680972533694934,0.029231384205874802,0.0059212617216036715,0.026604855830227703
0.2243793,0.024243024541187586,0.004241393772487759,-0.004978062956926709,0.052045522784195684,0.02932639100825711,0.005853708532690785,0.02688299633474691
0.2248448,0.024474980069705027,0.004271850074552723,-0.004851926735817834,0.05241328089145609,0.029420518024938988,0.005788530349513198,0.0271638238735682
0.2253103,0.024709825491117346,0.004303930090028195,-0.0047237518638091796,0.052784224412920404,0.029513751927514233,0.005725721211029873,0.027447350180359015
0.2257759,0.024947579198208756,0.0043376535124798376,-0.004593612838121541,0.05315832970532204,0.02960607951897406,0.005665275001155987,0.02773358674852245
0.2262414,0.02518825942281599,0.004373040367692125,-0.004461583486821336,0.0535355719295018,0.0296974877393325,0.0056071854527789886,0.028022544823419596
0.2267069,0.025431884234216776,0.004410111012488488,-0.004327736953983171,0.053915925055761434,0.029787963671271844,0.005551446151713777,0.028314235394586485
0.2271724,0.025678471537548837,0.004448886133422351,-0.004192145685224701,0.05429936186975082,0.02987749454580557,0.005498050540594602,0.028608669187953416
0.2276379,0.025928039072256243,0.004489386745338687,-0.004054881413614399,0.05468585397888632,0.029966067747956574,0.005446991922701519,0.028905856658074342
0.2281034,0.026180604410559683,0.00453163418980575,-0.003916015145952796,0.0550753718192977,0.03005367082244872,0.005398263465719295,0.029205807980374206
0.228569,0.02643618495594706,0.004575650133416671,-0.0037756171494277243,0.055467884663300396,0.030140291479410147,0.005351858205426864,0.029508533043421974
0.2290345,0.02669479794168069,0.004621456565960641,-0.003633756938644012,0.055863360627389745,0.030225917600087186,0.00530776904931545,0.02981404144123704
0.2295,0.026956460429317285,0.004669075798463428,-0.0034905032630280714,0.056261766680753056,0.030310537242567857,0.005265988780133512,0.0301223424656364
0.2299655,0.02722118930723669,0.00471853046109701,-0.003345924094607759,0.05666306865429569,0.030394138647514286,0.005226510059356736,0.03043344509862993
0.230431,0.02748900128917532,0.00476984350095814,-0.0032000866161678377,0.05706723125017643,0.03047671024390345,0.005189325430581384,0.0307473580048707
0.2308966,0.027759912912759945,0.004823038179715674,-0.003053057209781322,0.05747421805184749,0.030558240654775696,0.005154427322839402,0.03106408952416718
0.2313621,0.02803394053803733,0.004878138071126513,-0.0029049014457169183,0.05788399153459416,0.03063871870299042,0.00512180805383386,0.03138364766406399
0.2318276,0.02831110034599506,0.004935167058420044,-0.002755684071722691,0.058296513076568836,0.030718133416988425,0.005091459833093409,0.031706040092497605
0.2322931,0.028591408337068736,0.00499414933155096,-0.0026054690026859973,0.05871174297031368,0.03079647403656009,0.005063374765044624,0.032031274130533194
0.2327586,0.02887488032963075,0.005055109384320375,-0.002454319310669622,0.05912964043476614,0.030873730018618626,0.005037544852001241,0.03235935674518858
0.2332241,0.029161531958456034,0.005118072011365102,-0.0023022972153239414,0.05955016362774081,0.03094989104297751,0.005013961997069461,0.032690294542351034
0.2336897,0.029451378673160403,0.005183062305014989,-0.002149464074674816,0.05997326965888104,0.031024947018130994,0.0049926180069686495,0.03302409375979234
0.2341552,0.029744435736607396,0.00525010565201816,-0.0019958803762867967,0.06039891460307289,0.03109888808703658,0.004973504594766916,0.033360760260287455
0.2346207,0.030040718223279823,0.005319227730133981,-0.001841605728801095,0.06082705351431374,0.031171704632898048,0.0049566133825311685,0.03370029952484162
0.2350862,0.030340241017612367,0.005390454504593608,-0.0016866988538476323,0.06125764044002772,0.03124338728494751,0.00494193590389136,0.03404271664603068
0.2355517,0.03064301881228153,0.005463812224427884,-0.0015312175783303327,0.06169062843581885,0.03131392692422478,0.004929463606518777,0.03438801632145929
0.2360172,0.03094906610644925,0.005539327418662464,-0.0013752188270846856,0.062125969580653036,0.031383314689352126,0.004919187854518334,0.03473620284734112
0.2364828,0.031258397203956345,0.005617026892380012,-0.00121875861590643,0.06256361499245905,0.03145154198230215,0.004911099930734948,0.0350872801122052
0.2369483,0.031571026211462065,0.005696937722649364,-0.0010618920449500763,0.06300351484413852,0.03151860047415636,0.004905191038974202,0.03544125159073216
0.2374138,0.031886967036525875,0.00577908725432158,-0.0009046732924958248,0.063445618379974,0.03158448211085185,0.004901452306137577,0.03579812033772397
0.2378793,0.0322062333856278,0.005863503095692836,-0.0007471556090832935,0.06388987393242414,0.031649179118913295,0.004899874784272592,0.03615788898221062
0.2383448,0.03252883876212371,0.005950213114034159,-0.0005893913120103301,0.06433622893929393,0.031712684011167454,0.004900449452538213,0.03652055972169674
0.2388103,0.032854796464131905,0.00603924543098801,-0.00043143178019505084,0.06478462996126814,0.031774989592437394,0.004903167219085856,0.036886134316551245
0.2392759,0.03318411958234779,0.00613062841783175,-0.0002733274493991223,0.06523502269979489,0.031836088965213366,0.004908018922856339,0.03725461408454253
0.2397414,0.03351682099778342,0.006224390690608042,-0.00011512780781019074,0.06568735201530605,0.031895975535297445,0.004914995335293069,0.03762599989552188
0.2402069,0.03385291337942904,0.0063205611051222865,4.311860801873622e-05,0.06614156194576093,0.03195464301741876,0.0049240871619717665,0.03800029216625719
0.2406724,0.03419240918183392,0.006419168751807135,0.0002013642168752413,0.06659759572549875,0.032012085440816226,0.004935285044147057,0.03837749085541937
0.2411379,0.034535320642603715,0.006520242950454173,0.0003595623962411531,0.06705539580438548,0.03206829715478538,0.004948579560216208,0.03875759545872346
0.2416034,0.034881659779811704,0.0066238132448128125,0.0005176674852963505,0.06751490386723992,0.03212327283418572,0.00496396122710038,0.03914060500422679
0.242069,0.03523143838932109,0.00672990939705641,0.0006756347875752321,0.06797606085352383,0.032177007484904936,0.004981420501543728,0.03952651804778613
0.2425345,0.035584668042015585,0.006838561382115588,0.0008334205732784315,0.06843880697728044,0.032229496449276,0.00500094778133074,0.03991533266867609
0.243,0.03594136008093557,0.006949799381878693,0.0009909820812424193,0.06890308174730543,0.032280735411443086,0.0050225334064221885,0.04030704646537068
0.2434655,0.03630152561831722,0.0070636537792593155,0.0011482775205696846,0.06936882398753413,0.03233072040267187,0.005046167660010057,0.04070165655148985
0.243931,0.03666517553253208,0.00718015515213077,0.0013052660719222434,0.06983597185762838,0.03237944780659984,0.005071840769491796,0.041099159551912665
0.2443966,0.03703232046492489,0.007299334267127427,0.0014619078884812824,0.07030446287374606,0.032426914364422,0.0050995429073642275,0.041499551599058576
0.2448621,0.03740297081654755,0.007421222073312784,0.0016181640965758387,0.07077423392947625,0.03247311718000719,0.0051292641920373545,0.041902828329337956
0.2453276,0.03777713674478756,0.0075458496957141515,0.001773996795983538,0.07124522131692265,0.032518053724940245,0.005160994688568335,0.04230898487977289
0.2457931,0.0381548281598891,0.007673248428723797,0.0019293690599065448,0.07171736074791808,0.03256172184348509,0.0051947244093157995,0.04271801588478884
0.2462586,0.038536054721365426,0.007803449729366353,0.00208424493462602,0.07219058737535325,0.03260411975746386,0.005230443314514693,0.043129915473177634
0.2467241,0.03892082583430134,0.007936485210432333,0.0022385894388385094,0.07266483581460294,0.03264524607104667,0.005268141312771767,0.04354467726523162
0.2471897,0.039309150645544244,0.008072386633477577,0.002392368562677806,0.07314004016503323,0.03268509977544673,0.0053078082614818325,0.04396229437004879
0.2476552,0.039701038039782616,0.008211185901688588,0.0025455492664259367,0.07361613403157326,0.03272368025351521,0.005349433967164881,0.0443827593830082
0.2481207,0.04009649663551059,0.008352915052613812,0.002698099478917025,0.07409305054633591,0.03276098728423022,0.005393008185724168,0.04480606438341485
0.2485862,0.04049553478087752,0.008497606250761144,0.0028499880956378686,0.0745707223902721,0.032797021047074354,0.00543852062262537,0.0452322009323131
0.2490517,0.04089816054942164,0.008645291780062089,0.0030011849765291406,0.07504908181484443,0.032831782126295346,0.0054859609329969495,0.04566116007046783
0.2495172,0.041304381735686894,0.00879600403620323,0.003151660943491186,0.07552806066370685,0.03286527151504485,0.005535318721651897,0.04609293231651219
0.2499828,0.04171420585072226,0.008949775518825783,0.003301387777598444,0.07600759039437684,0.03289749061939031,0.0055865835430310455,0.04652750766526138
0.2504483,0.042127640117462783,0.009106638823594203,0.0034503382160265455,0.07648760209988731,0.03292844126219532,0.00563974490106816,0.046964875586191515
0.2509138,0.04254469146599193,0.009266626634134812,0.0035984859486961614,0.07696802653040483,0.032958125686863696,0.005694792248977084,0.04740502502208238
0.2513793,0.04296536652868503,0.009429771713845599,0.0037458056146377028,0.07744879411480035,0.032986546560943346,0.005751714988961244,0.04784794438782317
0.2518448,0.04338967163523412,0.009596106897578326,0.0038922727980809403,0.07792983498215879,0.033013706979586124,0.005810502471845856,0.04829362156937957
0.2523103,0.04381761280755486,0.009765665083194128,0.00403786402427362,0.07841107898321384,0.033039610468861134,0.005871143996633288,0.048742043922920655
0.2527759,0.04424919575457686,0.009938479222993821,0.0041825567550331216,0.07889245571169551,0.033064260988919666,0.005933628809981993,0.04919319827410399
0.2532414,0.044684425866918585,0.010114582315024148,0.004326329384035189,0.07937389452557915,0.03308766293701063,0.005997946105609476,0.04964707091751712
0.2537069,0.045123308211448554,0.01029400739426116,0.0044691612318437345,0.07985532456822612,0.033109821150346046,0.006064085023619775,0.05010364761627369
0.2541724,0.045565847525734296,0.010476787523671965,0.004611032540685696,0.08033667478940781,0.0331307409088163,0.0061320346497559875,0.05056291360176218
0.2546379,0.046012048212380766,0.010662955785156025,0.004751924468974937,0.08081787396620561,0.033150427937555196,0.006201784014578411,0.05102485357354504
0.2551034,0.04646191433325968,0.010852545270367284,0.004891819085589131,0.08129885072378,0.033168888409354856,0.006273322092569,0.05148945169940565
0.255569,0.046915449603631955,0.011045589071418453,0.005030699363903589,0.08177953355600177,0.033186128946930585,0.006346637801162911,0.05195669161554056
0.2560345,0.047372657386165376,0.011242120271468868,0.005168549175585988,0.0822598508459391,0.03320215662503598,0.006421719999708022,0.0524265564268941
0.2565,0.04783354068484995,0.01144217193519748,0.005305353284155904,0.08273973088619364,0.03321697897242847,0.006498557488353434,0.052899028707632426
0.2569655,0.04829810213881373,0.011645777099162645,0.005441097338313071,0.083219101899079,0.0332306039736857,0.006577139006868041,0.053374090501754685
0.257431,0.048766344016042316,0.011852968762050501,0.005575767865038275,0.0836978920566346,0.033243040070873205,0.006657453233390331,0.05385172332383945
0.2578966,0.04923826820700584,0.01206377987481381,0.005709352262470748,0.08417602950046735,0.0332542961650643,0.006739488783110679,0.05433190815992536
0.2583621,0.04971387621819791,0.012278243330703204,0.005841838792565905,0.08465344236141314,0.033264381617712765,0.00682323420688736,0.054814625468525266
0.2588276,0.05019316916559215,0.012496391955192714,0.005973216573537221,0.08513005877901031,0.033273306251879325,0.006908677989797598,0.05529985518177325
0.2592931,0.050676147768022206,0.012718258495801514,0.006103475572086023,0.0856058069207771,0.033281080353312516,0.0069958085496249585,0.055787576706703784
0.2597586,0.05116281234049198,0.012943875611813751,0.006232606595422907,0.08608061500128618,0.03328771467138452,0.007084614235284422,0.056277768926661906
0.2602241,0.051653162787422595,0.013173275863898333,0.00636060128308447,0.08655441130102963,0.03329322041988242,0.00717508332518657,0.05677041020284321
0.2606897,0.052147198595843124,0.013406491703630605,0.006487452098549022,0.08702712418506937,0.03329760927765523,0.007267204025542428,0.057265478375962214
0.2611552,0.052644918828531895,0.01364355546291772,0.006613152320654914,0.08749868212146854,0.03330089338911727,0.007360964468610682,0.05776295076804764
0.2616207,0.05314632211711552,0.013884499343329557,0.0067376960348251086,0.08796901369949993,0.03330308536460858,0.007456352710889232,0.05826280418436313
0.2620862,0.05365140665513238,0.014129355405336892,0.006861078124101587,0.08843804764762903,0.0333041982806135,0.007553356731253235,0.0587650149154517
0.2625517,0.054160170191067586,0.014378155557458533,0.006983294259993232,0.08890571285126907,0.03330424567983834,0.007651964429041994,0.05926955873930256
0.2630172,0.054672610021366176,0.014630931545318979,0.007104340893140819,0.0893719383703057,0.033303241571149333,0.007752163622097284,0.05977641092363903
0.2634828,0.05518872298343128,0.014887714940618201,0.007224215243802759,0.08983665345638908,0.033301200429371854,0.007853942044755839,0.06028554622832671
0.2639483,0.05570850544861389,0.015148537130014994,0.007342915292165286,0.09029978756999049,0.033298137194951824,0.007957287345798853,0.06079693890790142
0.2644138,0.0562319533152006,0.015413429303925339,0.007460439768480763,0.09076127039722046,0.03329406727348015,0.00806218708636141,0.06131056271421655
0.2648793,0.05675906200140585,0.015682422445237206,0.007576788143037863,0.09122103186640501,0.03328900653508082,0.008168628737804771,0.06182639089920951
0.2653448,0.05728982643837475,0.01595554731794318,0.007691960615967402,0.09167900216441606,0.033282971313662986,0.008276599679554495,0.062344396217786834
0.2658103,0.05782424106320335,0.01623283445569241,0.007805958106887648,0.09213511175275128,0.0332759784060373,0.008386087196907312,0.06286455093082718
0.2662759,0.0583622998119831,0.016514314150263446,0.007918782244392944,0.09258929138335892,0.03326804507089646,0.00849707847880974,0.06338682680830122
0.2667414,0.05890399611287711,0.016800016439959695,0.008030435355389566,0.09304147211420226,0.03325918902765987,0.00860956061561147,0.06391119513250743
0.2672069,0.05944932287923592,0.017089971097929365,0.008140920454282745,0.09349158532455874,0.033249428455182285,0.008723520596796538,0.06443762670142283
0.2676724,0.059998272502760956,0.01738420762041191,0.008250241232018852,0.09393956273004835,0.03323878199032619,0.008838945308695367,0.06496609183216807
0.2681379,0.060550836846723875,0.017682755214913023,0.008358402044986762,0.09438533639738625,0.033227268726397766,0.008955821532180734,0.06549656036458638
0.2686034,0.06110700723924979,0.01798564278831026,0.008465407903782446,0.09482883875885464,0.03321490821144597,0.009074135940350668,0.06602900166493675
0.269069,0.06166677446667282,0.018292898934891447,0.008571264461840903,0.09527000262648867,0.033201720446424395,0.00919387509620124,0.06656338462970128
0.2695345,0.062230128766972155,0.01860455192432785,0.008675978003939513,0.09570876120597202,0.03318772588321497,0.009315025450292206,0.0670996776895071
0.27,0.06279705982329692,0.018920629689584155,0.008779555434576973,0.09614504811023801,0.03317294542251255,0.009437573338408386,0.06763784881316294
0.2704655,0.0633675567575882,0.019241159814767275,0.008882004266231956,0.09657879737277196,0.033157400411569164,0.009561504979219707,0.06817786551181002
0.270931,0.06394160812430663,0.019566169522916132,0.00898333260750566,0.09700994346061069,0.03314111264179641,0.009686806471942741,0.0687196948431866
0.2713966,0.06451920190427354,0.019895685663734706,0.009083549151152422,0.09743842128703503,0.0331241043462242,0.009813463794006593,0.0692633034160055
0.2718621,0.06510032549863395,0.020229734701270825,0.009182663162002554,0.09786416622395083,0.03310639819681421,0.009941462798725919,0.06980865739444331
0.2723276,0.06568496572294863,0.020568342701543483,0.009280684464781697,0.09828711411395395,0.033088017301626214,0.010070789212983823,0.07035572250274005
0.2727931,0.06627310880142302,0.02091153532012158,0.00937762343183099,0.09870720128207461,0.033068985201835495,0.010201428634927399,0.07090446402990781
0.2732586,0.06686474036128004,0.021259337789657284,0.009473490970732485,0.09912436454719659,0.03304932586860001,0.010333366531678633,0.07145484683454675
0.2737241,0.06745984542728363,0.021611774907377316,0.009568298511844296,0.09953854123314769,0.03302906369977565,0.010466588237063507,0.07200683534976784
0.2741897,0.06805840841642018,0.021968871022535568,0.009662057995750057,0.09994966917945784,0.03300822351647825,0.010601078949362144,0.0725603935882213
0.2746552,0.06866041313274478,0.022330650023830605,0.009754781860627407,0.10035768675178214,0.03298683055949085,0.010736823729082997,0.07311548514723092
0.2751207,0.06926584276240004,0.02269713532679161,0.009846483029540234,0.10076253285198727,0.032964910485515045,0.010873807496764087,0.07367207321403432
0.2755862,0.0698746798688147,0.023068349861136317,0.009937174897659596,0.10116414692790035,0.032942489363265166,0.011012015030804404,0.07423012057112963
0.2760517,0.0704869063880899,0.023444316058104445,0.010026871319418302,0.10156246898272009,0.03291959366940403,0.011151430965328672,0.07478958960172843
0.2765172,0.07110250362458047,0.02382505583777009,0.010115586595604296,0.1019574395840919,0.032896250284319126,0.011292039788088633,0.0753504422953148
0.2769828,0.07172145224667845,0.024210590596336345,0.010203335460398031,0.1023489998728485,0.03287248648773792,0.011433825838404028,0.07591264025330977
0.2774483,0.07234373228280591,0.02460094119341544,0.010290133068359134,0.10273709157141858,0.03284832995418074,0.011576773305146431,0.0764761446948405
0.2779138,0.07296932311762407,0.024996127939297775,0.010375994981367723,0.10312165699190559,0.03282380874824978,0.011720866224768959,0.07704091646261291
0.2783793,0.07359820348846516,0.025396170582213055,0.010460937155525755,0.10350263904383919,0.032798951319752495,0.011866088479384876,0.07760691602888595
0.2788448,0.0742303514819938,0.025801088295586982,0.010544975928023755,0.10387998124160037,0.032773786498657566,0.012012423794898006,0.07817410350154577
0.2793103,0.07486574453110352,0.026210899665296845,0.010628128003978228,0.10425362771152197,0.03274834348988143,0.012159855739187743,0.07874243863027736
0.2797759,0.07550435941205424,0.02662562267692975,0.010710410443245057,0.10462352319866475,0.03272265186790343,0.012308367720351383,0.07931188081283119
0.2802414,0.07614617224185635,0.027045274703047198,0.01079184064721409,0.1049896130732705,0.03269674157120748,0.012457942985006458,0.07988238910138194
0.2807069,0.07679115847590597,0.027469872490460113,0.01087243634559012,0.1053518433368938,0.032670642896548294,0.01260856461665566,0.08045392220897593
0.2811724,0.07743929290587641,0.027899432147518714,0.010952215583165413,0.10571016062821519,0.032644386493040106,0.012760215534116881,0.08102643851606389
0.2816379,0.07809054965787038,0.028333969131422092,0.0110311967065889,0.10606451222853945,0.032618003356066586,0.012912878490020865,0.08159989607711493
0.2821034,0.07874490219083709,0.02877349823555266,0.0111093983511371,0.10641484606698413,0.03259152482101092,0.013066536069378899,0.08217425262730733
0.282569,0.07940232329525802,0.0292180335768409,0.011186839427491787,0.10676111072536243,0.03256498255680536,0.013221170688222874,0.08274946558929128
0.2830345,0.08006278509210488,0.029667588583166035,0.011263539108529345,0.10710325544276594,0.032538408559300215,0.013376764592319993,0.0833254920800179
0.2835,0.08072625903207277,0.03012217598079825,0.011339516816126641,0.10744123011985157,0.032511835144452245,0.013533299855964274,0.08390228891762898
0.2839655,0.08139271589509138,0.030581807781888147,0.011414792207988229,0.10777498532283701,0.03248529494133249,0.013690758380846962,0.08447981262840046
0.284431,0.08206212579011651,0.03104649527200908,0.011489385164499615,0.10810447228720851,0.03245882088495375,0.013849121895007874,0.08505801945373295
0.2848966,0.08273445815520403,0.03151624899775795,0.01156331577561129,0.10842964292114438,0.03243244620891788,0.014008371951869665,0.08563686535718185
0.2853621,0.08340968175786748,0.03199107875442043,0.01163660432775819,0.1087504498086577,0.03240620443788306,0.014168489929356992,0.08621630603151939
0.2858276,0.08408776469572035,0.032470993573706815,0.011709271290819208,0.1090668462124618,0.0323801293798514,0.0143294570291026,0.0867962969058212
0.2862931,0.08476867439740352,0.03295600171156513,0.01178133730512142,0.10937878607656293,0.03235425511827719,0.014491254275742384,0.08737679315256972
0.2867586,0.08545237762379745,0.033446110636078635,0.011852823168493667,0.1096862240285861,0.032328616003996474,0.014653862516301448,0.08795774969476736
0.2872241,0.08613884046951845,0.03394132701545517,0.011923749823374083,0.10998911538184106,0.03230324664697889,0.014817262419673306,0.0885391212130514
0.2876897,0.08682802836469738,0.034441656706116215,0.01199413834397624,0.11028741613713716,0.032278181907903304,0.014981434476194298,0.08912086215280232
0.2881552,0.08751990607703893,0.03494710474089348,0.012064009923518542,0.11058108298435618,0.03225345688955938,0.015146358997315342,0.08970292673123764
0.2886207,0.08821443771415834,0.035457675317341106,0.012133385861521557,0.11087007330379205,0.03222910692807748,0.015312016115373134,0.09028526894448241
0.2890862,0.08891158672619298,0.03597337178617145,0.012202287551177844,0.11115434516726738,0.03220516758399012,0.015478385783462764,0.09086784257460796
0.2895517,0.08961131590868476,0.036494196639822174,0.01227073646679886,0.11143385733903582,0.032181674633127974,0.015645447775413723,0.09145060119663062
0.2900172,0.09031358740572988,0.03702015150116223,0.012338754151343561,0.1117085692764803,0.03215866405735385,0.015813181685871185,0.09203349818546197
0.2904828,0.09101836271339285,0.03755123711234405,0.012406362204033133,0.11197844113061715,0.03213617203513773,0.01598156693048441,0.09261648672280282
0.2909483,0.09172560268338181,0.03808745332380915,0.012473582268056402,0.11224343374641575,0.032114234931976134,0.016150582746204102,0.09319951980397244
0.2914138,0.09243526752698325,0.03862879908345428,0.012540436018370323,0.11250350866294383,0.03209288929065898,0.016320208191690565,0.09378255024466507
0.2918793,0.09314731681925457,0.03917527242596499,0.012606945149599973,0.11275862811334807,0.032072171821387545,0.016490422147834503,0.09436553068762624
0.2923448,0.09386170950347376,0.039726870462323594,0.012673131364042413,0.11300875502468,0.03205211939174665,0.016661203318392263,0.09494841360924192
0.2928103,0.09457840389584546,0.04028358936949837,0.012739016359778694,0.11325385301757745,0.032032769016534755,0.01683253023073743,0.09553115132603499
0.2932759,0.09529735769046258,0.040845424380320905,0.012804621818898196,0.11349388640581223,0.03201415784745511,0.01700438123673058,0.09611369600106345
0.2937414,0.09601852796452316,0.04141236977355832,0.012869969395839466,0.11372882019571469,0.03199632316267146,0.017176734513709015,0.09669599965021568
0.2942069,0.09674187118380108,0.041984418864187203,0.012935080705851528,0.11395862008548738,0.03197930235623172,0.0173495680655984,0.09727801414839744
0.2946724,0.09746734320836935,0.0425615639938759,0.012999977313579622,0.11418325246441996,0.031963132927363136,0.017522859724147972,0.09785969123560584
0.2951379,0.09819489929857418,0.04314379652168157,0.013064680721779152,0.11440268441201827,0.031947852469642844,0.017696587150291127,0.09844098252288513
0.2956034,0.09892449412125698,0.043731106814968355,0.013129212360161693,0.11461688369706075,0.031933498660047806,0.01787072783563303,0.09902183949816114
0.296069,0.09965608175622104,0.04432348424055287,0.013193593574376735,0.11482581877659527,0.031920109247888434,0.01804525910406677,0.09960221353195163
0.2965345,0.10038961570293897,0.044920917156083116,0.013257845615132931,0.11502945879488909,0.03190772204363027,0.018220158113519503,0.10018205588295237
0.297,0.10112504888749664,0.045523392901656426,0.013321989627462531,0.11522777358234468,0.03189637490760834,0.018395401857829837,0.10076131770349936
0.2974655,0.10186233366976843,0.04613089779168236,0.013386046640132722,0.11542073365439386,0.03188610573863887,0.01857096716875762,0.10133995004490864
0.297931,0.1026014218508193,0.04674341710699599,0.01345003755520755,0.11560831021038247,0.03187695246253332,0.018746830718127126,0.1019179038626974
0.2983966,0.10334226468052773,0.047360935087227024,0.013513983137764116,0.11579047513245748,0.03186895302051966,0.018922969020104485,0.10249513002169208
0.2988621,0.10408481286542429,0.047983434923430025,0.01357790400576662,0.11596720098446808,0.03186214535757585,0.019099358433610127,0.103071579301032
0.2993276,0.10482901657674035,0.048610898750980645,0.013641820620101778,0.11613846101089179,0.03185656741068017,0.01927597516486697,0.10364720239907858
0.2997931,0.10557482545866205,0.04924330764274274,0.013705753274779043,0.11630422913579659,0.031852257096983305,0.019452795270085022,0.10422194993824171
0.3002586,0.10632218863678435,0.049880641602510864,0.013769722087298925,0.1164644799618491,0.0318492523019066,0.019629794658282906,0.10479577246973429
0.3007241,0.10707105472676107,0.050522879558732484,0.013833746989192628,0.11661918876937889,0.03184759086717105,0.019806949094247014,0.10536862047826603
0.3011897,0.10782137184314665,0.051169999358513796,0.01389784771673611,0.11676833151550843,0.03184731057876131,0.01998423420162868,0.10594044438668708
0.3016552,0.10857308760842596,0.05182197776191283,0.013962043801841526,0.11691188483335734,0.031848449154828935,0.02016162546617986,0.10651119456059044
0.3021207,0.1093261491622285,0.05247879043652325,0.014026354563128916,0.1170498260313298,0.031851044233539134,0.02033909823912777,0.10708082131288217
0.3025862,0.11008050317072327,0.053140411952352244,0.014090799097180851,0.11718213309249373,0.03185513336086495,0.020516627740688735,0.10764927490832765
0.3030517,0.11083609583619076,0.05380681577699568,0.014155396269982686,0.11730878467406082,0.03186075397833279,0.020694189063721738,0.10821650556808166
0.3035172,0.11159287290676785,0.05447797427111353,0.014220164708550918,0.11742976010697632,0.03186794341072311,0.0208717571775219,0.10878246347421057
0.3039828,0.112350779686361,0.055153858684208794,0.014285122792752012,0.11754503939562823,0.03187673885373008,0.021049306931754358,0.1093470987742151
0.3044483,0.11310976104472291,0.05583443915071251,0.014350288647313997,0.11765460321768542,0.03188717736158373,0.0212268130605287,0.10991036158556183
0.3049138,0.11386976142768734,0.056519684686377934,0.01441568013403298,0.11775843292407383,0.03189929583463813,0.02140425018661429,0.11047220200023256
0.3053793,0.1146307248675565,0.05720956318498642,0.014481314844176708,0.11785651053909936,0.03191313100692895,0.021581592825796553,0.11103257008929979
0.3058448,0.11539259499363495,0.05790404141536761,0.014547210091087188,0.11794881876072622,0.031928719433703644,0.021758815391374267,0.11159141590753643
0.3063103,0.11615531504290287,0.05860308501873638,0.014613382902984364,0.1180353409610183,0.031946097478927474,0.021935892198797796,0.1121486894980669
0.3067759,0.11691882787082127,0.05930665850634893,0.014679850015972778,0.11811606118675205,0.03196530130276822,0.022112797470447986,0.11270434089706619
0.3072414,0.11768307596226128,0.06001472525748023,0.014746627867253101,0.11819096416020834,0.03198636684906262,0.022289505340555345,0.1132583201385124
0.3077069,0.11844800144254891,0.06072724751772495,0.014813732588540426,0.11826003528015097,0.032009329832767074,0.022465989860258984,0.11381057725899808
0.3081724,0.1192135460886168,0.061444186397623786,0.01488117999969112,0.11832326062299958,0.03203422572739533,0.02264222500280469,0.11436106230260475
0.3086379,0.11997965134025464,0.06216550187161664,0.014948985602540031,0.11838062694420384,0.03206108975244553,0.02281818466888142,0.11490972532584522
0.3091034,0.1207462583114498,0.06289115277732393,0.01501716457494975,0.11843212167982628,0.03208995686081874,0.022993842692095368,0.1154565164026776
0.309569,0.12151330780180968,0.06362109681515679,0.015085731765073588,0.11847773294833978,0.03212086172623116,0.0231691728445806,0.1160013856295953
0.3100345,0.12228074030805686,0.06435529054825644,0.015154701685833794,0.11851744955264565,0.03215383873062184,0.023344148842745317,0.11654428313079689
0.3105,0.12304849603558833,0.06509368940276244,0.01522408850961643,0.11855126098231732,0.03218892195155763,0.023518744353152456,0.11708515906343914
0.3109655,0.12381651491008838,0.06583624766840909,0.015293906063184263,0.11857915741607457,0.032226145149636884,0.023692932998533388,0.11762396362297739
0.311431,0.12458473658918465,0.06658291849944838,0.01536416782280886,0.11860112972449219,0.03226554175589331,0.023866688363933262,0.11816064704859625
0.3118966,0.12535310047413636,0.06733365391589785,0.015434886909623054,0.11861716947294648,0.03230714485920107,0.024039984002986695,0.11869515962873388
0.3123621,0.1261215457215437,0.06808840480511097,0.015506076085194744,0.11862726892480284,0.03235098719368229,0.024212793444322284,0.11922745170670179
0.3128276,0.1268900112550662,0.06884712092366706,0.015577747747323012,0.11863142104484717,0.032397101126118,0.024385090198094646,0.11975747368640224
0.3132931,0.1276584357771393,0.06960975089957798,0.0156499139260573,0.11862961950296405,0.032445518643363404,0.02455684776264254,0.12028517603814441
0.3137586,0.1284267577806771,0.07037624223480803,0.015722586279940363,0.11862185867806452,0.03249627133976859,0.024728039631271716,0.12081050930456047
0.3142241,0.12919491556074986,0.07114654130810394,0.015795776092475528,0.11860813366226683,0.03254939040460578,0.024898639299160943,0.12133342410662183
0.3146897,0.12996284722622564,0.0719205933781317,0.01586949426881877,0.11858844026533294,0.032604906609504415,0.0250686202703897,0.12185387114975552
0.3151552,0.13073049071136508,0.07269834258691672,0.01594375133269592,0.11856277501936371,0.032662850295895995,0.025237956065085703,0.12237180123005971
0.3156207,0.13149778378735905,0.0734797319635843,0.016018557423545243,0.11853113518375485,0.0327232513624706,0.025406620226690366,0.1228871652406175
0.3160862,0.132264664073799,0.0742647034283969,0.016093922293885538,0.11849351875041525,0.03278613925264773,0.02557458632934021,0.12339991417790772
0.3165517,0.13303106905007017,0.0750531977970849,0.01616985530690968,0.11844992444924904,0.03285154294206409,0.025741827985362096,0.12390999914831193
0.3170172,0.13379693606665796,0.07584515478546733,0.016246365434303647,0.1184003517539023,0.03291949092608137,0.02590831885288012,0.12441737137471698
0.3174828,0.13456220235635885,0.07664051301435922,0.016323461254290822,0.11834480088777447,0.032990011207317656,0.026074032643532124,0.12492198220321253
0.3179483,0.13532680504538644,0.07743921001476188,0.01640115094990139,0.11828327283029416,0.033063131283206884,0.0262389431302937,0.1254237831098832
0.3184138,0.13609068116436357,0.07824118223333255,0.016479442307466587,0.11821576932345881,0.033138878133591114,0.026403024155407646,0.12592272570769464
0.3188793,0.13685376765919088,0.07904636503812927,0.016558342715337467,0.1181422928786362,0.03321727820835114,0.02656624963841674,0.12641876175347386
0.3193448,0.13761600140178248,0.07985469272462659,0.01663785916282772,0.11806284678362598,0.033298357415080894,0.026728593584297692,0.12691184315498247
0.3198103,0.1383773192006588,0.08066609852199708,0.01671799823938012,0.11797743510997795,0.033382141106811244,0.026890030091693867,0.1274019219780822
0.3202759,0.13913765781138843,0.08148051459965353,0.01679876613395585,0.11788606272056332,0.03346865406978856,0.027050533361244262,0.1278889504539914
0.3207414,0.13989695394687157,0.08229787207404599,0.016880168634646052,0.1177887352773943,0.03355792051131336,0.027210077704006092,0.128372880986631
0.3212069,0.14065514428745912,0.08311810101570762,0.016962211128504708,0.11768545924968662,0.03364996404764412,0.0273686375499681,0.12885366616005864
0.3216724,0.14141216549090252,0.08394113045654276,0.017044898601601823,0.11757624192215912,0.033744807691971065,0.027526187456651564,0.12933125874599016
0.3221379,0.14216795420213027,0.08476688839735017,0.017128235639295802,0.11746109140356308,0.033842473842464554,0.027682702117795922,0.12980561171140656
0.3226034,0.14292244706284804,0.08559530181557355,0.017212226426723754,0.11734001663543378,0.03394298427040255,0.02783815637212566,0.13027667822624542
0.323069,0.14367558072095912,0.08642629667327177,0.01729687474950833,0.11721302740105581,0.03404636010838118,0.027992525212194946,0.1307444116711746
0.3235345,0.14442729183980216,0.08725979792529977,0.01738218399467967,0.11708013433463245,0.03415262183861242,0.02814578379330634,0.13120876564544562
0.324,0.1451775171072031,0.0880957295276911,0.01746815715181083,0.11694134893064925,0.03426178928131272,0.02829790744249967,0.13166969397482364
0.3244655,0.14592619324433892,0.08893401444623246,0.017554796814365014,0.11679668355342011,0.03437388158318627,0.028448871667607078,0.13212715071959039
0.324931,0.1466732570144106,0.0897745746652197,0.017642105181252823,0.11664615144680412,0.034488917206006754,0.028598652166370118,0.1325810901826159
0.3253966,0.14741864523112447,0.0906173311963843,0.017730084058597488,0.11648976674408071,0.03460691391530108,0.02874722483561462,0.13303146691749446
0.3258621,0.1481622947669795,0.09146220408797909,0.017818734861706084,0.11632754447797013,0.034727888769138945,0.028894565780479085,0.13347823573673956
0.3263276,0.14890414256135978,0.09230911243401133,0.01790805861724444,0.1161595005907867,0.034851858107031855,0.029040651323692133,0.1339213517200315
0.3267931,0.14964412562842921,0.09315797438361174,0.017998055965613373,0.11598565194471112,0.034978837538945574,0.029185458014894545,0.13436077022251075
0.3272586,0.15038218106482787,0.0940087071505288,0.01808872716352373,0.11580601633216828,0.035108841934430056,0.029328962640001077,0.13479644688310952
0.3277241,0.15111824605716656,0.09486122702273812,0.0181800720867676,0.11562061248629621,0.035241885411871086,0.029471142230597235,0.13522833763291245
0.3281897,0.15185225788931808,0.09571544937215971,0.01827209023318288,0.1154294600914917,0.035377981327868055,0.029611974073365906,0.13565639870353713
0.3286552,0.1525841539495022,0.09657128866447673,0.018364780725808362,0.11523257979401744,0.03551714226674227,0.0297514357195385,0.1360805866355237
0.3291207,0.15331387173716124,0.09742865846905238,0.018458142316226174,0.11502999321265545,0.0356593800301805,0.029889504994365084,0.1365008582867227
0.3295862,0.15404134886962265,0.09828747146894322,0.01855217338808844,0.11482172294939146,0.03580470562701874,0.030026160006597767,0.13691717084066943
0.3300517,0.1547665230885447,0.09914763947100967,0.018646871960824762,0.11460779260011432,0.03595312926317127,0.03016137915798145,0.13732948181493293
0.3305172,0.15548933226614095,0.10000907341612629,0.018742235693526975,0.1143882267653137,0.036104660331710364,0.03029514115274568,0.13773774906942826
0.3309828,0.15620971441118045,0.1008716833894956,0.018838261889007574,0.11416305106075912,0.03625930740310211,0.0304274250070913,0.1381419308146813
0.3314483,0.1569276076747617,0.10173537863107049,0.018934947498028026,0.11393229212814208,0.0364170782156037,0.030558210058665276,0.13854198562003564
0.3319138,0.15764295035586032,0.10260006754609041,0.01903228912369301,0.11369597764566226,0.03657797966582746,0.03068747597601678,0.13893787242179148
0.3323793,0.15835568090665242,0.10346565771573733,0.01913028302600668,0.11345413633853865,0.03674201779947681,0.03081520276802749,0.13932955053126544
0.3328448,0.1590657379376156,0.10433205590791635,0.01922892512658676,0.11320679798942646,0.03690919780225913,0.03094137079330878,0.13971697964275984
0.3333103,0.15977306022241075,0.10519916808816586,0.0193282110135323,0.11295399344872012,0.037079523990980266,0.031065960769558223,0.14010011984142992
0.3337759,0.16047758670254758,0.10606689943070162,0.0194281359464408,0.11269575464472316,0.03725299980482536,0.031188953782867637,0.14047893161103817
0.3342414,0.16117925649183806,0.1069351543295985,0.01952869486157023,0.11243211459366555,0.037429627796830615,0.031310331296974726,0.14085337584158467
0.3347069,0.16187800888064244,0.10780383641011373,0.01962988237714156,0.11216310740954902,0.03760940962555073,0.03143007516245023,0.1412234138368048
0.3351724,0.16257378333991473,0.10867284854015505,0.01973169279877723,0.1118887683138002,0.03779234604692728,0.03154816762581223,0.14158900732152463
0.3356379,0.16326651952505591,0.10954209284189677,0.019834120125071065,0.11160913364471074,0.03797843690636393,0.03166459133855928,0.14195011844886576
0.3361034,0.16395615727958399,0.11041147070354705,0.019937158053285026,0.11132424086664412,0.03816768113101549,0.03177932936611387,0.14230670980729224
0.336569,0.16464263663863032,0.11128088279126876,0.020040799985168254,0.11103412857898798,0.03836007672229808,0.031892365196667646,0.14265874442749232
0.3370345,0.16532589783227206,0.11215022906125578,0.020145039032893643,0.1107388365248322,0.038555620748628394,0.032003682749919694,0.1430061857890889
0.3375,0.1660058812887102,0.11301940877196613,0.0202498680251073,0.11043840559935336,0.03875430933839997,0.03211326638569908,0.1433489978271729
0.3379655,0.16668252763730382,0.11388832049651232,0.020355279513086005,0.11013287785788699,0.03895613767320434,0.03222110091246269,0.1436871449386549
0.338431,0.1673557777114701,0.11475686213520911,0.020461265776997754,0.1098222965236693,0.03916109998130484,0.032327171595659406,0.14402059198843142
0.3388966,0.16802557255146058,0.11562493092827777,0.020567818832260363,0.1095067059952305,0.039369189531370766,0.03243146416595132,0.1443493043153623
0.3393621,0.168691853407023,0.11649242346870639,0.02067493043599306,0.10918615185342037,0.03958039862647987,0.03253396482728292,0.14467324773805587
0.3398276,0.1693545617399577,0.1173592357152652,0.020782592093555825,0.10886068086804729,0.039794718598397255,0.032634660264788805,0.14499238856045948
0.3402931,0.1700136392265778,0.11822526300567583,0.0208907950651713,0.10853034100411073,0.040012139802138864,0.03273353765253069,0.1453066935772528
0.3407586,0.17066902776008158,0.11909040006993342,0.0209995303726239,0.1081951814276073,0.040232651610827695,0.032830584661054284,0.14561613007904173
0.3412241,0.17132066945284533,0.11995454104378038,0.021108788806030832,0.10785525251089018,0.04045624241085068,0.03292578946475669,0.1459206658573527
0.3416897,0.17196850663864519,0.1208175794823314,0.021218560930679545,0.10751060583756158,0.04068289959732416,0.033019140749055244,0.14622026920942743
0.3421552,0.17261248187481637,0.12167940837384916,0.02132883709392622,0.10716129420687796,0.0409126095698757,0.03311062771734872,0.14651490894282
0.3426207,0.1732525379443599,0.12253992015367042,0.021439607432150017,0.10680737163764789,0.0411453577287499,0.033200240097761895,0.14680455437979847
0.3430862,0.1738886178580078,0.12339900671828286,0.021550861877757774,0.10644889337160375,0.0413811284712455,0.03328796814966485,0.1470891753615545
0.3435517,0.17452066485625922,0.1242565594395529,0.021662590166234043,0.1060859158762292,0.041619905188490965,0.033373802669958166,0.14736874225222307
0.3440172,0.17514862241139936,0.12511246917910498,0.021774781843231467,0.10571849684702603,0.04186167026256551,0.03345773499911551,0.14764322594271534
0.3444828,0.17577243422951247,0.1259666263028533,0.021887426271696712,0.10534669520920409,0.042106405063971945,0.033539757026975155,0.1479125978543658
0.3449483,0.17639204425250019,0.12681892069568673,0.022000512639027355,0.10497057111877911,0.0423540899494678,0.03361986119827194,0.14817682994239548
0.3454138,0.17700739666011406,0.1276692417763088,0.022114029964255384,0.10459018596306258,0.04260470426026061,0.03369804051790122,0.14843589469919213
0.3458793,0.1776184358720106,0.1285174785122343,0.022227967105253137,0.10420560236052802,0.042858226320573296,0.03377428855590654,0.1486897651574087
0.3463448,0.1782251065498348,0.12936351943494542,0.022342312765957856,0.10381688416003802,0.043114633436585406,0.03384859945218278,0.1489384148928814
0.3468103,0.1788273535993387,0.1302072526552105,0.022457055503611042,0.10342409643941607,0.04337390189575647,0.033920967920886454,0.14918181802737016
0.3472759,0.17942512217253942,0.13104856587856842,0.022572183736009114,0.1030273055033477,0.04363600696653762,0.03399138925454534,0.14941994923112378
0.3477414,0.18001835766992227,0.13188734642098296,0.022687685748761847,0.10262657888059515,0.0439009228984781,0.03405985932785924,0.1496527837252725
0.3482069,0.1806070057426929,0.1327234812246707,0.02280354970255521,0.10222198532050962,0.04416862292273331,0.03412637460118433,0.14988029728405033
0.3486724,0.18119101229508347,0.13355685687410748,0.022919763640415335,0.10181359478882504,0.04443907925298094,0.03419093212369382,0.15010246623685045
0.3491379,0.1817703234867195,0.1343873596122175,0.023036315494970334,0.101401478462717,0.04471226308675155,0.03425352953620853,0.15031926747011598
0.3496034,0.1823448857350524,0.13521487535675006,0.023153193095706785,0.10098570872511108,0.044988144607179856,0.034314165073692296,0.150530678429069
0.350069,0.1829146457178652,0.13603928971684903,0.023270384176217608,0.10056635915822441,0.045266692985182794,0.034372837567408276,0.15073667711927957
0.3505345,0.18347955037585736,0.13686048800982026,0.02338787638143804,0.10014350453632566,0.04554787638207001,0.03442954644673353,0.1509372421080759
0.351,0.18403954691531416,0.13767835527810143,0.023505657274866493,0.09971722081769743,0.045831661952592515,0.03448429174063072,0.15113235252579674
0.3514655,0.18459458281086624,0.1384927763064393,0.02362371434576729,0.09928758513578612,0.04611801584843478,0.03453707407877678,0.15132198806688552
0.351931,0.18514460580834263,0.13930363563927786,0.02374203501635257,0.09885467578952317,0.04640690322215557,0.034587894692349457,0.15150612899082663
0.3523966,0.18568956392772018,0.1401108175983606,0.023860606648941046,0.0984185722328023,0.04669828823158232,0.034636755414473495,0.1516847561229239
0.3528621,0.18622940546617195,0.14091420630054846,0.02397941655309161,0.09797935506309757,0.04699213404466328,0.03468365868032915,0.1518578508549224
0.3533276,0.18676407900121764,0.14171368567585443,0.02409845199271027,0.09753710600920863,0.04728840284478183,0.03472860752692632,0.15202539514547503
0.3537931,0.18729353339397886,0.14250913948569485,0.024217700193128976,0.09709190791812032,0.04758705583653657,0.03477160559254799,0.1521873715204567
0.3542586,0.18781771779254308,0.14330045134135583,0.0243371483481552,0.09664384474096607,0.04788805325199043,0.034812657115867285,0.1523437630731294
0.3547241,0.18833658163544087,0.14408750472267282,0.02445678362709138,0.09619300151808674,0.04819135435739173,0.034851766934742345,0.15249455346416432
0.3551897,0.18885007465524017,0.14487018299692012,0.02457659318172318,0.09573946436317857,0.04849691746036975,0.0348889404846937,0.15263972692152883
0.3556552,0.18935814688226082,0.1456483694379061,0.024696564153275664,0.09528332044652604,0.0488046999176067,0.03492418379706864,0.15277926824024862
0.3561207,0.18986074864841154,0.14642194724527005,0.024816683679336555,0.09482465797731723,0.04911465814298799,0.03495750349689708,0.15291316278205552
0.3565862,0.19035783059115102,0.1471907995639754,0.02493693890074552,0.09436356618504081,0.04942674761623188,0.03498890680044321,0.15304139647493142
0.3570517,0.19084934365757358,0.14795480950399373,0.02505731696844852,0.09390013529996469,0.04974092289199951,0.03501840151245697,0.15316395581255884
0.3575172,0.19133523910861808,0.1487138601601732,0.025177805050316165,0.09343445653269669,0.050057137609485394,0.03504599602312924,0.15328082785368752
0.3579828,0.19181546852339895,0.149467834632285,0.025298390337924713,0.0929666220528281,0.050375344502488574,0.03507169930475441,0.1533920002214263
0.3584483,0.19228998380365642,0.15021661604524092,0.025419060053298352,0.09249672496666309,0.05069549540996384,0.03509552090810374,0.1534974611024685
0.3589138,0.192758737178323,0.15096008756947726,0.02553980145561108,0.09202485929403852,0.0510175412870522,0.03511747095851296,0.1535971992462585
0.3593793,0.19322168120820268,0.1516981324415006,0.025660601847846364,0.09155111994424237,0.051341432216589176,0.03513756015168723,0.15369120396410518
0.3598448,0.19367876879075954,0.1524306339845938,0.025781448583412515,0.09107560269104177,0.05166711742108897,0.03515579974922706,0.15377946512824767
0.3603103,0.1941299531650118,0.15315747562968327,0.02590232907271144,0.0905984041468362,0.051994545275202336,0.035172201573878244,0.15386197317087758
0.3607759,0.19457518791652675,0.15387854093637,0.026023230789658357,0.09011962173595396,0.052323663318645505,0.03518677800450929,0.15393871908312054
0.3612414,0.1950144269825116,0.15459371361412944,0.02614414127814979,0.08963935366711326,0.052654418269596805,0.035199541970819724,0.15400969441397927
0.3617069,0.1954476246569955,0.15530287754368702,0.026265048158477026,0.08915769890507114,0.052986756038557556,0.03521050694778305,0.15407489126923982
