Time,Rectus Femoris right,Rectus Femoris left,Hamstrings right,Hamstrings left,TibilaisÂ Anterior right,TibilaisÂ Anterior left,Gastrocnemius right,Gastrocnemius left
0.0,-0.0003608331811252786,0.0013957743432193113,0.0017511243780831997,-0.00011225882161665399,0.0023751294339763086,-9.756828953772229e-05,-0.0003455922432418522,-0.0017490565590784514
0.0005192,-0.0003276357113754145,0.001421535412213146,0.0017727025786487822,5.999293574858109e-06,0.002413604135960735,-2.5762827155633746e-05,-0.00030759171247821273,-0.0015922370758340758
0.0010385,-0.0002945491244474177,0.0014473725133926853,0.0017943512645687864,0.00012431104838760723,0.0024520137115494585,4.6053476257518294e-05,-0.00026969928729229405,-0.0014356321652257164
0.0015577,-0.00026157881858379525,0.0014732824062232775,0.0018160681822758744,0.00024266317951396473,0.002490351952570577,0.00011787153671941759,-0.0002319203562472278,-0.0012792636231491285
0.0020769,-0.00022873017460021334,0.0014992618219149168,0.0018378510664735003,0.00036104244630886964,0.0025286126578768268,0.00018968226765819904,-0.00019426027786132537,-0.0011231532075554917
0.0025962,-0.00019600855418966655,0.001525307464123179,0.001859697640881917,0.0004794356351221597,0.0025667896355219552,0.00026147658257928013,-0.0001567243787635669,-0.0009673226319460108
0.0031154,-0.00016341929823144243,0.0015514160096576322,0.0018816056189910843,0.0005978295636165957,0.002604876704942129,0.00033324539773077456,-0.0001193179518595742,-0.000811793558886862
0.0036346,-0.00013096772510579454,0.0015775841091972313,0.0019035727048200247,0.0007162110850688245,0.0026428676991407914,0.00040497963476600536,-8.204625450915371e-05,-0.0006565875935481615
0.0041538,-9.865912901522653e-05,0.0016038083880122306,0.0019255965936821797,0.0008345670926505543,0.002680756466875471,0.0004766702234016581,-4.491450671648888e-05,-0.0005017262772705613
0.0046731,-6.649877831328162e-05,0.0016300854466921794,0.001947674972956319,0.0009528845236872567,0.0027185368748451257,0.0005483081040701383,-7.927889334049705e-06,-0.000347231081163003
0.0051923,-3.4491913841723104e-05,0.001656411861879583,0.0019698055228625703,0.001071150363891767,0.0027562028098767166,0.0006198842305647134,2.8908457718726983e-05,-0.00019312339973507947
0.0057115,-2.6437472769842457e-06,0.0016827841870088395,0.0019919859172431447,0.0011893516515702174,0.0027937481811097543,0.0006913895726760361,6.5589437220954e-05,-3.942454456735675e-05
0.0062308,2.904054051324748e-05,0.001709198953050063,0.002014213824347326,0.0013074754817978093,0.002831166922177623,0.000762815118818665,0.00010210999639899872,0.0001138442619771125
0.00675,6.055580110246584e-05,0.0017356526692574167,0.0020364869076203093,0.0014255090105619965,0.0028684529933845283,0.000834151878646216,0.00013846512865739376,0.00026666189299696697
0.0072692,9.189692012598277e-05,0.0017621418239215701,0.0020588028264954465,0.001543439458870695,0.0029056003838769376,0.0009053908856538008,0.00017464987529099718,0.00041900732324937583
0.0077885,0.00012305881888898218,0.0017886628851259158,0.002081159237189459,0.0016612541168231974,0.0029426031138083905,0.0009765231997664283,0.0002106593271774704,0.0005708596352965661
0.0083077,0.00015403645596124278,0.0018152123015061712,0.0021035537935001542,0.0017789403476415346,0.002979455236496595,0.0010475399099120685,0.000246488626449168,0.0007221980255991104
0.0088269,0.00018482482875781852,0.0018417865030129967,0.002125984147606174,0.0018964855916601155,0.003016150840571734,0.0011184321365781031,0.0002821329681435598,0.0008730018105531083
0.0093462,0.0002154189751050018,0.0018683819016772599,0.002148447950868284,0.0020138773702715663,0.0030526840521149226,0.0011891910343499157,0.00031758760183133204,0.0010232504324684888
0.0098654,0.0002458139747909331,0.001894994892377572,0.0021709428546317073,0.0021311032898267937,0.0030890490367857567,0.0012598077944304049,0.0003528478332213429,0.0011729234654857916
0.0103846,0.0002760049511002608,0.0019216218536097195,0.0021934665110289854,0.00224815104548738,0.0031252400019378974,0.0013302736471392292,0.0003879090257416346,0.0013220006214289346
0.0109038,0.0003059870723322958,0.0019482591482576205,0.002216016573782834,0.0023650084250285116,0.0031612511987216267,0.0014005798643906217,0.00042276660209572444,0.001470461755591644
0.0114231,0.00033575555330214035,0.001974903124365422,0.002238590699008454,0.0024816633125907235,0.003197076924172315,0.00147071776214864,0.00045741604579341185,0.0016182868724554074
0.0119423,0.000365305656824304,0.0020015501159103767,0.002261186546014744,0.0025981036923787984,0.0032327115232837498,0.0015406787028587564,0.0004918529026553539,0.0017654561313369906
0.0124615,0.00039463269517833543,0.0020281964435761427,0.0022838017781038468,0.002714317652306216,0.0032681493910652797,0.001610454097854732,0.0005260727822906765,0.0019119498519637472
0.0129808,0.00042373203155601937,0.0020548384155261797,0.002306434063368453,0.002830293387583561,0.0033033849745817243,0.0016800354097397917,0.0005600713595469085,0.0020577485199751045
0.0135,0.0004525990814896946,0.002081472328176931,0.00232908107548628,0.002946019204249294,0.003338412774975009,0.0017494141547411803,0.0005938443759315417,0.002202832792348744
0.0140192,0.00048122931426126123,0.0021080944669705243,0.0023517404945111514,0.003061483522641283,0.0033732273494665108,0.0018185819050372486,0.0006273876410045388,0.002347183502750071
0.0145385,0.0005096182542914519,0.002134701107146732,0.0023744100076601086,0.0031766748808074786,0.003407823313339116,0.001887530291056288,0.0006606970337411159,0.0024907816668036735
0.0150577,0.0005377614825089483,0.0021612885145139604,0.0023970873100960122,0.003291581937854083,0.0034421953418980267,0.001956251003746386,0.0006937685038641438,0.002633608487285537
0.0155769,0.0005656546376989345,0.002187852946219039,0.0024197701057050735,0.0034061934772295624,0.0034763381724093752,0.0020247357968156358,0.0007265980731455279,0.002775645359234838
0.0160962,0.0005932934178306992,0.0022143906515155877,0.0024424561078687855,0.0035204984099428,0.0035102466060156845,0.0020929764889420677,0.0007591818366759599,0.0029168738749841853
0.0166154,0.0006206735813639164,0.0022408978725307386,0.0024651430402297136,0.003634485777713696,0.003543915509627244,0.002160964965952689,0.0007915159641024614,0.0030572758291071943
0.0171346,0.0006477909485332747,0.0022673708450299808,0.002487828637450615,0.003748144756054474,0.00357733981778841,0.0022286931829710132,0.0008235967008331702,0.0031968332232823237
0.0176538,0.0006746414026111625,0.002293805799179916,0.0025105106459663777,0.0038614646572799364,0.0036105145345178653,0.002296153166532457,0.000855420369208839,0.0033355282710719573
0.0181731,0.0007012208911481668,0.0023201989603087196,0.0025331868247282776,0.0039744349334448915,0.003643434735121829,0.0023633370166669704,0.0008869833696405309,0.0034733434026158094
0.0186923,0.0007275254271911946,0.0023465465496641177,0.0025558549459400778,0.004087045179206942,0.003676095567979224,0.0024302369089482592,0.000918282181713016,0.0036102612692378113
0.0192115,0.000753551090479079,0.0023728447851687454,0.0025785127957855237,0.0041992851346128275,0.003708492256297804,0.002496845096508952,0.0009493133652533991,0.0037462647479657237
0.0197308,0.000779294028615573,0.002399089882172783,0.0026011581751468494,0.004311144687806481,0.0037406200998402824,0.002563153912021067,0.0009800735613645255,0.0038813369459628124
0.02025,0.0008047504582196625,0.0024252780542038275,0.0026237889003139486,0.004422613877656965,0.0037724744766195195,0.002629155769641163,0.0010105594934227422,0.004015461204871001
0.0207692,0.000829916666053148,0.0024514055137140026,0.002646402803683947,0.004533682896304448,0.0038040508445619093,0.002694843166919552,0.0010407679680395968,0.0041486211050649835
0.0212885,0.0008547890101254455,0.0024774684728243557,0.0026689977344509725,0.004644342091622385,0.0038353447431381596,0.002760208686672967,0.001070695875987072,0.004280800469816826
0.0218077,0.0008793639207755655,0.002503463144066628,0.0026915715592859446,0.004754581969594064,0.003866351794960797,0.002825244998820079,0.0011003401930859548,0.0044119833693705805
0.0223269,0.0009036379017312135,0.002529385741122515,0.002714122163006232,0.004864393196601679,0.0038970677073478163,0.0028899448621792566,0.001129697981056945,0.004542154124926466
0.0228462,0.000927607531144969,0.002555232479560553,0.002736647449235005,0.004973766601626113,0.003927488273851991,0.0029543011262279594,0.0011587663883341167,0.004671297312534125
0.0233654,0.0009512694626074845,0.002580999577570784,0.0027591453410501167,0.005082693178355592,0.003957609375755443,0.003018306732823146,0.001187542650840388,0.004799397766894478
0.0238846,0.0009746204261376454,0.0026066832566973342,0.0027816137816223134,0.005191164087201424,0.003987426983529113,0.0030819547178820954,0.0012160240927246904,0.004926440585069668
0.0244038,0.0009976572291496366,0.0026322797425690552,0.0028040507348425733,0.005299170657219035,0.004016937158256819,0.0031452382130230635,0.0012442081270605887,0.0050524111301005524
0.0249231,0.0010203767573968559,0.0026577852656283385,0.0028264541859383315,0.005406704387932564,0.0040461360530236416,0.0032081504471652396,0.0012720922565061586,0.005177295034531221
0.0254423,0.0010427759758926175,0.0026831960618582153,0.0028488221420783473,0.005513756951061306,0.004075019914268382,0.003270684748087497,0.0012996740739249699,0.005301078203840001
0.0259615,0.0010648519298075948,0.002708508373507834,0.0028711526329659506,0.0056203201921463325,0.004103585083099879,0.0033328345439455104,0.0013269512629680666,0.005423746819776463
0.0264808,0.0010866017453439447,0.0027337184498163855,0.0028934437114203843,0.005726386132075647,0.004131827996576954,0.003394593364746868,0.0013539215986168678,0.005545287343603967
0.027,0.001108022630586064,0.0027588225477355338,0.0029156934539459637,0.005831946968506283,0.0041597451889518215,0.0034559548437838893,0.0013805829476869675,0.005665686519247354
0.0275192,0.0011291118763279199,0.0027838169326503937,0.002937899961288781,0.005936995077181799,0.004187333292876853,0.0035169127190238874,0.001406933269292853,0.005784931376345363
0.0280385,0.0011498668568769037,0.0028086978790990693,0.0029600613589806884,0.006041523013143646,0.004214589040574651,0.003577460834456654,0.0014329706152736118,0.005903009233207395
0.0285577,0.0011702850308341563,0.0028334616714907604,0.0029821757978702955,0.006145523511834897,0.004241509264971464,0.003637593141398943,0.0014586931305797602,0.006019907699674162
0.0290769,0.0011903639418513192,0.0028581046048224185,0.003004241454640715,0.006248989490094803,0.0042680909007940014,0.0036973036997556986,0.0014840990536213695,0.0061356146798817795
0.0295962,0.0012101012193636784,0.00288262298539394,0.003026256532313771,0.006351914047042651,0.004294330985629725,0.003756586679237797,0.001509186716577706,0.006250118374928788
0.0301154,0.0012294945792996803,0.002907013131521863,0.003048219260740362,0.0064542904648494165,0.004320226660950737,0.0038154363605360534,0.0015339545456686196,0.006363407285445609
0.0306346,0.0012485418247668223,0.002931271374251539,0.0030701278970766497,0.006556112209395796,0.004345775173101347,0.003873847136451226,0.0015584010613879234,0.006475470214065882
0.0311538,0.0012672408467139392,0.002955394058067764,0.0030919807262457318,0.006657372930815284,0.004370973874249445,0.003931813512979757,0.0015825248786990084,0.0065862962677991676
0.0316731,0.001285589624569933,0.0029793775416038187,0.0031137760613844313,0.0067580664639211125,0.004395820223301775,0.003989330110354967,0.0016063247071929263,0.006695874860304426
0.0321923,0.0013035862268590084,0.003003218198348891,0.003135512244274823,0.0068581868285159595,0.004420311786783187,0.004046391664043403,0.0016297993512091812,0.006804195714063735
0.0327115,0.0013212288117924996,0.003026912417353848,0.003157187645760096,0.0069577282295834155,0.004444446239679926,0.004102993025696048,0.0016529477099194601,0.006911248862455619
0.0332308,0.0013385156278373828,0.003050456603935314,0.0031788006661443687,0.007056685057360366,0.004468221366246976,0.00415912916405407,0.0016757687773745447,0.007017024651727351
0.03375,0.0013554450142615794,0.0030738471803780213,0.0032003497355760687,0.007155051887289639,0.004491635060779498,0.004214795165808821,0.001698261642514654,0.0071215137428655585
0.0342692,0.0013720154016561583,0.0030970805866353986,0.00322183331441452,0.007252823479852482,0.004514685328348358,0.004269986236415826,0.0017204254891435013,0.007224707113364422
0.0347885,0.001388225312434544,0.0031201532810283612,0.0032432498935794007,0.007349994780280598,0.004537370285499745,0.0043246977008625995,0.001742259595866386,0.007326596058890748
0.0353077,0.0014040733613088364,0.0031430617409422693,0.0032645979948827497,0.0074465609181476235,0.004559688160918878,0.0043789250043902465,0.0017637633359926747,0.0074271721948451904
0.0358269,0.0014195582557433293,0.003165802463522032,0.003285876171343221,0.007542517206839953,0.004581637296057796,0.0044326637131689136,0.001784936177403057,0.007526427457818893
0.0363462,0.0014346787963853214,0.0031883719663653273,0.003307083007482312,0.007637859142906909,0.0046032161457272075,0.004485909514927251,0.0018057776823819966,0.007624354106944787
0.0368654,0.0014494338774732963,0.0032107667882139085,0.00332821711960232,0.0077325824052902874,0.00462442327865236,0.004538658219536095,0.0018262875074158223,0.007720944725142783
0.0373846,0.0014638224872225443,0.003232983489642971,0.0033492771560458016,0.00782668285443341,0.004645257377992846,0.0045909057595466376,0.0018464654029569734,0.007816192220258068
0.0379038,0.0014778437081882894,0.003255018653748543,0.0033702617974363316,0.007920156531269906,0.004665717241826311,0.004642648190683356,0.0018663112131549371,0.007910089826091806
0.0384231,0.0014914967176063837,0.0032768688868328485,0.0033911697569003595,0.00801299965609253,0.0046858017835960004,0.004693881692292014,0.0018858248755544568,0.008002631103323646
0.0389423,0.0015047807877116434,0.0032985308190875895,0.0034119997802699504,0.0081052086273024,0.00470551003252218,0.004744602567743084,0.0019050064207616166,0.008093809940325701
0.0394615,0.001517695286033912,0.0033200011052750777,0.003432750646266203,0.008196780020039148,0.00472484113397755,0.004794807244790981,0.001923855972078411,0.008183620553867815
0.0399808,0.0015302396756719605,0.0033412764254071602,0.003453421166663104,0.008287710584692617,0.004743794349826799,0.004844492275889548,0.001942373745106425,0.008272057489714118
0.0405,0.0015424135155453387,0.0033623534854218466,0.0034740101864316,0.00837799724529692,0.00476236905873051,0.004893654338464291,0.0019605600473202446,0.008359115623111
0.0410192,0.001554216460624302,0.0033832290178575633,0.003494516583863643,0.008467637097807883,0.004780564756413653,0.004942290235141925,0.001978415277611216,0.008444790159166661
0.0415385,0.0015656482621379355,0.0034038997825249296,0.0035149392706759802,0.008556627408265124,0.004798381055898851,0.004990396893937838,0.001995939925802163,0.008529076633122383
0.0420577,0.0015767087677605862,0.003424362567175944,0.00353527719209344,0.008644965610840136,0.004815817687704624,0.005037971368402122,0.0020131345721336666,0.0086119709105157
0.0425769,0.0015873979217767165,0.00344461418817045,0.003555529326911461,0.00873264930577201,0.004832874500008825,0.0050850108377248045,0.0020299998867225073,0.008693469187235712
0.0430962,0.0015977157652242969,0.0034646514911397318,0.003575694687537633,0.008819676257192485,0.00484955145877742,0.00513151260680095,0.0020465366289928737,0.008773567989470828
0.0436154,0.0016076624360168588,0.00348447135164708,0.00359577232001202,0.0089060443908423,0.0048658486478587865,0.005177474106256331,0.0020627456470809304,0.008852264173549437
0.0441346,0.0016172381690443454,0.003504070675845171,0.0036157613040060685,0.00899175179168111,0.004881766269043664,0.005222892892434363,0.0020786278772133484,0.008929554925674188
0.0446538,0.001626443296252904,0.003523446401130058,0.0036356607527999354,0.00907679670139363,0.004897304642090863,0.005267766647345054,0.0020941843430603933,0.009005437761550649
0.0451731,0.001635278246703761,0.0035425954967916217,0.0036554698132380873,0.009161177515795111,0.004912464204718795,0.005312093178576683,0.0021094161550641657,0.009079910525911348
0.0456923,0.0016437435466113196,0.003561514964660285,0.0036751876656630406,0.009244892782139517,0.004927245512562878,0.005355870419170957,0.0021243245097425697,0.009152971391936226
0.0462115,0.001651839819360619,0.003580201839749825,0.0036948135238271517,0.009327941196333931,0.004941649239098803,0.0053990964274623805,0.0021389106889695845,0.009224618860570669
0.0467308,0.0016595677855042864,0.003598653190896114,0.0037143466347824175,0.00941032160006272,0.004955676175531646,0.005441769386882554,0.00215317605923241,0.009294851759742328
0.04725,0.001666928262739117,0.003616866121391614,0.003733786278748336,0.009492032977825011,0.0049693272306507935,0.005483887605730128,0.002167122070866047,0.009363669243478043
0.0477692,0.0016739221658624154,0.0036348377696154826,0.003753131768957986,0.009573074453888953,0.004982603430650668,0.005525449516907158,0.002180750257265887,0.009431070790922171
0.0482885,0.0016805505067082377,0.00365256530965914,0.0037723824514825726,0.009653445289166134,0.004995505918917226,0.005566453677622573,0.002194062234078875,0.009497056205257617
0.0488077,0.0016868143940636663,0.0036700459519471546,0.0037915377050347712,0.009733144878009579,0.005008035955780245,0.0056068987690635055,0.002207059698373825,0.009561625612530846
0.0493269,0.001692715033565259,0.003687276943853294,0.00381059694075128,0.00981217274493863,0.005020194918231404,0.005646783596035153,0.0022197444277914534,0.009624779460382094
0.0498462,0.0016982537275758258,0.003704255570311586,0.0038295596019549973,0.009890528541294042,0.005031984299608151,0.0056861070865698955,0.002232118279674697,0.0096865185166819
0.0503654,0.0017034318750416872,0.003720979154422205,0.0038484251638972572,0.009968212041826652,0.005043405709243369,0.005724868291506275,0.0022441831901798704,0.009746843868075073
0.0508846,0.001708250971330593,0.0037374450580519697,0.0038671931334805397,0.010045223141223041,0.0050544608720808105,0.005763066384038483,0.002255941173369209,0.009805756918433056
0.0514038,0.0017127126080504714,0.0037536506824292436,0.0038858630489620604,0.010121561850571599,0.005065151628256321,0.0058007006592369304,0.0022673943202853285,0.009863259387215691
0.0519231,0.0017168184728491897,0.0037695934687329994,0.0039044344796386487,0.010197228293772566,0.005075479932644798,0.005837770533540527,0.0022785447980081266,0.009919353307743281
0.0524423,0.0017205703491954946,0.0037852708986758046,0.0039229070255133065,0.010272222703895686,0.005085447854372867,0.005874275544221262,0.002289394848694637,0.009974041025379804
0.0529615,0.001723970116141304,0.00380068049508051,0.003941280316943854,0.01034654541948916,0.00509505757629719,0.00591021534882167,0.002299946788602321,0.010027325195628094
0.0534808,0.0017270197480655112,0.003815819822450404,0.003959554014274031,0.010420196880843719,0.005104311394448357,0.0059455897245658,0.002310203007096284,0.010079208782137817
0.054,0.001729721314399456,0.003830686487532629,0.00397772780744743,0.010493177626215594,0.005113211717440257,0.005980398567744254,0.0023201659656408805,0.010129695054626967
0.0545192,0.0017320769793342083,0.0038452781398746606,0.0039958014156045996,0.010565488288012313,0.005121761065844846,0.006014641893073882,0.0023298381967761603,0.010178787586717586
0.0550385,0.0017340890015098052,0.0038595924723736534,0.004013774586663678,0.010637129588945159,0.005129962071532261,0.00604831983303265,0.0023392223030796037,0.01022649025368638
0.0555577,0.0017357597336865802,0.0038736272218184574,0.004031647096884853,0.010708102338152161,0.005137817476976242,0.006081432637170218,0.0023483209561135877,0.010272807230130842
0.0560769,0.001737091622398725,0.003887380169424111,0.0040494187504190125,0.010778407427295411,0.00514533013452481,0.006113980671394737,0.002357136895359036,0.010317742987551465
0.0565962,0.0017380872075902264,0.003900849141358602,0.004067089378840935,0.010848045826636486,0.005152503005636185,0.006145964417236378,0.002365672927135702,0.01036130229185063
0.0571154,0.0017387491222333326,0.003914032009261661,0.004084658840667415,0.010917018581093675,0.0051593391600798484,0.006177384471088051,0.002373931923509527,0.010403490200748674
0.0576346,0.0017390800919297037,0.003926926690755346,0.004102127020860756,0.010985326806284628,0.005165841775102663,0.0062082415434238074,0.0023819168211875238,0.010444312061117733
0.0581538,0.0017390829344944019,0.003939531149946145,0.00411949383031809,0.011052971684557995,0.005172014134559951,0.006238536457995373,0.0023896306204006317,0.010483773506234
0.0586731,0.001738760559522883,0.00395184339791832,0.004136759205346935,0.011119954461017588,0.005177859628011377,0.006268270151007252,0.002397076383774978,0.010521880452949205
0.0591923,0.0017381159679411438,0.003963861493218184,0.004153923107127462,0.011186276439542458,0.005183381749781489,0.006297443670270871,0.002404257235192006,0.010558639098782269
0.0597115,0.0017371522515391773,0.003975583542329047,0.00417098552116182,0.01125193897880626,0.005188584097984756,0.006326058174338177,0.0024111763586378977,0.010594055918932154
0.0602308,0.0017358725924878898,0.003987007700136533,0.0041879464567109335,0.011316943488299251,0.0051934703735149485,0.0063541149316151254,0.0024178369970427353,0.010628137663213025
0.06075,0.0017342802628396146,0.003998132170384041,0.0042048059462190925,0.011381291424356163,0.005198044378998704,0.006381615319455442,0.0024242424511098197,0.010660891352912781
0.0612692,0.0017323786240123658,0.004008955206118103,0.004221564044726691,0.011444984286193081,0.005202310017713161,0.00640856082323504,0.00243039607813558,0.010692324277576024
0.0617885,0.001730171126257954,0.004019475110123418,0.0042382208292714735,0.011508023611956603,0.0052062712924675954,0.00643495303540742,0.002436301290820509,0.010722443991712507
0.0623077,0.0017276613081140893,0.004029690235347331,0.004254776398278638,0.011570410974788344,0.005209932304449064,0.006460793654540401,0.002441961556071574,0.010751258311432074
0.0628269,0.0017248527958405907,0.004039598985313532,0.004271230870940161,0.01163214797890792,0.00521329725203216,0.006486084484334559,0.0024473803937965733,0.010778775311007125
0.0633462,0.001721749302839816,0.004049199814524749,0.0042875843865836935,0.011693236255717507,0.005216370429553074,0.006510827432623805,0.00245256137569091,0.010805003319363652
0.0638654,0.001718354629061434,0.004058491228854214,0.004303837104031371,0.011753677459931184,0.0052191562260481775,0.006535024510358565,0.002457508124017277,0.010829950916501843
0.0643846,0.0017146726603916487,0.004067471785925692,0.004319989200948844,0.011813473265732316,0.005221659123957471,0.006558677830572096,0.0024622243103787586,0.010853626929847393
0.0649038,0.0017107073680269896,0.004076140095481829,0.004336040873184848,0.01187262536296239,0.005223883697793239,0.006581789607330555,0.0024667136544858563,0.010876040430534703
0.0654231,0.001706462807832774,0.004084494819740636,0.004351992334101615,0.011931135453344772,0.005225834612774349,0.0066043621546674255,0.002470979922917952,0.010897200729623163
0.0659423,0.0017019431196863284,0.004092534673739844,0.004367843813896469,0.011989005246746854,0.005227516623426638,0.006626397885502946,0.0024750269278797153,0.010917117374247866
0.0664615,0.0016971525268050685,0.004100258425668889,0.004383595558915007,0.012046236457484072,0.0052289345721498685,0.006647899310549199,0.0024788585259529613,0.010935800143706138
0.0669808,0.0016920953350595125,0.004107664897188231,0.0043992478309563205,0.012102830800669132,0.005230093387751733,0.0066688690372015405,0.0024824786168444707,0.010953259045481223
0.0675,0.0016867759322712985,0.004114752963735701,0.004414800906570804,0.012158789988609798,0.0052309980839493776,0.006689309768417085,0.0024858911421302998,0.010969504311204635
0.0680192,0.001681198787496272,0.004121521554819516,0.0044302550763511035,0.012214115727258446,0.005231653757838909,0.006709224301581045,0.002489100083997106,0.01098454639255862
0.0685385,0.0016753684502927065,0.004127969654297647,0.004445610644216837,0.012268809712716558,0.005232065588333372,0.006728615527361806,0.0024921094639810183,0.0109983959571202
0.0690577,0.001669289549974715,0.0041340963006431825,0.004460867926693687,0.012322873627797243,0.005232238834569617,0.006747486428555744,0.0024949233417045774,0.0110110638841483
0.0695769,0.00166296679485093,0.004139900587195397,0.004476027252187544,0.012376309138648827,0.005232178834284538,0.006765840078922728,0.002497545813612254,0.011022561260315502
0.0700962,0.0016564049714485232,0.004145381662396252,0.00449108896025438,0.01242911789144251,0.005231891002161147,0.006783679642013332,0.0024999810117050467,0.011032899375385995
0.0706154,0.0016496089437226522,0.004150538730012101,0.004506053400866615,0.012481301509127133,0.00523138082814502,0.006801008369988715,0.00250223310227467,0.01104208971784138
0.0711346,0.0016425836522514256,0.004155371049340367,0.004520920933676733,0.012532861588254045,0.0052306538757317155,0.006817829602434172,0.002504306284637819,0.011050143970456103
0.0716538,0.0016353341134164802,0.004159877935400991,0.004535691927278971,0.012583799695874946,0.005229715780225818,0.0068341467651673385,0.0025062047898710077,0.011057074005824355
0.0721731,0.0016278654185692696,0.004164058759112458,0.004550366758469921,0.012634117366515587,0.005228572246972329,0.006849963369042027,0.0025079328795464765,0.011062891881840288
0.0726923,0.0016201827331831702,0.00416791294745219,0.004564945811508855,0.012683816099228109,0.005227229049561128,0.0068652830087486795,0.002509494844469648,0.011067609837133487
0.0732115,0.0016122912959915232,0.0041714399836011145,0.004579429477378622,0.012732897354724671,0.005225692028005234,0.006880109361612362,0.002510895003418614,0.011071240286461599
0.0737308,0.0016041964181117397,0.004174639407072177,0.0045938181530479055,0.012781362552595012,0.005223967086893591,0.006894446186389235,0.0025121377018861315,0.011073795816062104
0.07425,0.0015959034821555992,0.004177510813822592,0.004608112240735662,0.01282921306861047,0.005222060193519066,0.006908297322062461,0.002513227310824589,0.011075289178965156
0.0747692,0.0015874179413258656,0.004180053856349568,0.004622312147178528,0.012876450232116933,0.005219977375982345,0.006921666686638463,0.0025141682253944074,0.011075733290269568
0.0752885,0.0015787453184993422,0.0041822682437692585,0.004636418282901995,0.012923075323519016,0.005217724721272375,0.006934558275944478,0.0025149648637163356,0.011075141222383953
0.0758077,0.0015698912052964755,0.004184153741878698,0.004650431061496113,0.012969089571857792,0.005215308373324009,0.006946976162428294,0.0025156216656280904,0.011073526200235008
0.0763269,0.0015608612611376184,0.004185710173200432,0.004664350898896495,0.01301449415248418,0.0052127345310535,0.006958924493961038,0.0025161430914457795,0.011070901596444869
0.0768462,0.0015516612122860498,0.0041869374170096,0.00467817821267133,0.013059290184830109,0.005210009446372551,0.006970407492643804,0.002516533620730537,0.011067280926479454
0.0773654,0.0015422968508778292,0.004187835409343202,0.004691913421315108,0.01310347873027945,0.005207139422181673,0.006981429453618881,0.002516797751060785,0.011062677843769587
0.0778846,0.0015327740339385672,0.0041884041429913295,0.004705556943549726,0.013147060790140575,0.005204130810343657,0.006991994743886299,0.002516939996810535,0.01105710613480665
0.0784038,0.001523098682387182,0.004188643667470153,0.004719109197633645,0.013190037303722344,0.005200990009637994,0.007002107801126357,0.0025169648879341247,0.011050579714214567
0.0789231,0.0015132767800266971,0.004188554088976481,0.004732570600679709,0.013232409146515162,0.0051977234636970725,0.007011773132528754,0.002516876968757799,0.011043112619799778
0.0794423,0.0015033143725221374,0.004188135570323765,0.004745941567982269,0.013274177128478691,0.0051943376589249895,0.00702099531362897,0.002516680796778524,0.011034719007580995
0.0799615,0.0014932175663655734,0.004187388330859414,0.004759222512354179,0.013315341992437701,0.005190839122399849,0.00702977898715247,0.0025163809414704115,0.011025413146800474
0.0804808,0.0014829925278283622,0.004186312646363379,0.004772413843474242,0.013355904412587412,0.005187234419760412,0.007038128861867346,0.0025159819830991316,0.011015209414918686
0.081,0.0014726454819006284,0.004184908848927936,0.004785515967245625,0.013395864993109595,0.00518353015307799,0.007046049711445969,0.0025154885115446684,0.011004122292594344
0.0815192,0.0014621827112180276,0.004183177326818725,0.004798529285165736,0.013435224266900601,0.005179732958714523,0.0070535463733362,0.0025149051251327666,0.01099216635865188
0.0820385,0.0014516105549758317,0.004181118524317089,0.004811454193708036,0.01347398269441233,0.005175849505167827,0.007060623747642661,0.0025142364294754053,0.01097935628503857
0.0825577,0.001440935407830375,0.0041787329415438595,0.004824291083716237,0.013512140662607114,0.0051718864909050515,0.007067286796018668,0.0025134870363206357,0.010965706831773602
0.0830769,0.0014301637187879065,0.004176021134264734,0.0048370403398112815,0.013549698484027328,0.005167850642185476,0.007073540540569299,0.0025126615624120998,0.01095123284189139
0.0835962,0.0014193019900808988,0.004172983713677409,0.00484970233981152,0.013586656395980449,0.005163748710873797,0.007079390062766151,0.002511764628358559,0.010935949236381443
0.0841154,0.0014083567760318604,0.0041696213461806415,0.004862277454166431,0.013623014559840219,0.0051595874722451,0.0070848405023743715,0.0025108008575137324,0.010919871009127004
0.0846346,0.0013973346819047214,0.0041659347531254115,0.004874766045404258,0.013658773060464414,0.005155373722782693,0.007089897056392457,0.0025097748748667405,0.010903013221844757
0.0851538,0.001386242362743851,0.004161924710548372,0.004887168467593856,0.013693931905729624,0.005151114277969983,0.007094564978005382,0.0025086913059434272,0.010885390999027748
0.0856731,0.0013750865222007726,0.00415759204888785,0.004899485065821058,0.013728491026183398,0.0051468159700776075,0.007098849575551557,0.0025075547757188307,0.010867019522893706
0.0861923,0.0013638739113486355,0.00415293765268273,0.004911716175679788,0.01376245027481395,0.005142485645946999,0.007102756211504148,0.0025063699075410393,0.01084791402834088
0.0867115,0.0013526113274845003,0.004147962460254641,0.004923862122778157,0.013795809426937602,0.005138130164771591,0.0071062903014672465,0.0025051413220666765,0.010828089797913491
0.0872308,0.0013413056129194792,0.004142667463374002,0.004935923222259721,0.013828568180203999,0.005133756395876873,0.00710945731318734,0.002503873636208235,0.010807562156778985
0.08775,0.00132996365375677,0.004137053706910545,0.0049478997783400655,0.013860726154719063,0.00512937121650045,0.007112262765580498,0.002502571462093478,0.010786346467719277
0.0882692,0.0013185923786576223,0.004131122288469005,0.004959792083858845,0.013892282893285588,0.005124981509573307,0.007114712227775632,0.002501239406037106,0.010764458126138174
0.0887885,0.0013071987575952733,0.004124874358010777,0.004971600419847415,0.013923237861761214,0.005120594161503396,0.007116811318174177,0.002499882067524915,0.010741912555087246
0.0893077,0.001295789800596908,0.004118311117462325,0.004983325055112144,0.013953590449533449,0.005116216059962676,0.007118565703526477,0.002498504038210638,0.010718725200312413
0.0898269,0.0012843725564737115,0.004111433820311206,0.004994966245833519,0.013983339970111338,0.005111854091678675,0.007119981098025172,0.0024971099009256864,0.010694911525323567
0.0903462,0.0012729541115390972,0.004104243771190552,0.005006524235181095,0.014012485661833182,0.005107515140231613,0.00712106326241583,0.0024957042287019676,0.01067048700648966
0.0908654,0.0012615415883152094,0.004096742325452847,0.005017999252944358,0.014041026688689659,0.005103206083858116,0.007121818003125036,0.002494291583807955,0.010645467128161583
0.0913846,0.001250142144227803,0.0040889308887338315,0.005029391515179512,0.014068962141261573,0.005098933793262508,0.007122251171406081,0.002492876516798165,0.010619867377825228
0.0919038,0.001238762970289601,0.00408081091650732,0.005040701223872196,0.014096291037771326,0.005094705129436673,0.007122368662502353,0.002491463565576186,0.010593703241287007
0.0924231,0.001227411289772237,0.004072383913631736,0.005051928566616082,0.014123012325247162,0.005090526941489425,0.0071221764148285,0.002490057254471394,0.010566990197894076
0.0929423,0.0012160943568668768,0.0040636514338891075,0.00506307371630734,0.014149124880799021,0.00508640606448633,0.007121680409169369,0.0024886620933294804,0.010539743715791427
0.0934615,0.0012048194553336217,0.004054615079517276,0.005074136830854918,0.01417462751300487,0.005082349317300891,0.007120886667896757,0.002487282576616912,0.010511979247217971
0.0939808,0.0011935938971397927,0.004045276500736068,0.005085118052906575,0.014199518963406177,0.005078363500478007,0.00711980125420395,0.002485923182539442,0.010483712223843674
0.0945,0.0011824250210871951,0.0040356373952681514,0.005096017509590631,0.014223797908111178,0.005074455394110571,0.007118430271358094,0.002484588372174768,0.01045495805214981
0.0950192,0.0011713201914284657,0.004025699507855315,0.005106835312273336,0.014247462959504409,0.005070631755730059,0.007116779861970386,0.002483282588619429,0.010425732108854346
0.0955385,0.0011602867964726061,0.004015464629770874,0.005117571556331791,0.014270512668060916,0.005066899318211946,0.007114856207284076,0.0024820102561500267,0.010396049736384378
0.0960577,0.0011493322471798058,0.004004934598328933,0.005128226320942294,0.014292945524263407,0.005063264787696751,0.007112665526480244,0.0024807757793988247,0.010365926238397577
0.0965769,0.0011384639757456635,0.0039941112963912005,0.005138799668883979,0.014314759960620529,0.0050597348415275,0.007110214076001295,0.002479583542543787,0.010335376875354439
0.0970962,0.001127689434174919,0.003982996651872043,0.005149291646357575,0.014335954353784323,0.005056316126204372,0.007107508148892097,0.0024784379085131068,0.010304416860143105
0.0976154,0.0011170160928448093,0.003971592637242444,0.005159702282819106,0.014356527026764768,0.005053015255357287,0.00710455407415866,0.002477343218204284,0.010273061353758401
0.0981346,0.00110645143905817,0.003959901269033523,0.005170031590828317,0.014376476251239253,0.005049838807737173,0.007101358216144279,0.0024763037897177972,0.010241325461036696
0.0986538,0.0010960029755863962,0.003947924607340258,0.005180279565911659,0.014395800249954628,0.005046793325226656,0.007097926973923046,0.002475323917605425,0.010209224226448085
0.0991731,0.001085678219202378,0.003935664755326016,0.005190446186439667,0.014414497199219445,0.005043885310870868,0.007094266780710636,0.002474407872133243,0.010176772629947331
0.0996923,0.001075484699203523,0.003923123858728502,0.005200531413518629,0.014432565231483754,0.005041121226929101,0.007090384103292305,0.0024735598985593304,0.010143985582884927
0.1002115,0.00106542995592497,0.003910304105367702,0.005210535190896458,0.014450002438003874,0.005038507492948012,0.0070862854414680005,0.0024727842164261847,0.010110877923979546
0.1007308,0.001055521539243092,0.003897207724656397,0.005220457444882713,0.014466806871589279,0.005036050483857074,0.007081977327514491,0.002472085018867839,0.010077464415353081
0.10125,0.001045767007069388,0.003883836987113771,0.005230298084282696,0.01448297654942875,0.005033756528087012,0.0070774663256644,0.0024714664719316755,0.01004375973862945
0.1017692,0.0010361739238348466,0.003870194203882632,0.005240057000345588,0.014498509455992787,0.005031631905711953,0.007072759031602017,0.002470932713914913,0.010009778491098213
0.1022885,0.0010267498589648777,0.003856281726250745,0.005249734066726567,0.014513403546009194,0.005029682846616047,0.007067862071975678,0.0024704878547157517,0.009975535181944032
0.1028077,0.0010175023853448955,0.003842101945176714,0.005259329139462912,0.014527656747508683,0.0050279155286853065,0.007062782103926507,0.0024701359751991628,0.009941044228542922
0.1033269,0.0010084390777766335,0.003827657290820866,0.005268842056964126,0.014541266964937202,0.005026336076025413,0.007057525814633221,0.0024698811265773104,0.009906319952826198
0.1038462,0.0009995675114252772,0.0038129502320815144,0.005278272640016112,0.0145542320823316,0.005024950557206202,0.007052099920872711,0.0024697273298045753,0.009871376577712945
0.1043654,0.0009908952602574856,0.0037979832761369688,0.005287620691799439,0.014566549966555169,0.005023764983533545,0.0070465111685960626,0.0024696785749871585,0.009836228223611755
0.1048846,0.0009824298954703755,0.0037827589679936316,0.005296885997921749,0.014578218470589465,0.0050227853073493405,0.0070407663325196745,0.0024697388208072333,0.009800888904992438
0.1054038,0.000974178983911539,0.00376727989004048,0.005306068326464289,0.0145892354368787,0.00502201742036033,0.007034872215731071,0.002469911993961628,0.009765372527028278
0.1059231,0.0009661500864901649,0.003751548661610205,0.005315167428042583,0.014599598700722955,0.005021467151996481,0.007028835649309037,0.0024702019886150162,0.009729692882309418
0.1064423,0.0009583507565793526,0.0037355679385472633,0.005324183035881267,0.014609306093716405,0.00502114026779961,0.007022663491957618,0.0024706126658676202,0.00969386364762783
0.1069615,0.0009507885384097075,0.0037193404127830515,0.005333114865903152,0.014618355447226613,0.00502104246784293,0.007016362629653548,0.0024711478532374103,0.00965789838083438
0.1074808,0.0009434709654543272,0.0037028688119184017,0.005341962616832639,0.014626744595910944,0.00502117938518218,0.007009939975306643,0.0024718113441567937,0.009621810517768396
0.108,0.0009364055588052919,0.0036861558988135847,0.005350725970313675,0.01463447138126611,0.0050215565843389565,0.0070034024684327255,0.0024726068974837826,0.009585613369260138
0.1085192,0.0009295998255417785,0.003669204471185987,0.005359404591042432,0.014641533655206781,0.005022179559816841,0.006996757074838674,0.0024735382370276184,0.009549320118206531
0.1090385,0.0009230612570899204,0.003652017361215609,0.005367998126914951,0.014647929283669248,0.005023053734650918,0.006990010786319286,0.0024746090510888363,0.009512943816720507
0.1095577,0.0009167973275745366,0.003634597435158538,0.00537650620918991,0.014653656150235984,0.005024184458991264,0.006983170620365686,0.0024758229920137514,0.009476497383354232
0.1100769,0.0009108154921628495,0.003616947592968507,0.005384928452666698,0.014658712159777022,0.005025577008720975,0.006976243619885018,0.0024771836757633533,0.009439993600396499
0.1105962,0.0009051231854003067,0.0035990707679266504,0.005393264455878983,0.014663095242104001,0.005027236584109236,0.006969236852931212,0.0024786946814965706,0.009403445111244423
0.1111154,0.0008997278195386288,0.0035809699262795425,0.005401513801303883,0.014666803355632668,0.005029168308499945,0.006962157412446607,0.002480359551167886,0.00936686441784967
0.1116346,0.0008946367828561941,0.0035626480668855863,0.005409676055586899,0.014669834491049534,0.005031377227036325,0.006955012416014199,0.0024821817891392452,0.009330263878239256
0.1121538,0.0008898574379708823,0.0035441082208698196,0.00541775076978271,0.014672186674978377,0.005033868305421946,0.006947809005620289,0.0024841648618062063,0.009293655704111038
0.1126731,0.0008853971201455009,0.0035253534512871727,0.005425737479611895,0.014673857973642224,0.0050366464287185265,0.006940554347427285,0.002486312197238276,0.009257051958503891
0.1131923,0.000881263135585924,0.0035063868527942096,0.00543363570573365,0.014674846496516337,0.005039716400180846,0.006933255631556345,0.002488627184833352,0.00922046455354253
0.1137115,0.0008774627597320778,0.003487211551329359,0.005441444954034494,0.014675150399967926,0.005043082940129092,0.006925920071879588,0.002491113174986181,0.009183905248256841
0.1142308,0.0008740032355419026,0.0034678307038016453,0.005449164715932982,0.014674767890878453,0.005046750684858918,0.00691855490582151,0.0024937734787707304,0.009147385646475534
0.11475,0.0008708917717684283,0.003448247497787911,0.005456794468700425,0.014673697230244625,0.005050724185589485,0.006911167394169217,0.002496611367636347,0.009110917194793887
0.1152692,0.0008681355412301037,0.0034284651512385238,0.005464333675797586,0.014671936736754522,0.005055007907449751,0.006903764820891069,0.0024996300731175694,0.009074511180615261
0.1157885,0.0008657416790745484,0.0034084869121915598,0.005471781787227357,0.014669484790335375,0.005059606228503226,0.006896354492963302,0.0025028327865574546,0.00903817873026603
0.1163077,0.0008637172810359218,0.0033883160584954343,0.005479138239903371,0.014666339835669657,0.005064523438811416,0.006888943740204137,0.002506222658844246,0.009001930807183568
0.1168269,0.0008620694016861558,0.0033679558975399488,0.005486402458034556,0.014662500385676104,0.005069763739536148,0.006881539915114879,0.0025098028001612183,0.008965778210176809
0.1173462,0.0008608050526803419,0.0033474097659956905,0.00549357385352562,0.014657965024952223,0.005075331242080997,0.006874150392727455,0.002513576279749504,0.008929731571758913
0.1178654,0.0008599312009966072,0.003326681029561689,0.005500651826393483,0.014652732413174756,0.005081229967271961,0.006866782570457855,0.0025175461256837102,0.008893801356551509
0.1183846,0.0008594547671708437,0.00330577308272122,0.005507635765199658,0.014646801288454582,0.00508746384457759,0.006859443867964851,0.0025217153246601116,0.008857997859759914
0.1189038,0.0008593826235266718,0.0032846893485056023,0.005514525047498543,0.014640170470642509,0.005094036711368733,0.00685214172701339,0.002526086821797196,0.008822331205718688
0.1194231,0.0008597215924010272,0.0032634332782658275,0.005521319040301592,0.014632838864582458,0.0051009523122180255,0.006844883611342043,0.0025306635204483227,0.00878681134650688
0.1199423,0.0008604784443657697,0.0032420083514518158,0.005528017100557302,0.014624805463308483,0.005108214298239237,0.006837677006533849,0.002535448282026229,0.008751448060632215
0.1204615,0.0008616598964457069,0.003220418075399074,0.005534618575646917,0.0146160693511821,0.005115826226466523,0.0068305294198898695,0.0025404439258391092,0.008716250951783456
0.1209808,0.0008632726103334363,0.0031986659851225155,0.005541122803895755,0.0146066297069663,0.005123791559273643,0.006823448380304747,0.0025456532289379824,0.008681229447650167
0.1215,0.0008653231906014116,0.003176755643117177,0.005547529115099988,0.014596485806832513,0.005132113663833117,0.006816441438143506,0.0025510789259750445,0.008646392798808996
0.1220192,0.0008678181829116456,0.003154690639165566,0.0055538368310687385,0.014585637027296806,0.005140795811615308,0.006809516165118842,0.0025567237090726985,0.008611750077675638
0.1225385,0.0008707640722234669,0.0031324745901513563,0.00556004526618129,0.014574082848081442,0.005149841177927393,0.006802680154168113,0.0025625902277029446,0.008577310177521578
0.1230577,0.0008741672809997489,0.003110111139879148,0.005566153727959211,0.014561822854897983,0.005159252841492135,0.006795941019329284,0.002568681088576787,0.008543081811554692
0.1235769,0.0008780341674120344,0.0030876039588999893,0.005572161517653158,0.014548856742148033,0.0051690337840663726,0.006789306395615067,0.002574998855543313,0.008509073512062813
0.1240962,0.0008823710235449788,0.0030649567443423583,0.005578067930844133,0.014535184315537875,0.005179186890099087,0.00678278393888455,0.002581546049498075,0.008475293629619319
0.1246154,0.0008871840736005412,0.003042173219748284,0.00558387225805891,0.014520805494603207,0.005189714946428911,0.006776381325711578,0.002588325148300408,0.008441750332349824
0.1251346,0.0008924794721023504,0.0030192571349142864,0.005589573785399391,0.014505720315140401,0.005200620642020895,0.00677010625324921,0.002595338586699303,0.00840845160525907
0.1256538,0.0008982633021006767,0.0029962122657368104,0.005595171795185568,0.014489928931540809,0.0052119065677423545,0.006763966439089511,0.002602588756267455,0.008375405249617123
0.1261731,0.0009045415733784409,0.0029730424140618278,0.005600665566611799,0.01447343161902483,0.005223575216177584,0.006757969621117962,0.0026100780053431023,0.008342618882404026
0.1266923,0.0009113202206586918,0.0029497514075383087,0.005606054376416022,0.014456228775772696,0.005235628981481267,0.006752123557361707,0.0026178086389792568,0.008310099935811987
0.1272115,0.0009186051018139814,0.0029263430994752667,0.005611337499561538,0.014438320924949155,0.005248070159270353,0.006746436025830862,0.002625782918899946,0.008277855656804205
0.1277308,0.0009264019960780654,0.0029028213687021104,0.005616514209930963,0.014419708716619618,0.0052609009465542115,0.006740914824352066,0.002634003063463044,0.008245893106729425
0.12825,0.0009347166022603562,0.0028791901194320456,0.005621583781031912,0.014400392929555634,0.0052741234417028925,0.006735567770393448,0.0026424712476292938,0.008214219160991259
0.1287692,0.0009435545369635524,0.002855453281128267,0.00562654548671403,0.014380374472927818,0.00528773964445327,0.006730402700880155,0.002651189602937073,0.008182840508771402
0.1292885,0.0009529213328048704,0.0028316148083726814,0.005631398601896919,0.01435965438788467,0.005301751455952914,0.006725427471999581,0.002660160217482486,0.008151763652805765
0.1298077,0.0009628224366413095,0.002807678680736883,0.005636142403308541,0.01433823384901586,0.005316160678841479,0.0067206499589954226,0.0026693851359043063,0.008120994909212602
0.1303269,0.0009732632077993763,0.0027836489026550897,0.005640776170233677,0.014316114165698677,0.00533096901736939,0.006716078055949641,0.002678866359373316,0.008090540407371623
0.1308462,0.0009842489163097063,0.0027595295032987184,0.005645299185271933,0.014293296783326486,0.005346178077553588,0.0067117196755513715,0.0026886058455855644,0.008060406089853069
0.1313654,0.000995784741147025,0.0027353245364522705,0.005649710735104888,0.01426978328441831,0.005361789367370078,0.006707582748851775,0.0026986055087590754,0.008030597712395657
0.1318846,0.0010078757684758913,0.002711038080390178,0.005654010111271921,0.014245575389608786,0.005377804296983007,0.006703675225003771,0.002708867219633538,0.008001120843932256
0.1324038,0.0010205269899026795,0.002686674237754262,0.005658196610954234,0.014220674958517972,0.005394224179009959,0.006700005070985567,0.002719392805472506,0.007971980866662108
0.1329231,0.0010337433007342688,0.002662237135431449,0.005662269537766651,0.014195083990500514,0.00541105022882317,0.006696580271306846,0.0027301840500676285,0.007943182976168342
0.1334423,0.001047529498243932,0.002637730924431393,0.005666228202556689,0.014168804625273783,0.0054282835648862705,0.006693408827696461,0.002741242693744419,0.007914732181579514
0.1339615,0.001061890279944944,0.0026131597797636914,0.0056700719242104005,0.014141839143424808,0.005445925209126204,0.006690498758770504,0.0027525704333690648,0.00788663330577386
0.1344808,0.001076830241872459,0.002588527900314383,0.005673800030464445,0.014114189966795969,0.005463976087339899,0.0066878580996795976,0.0027641689223557486,0.007858890985624938
0.135,0.0010923538768742378,0.0025638395087214227,0.005677411858723799,0.014085859658749835,0.005482437029635276,0.006685494901734302,0.0027760397706739653,0.007831509672287393
0.1355192,0.0011084655729108343,0.0025390988512488497,0.005680906756884488,0.014056850924314006,0.005501308770906165,0.0066834172320075725,0.0027881845448552854,0.007804493631521662
0.1360385,0.0011251696113658814,0.0025143101976593646,0.00568428408416066,0.014027166610207238,0.00552059195134068,0.006681633172913281,0.0028006047679990055,0.0077778469440566295
0.1365577,0.0011424701653671282,0.002489477841085056,0.005687543211915311,0.013996809704748625,0.005540287116962586,0.006680150821759887,0.0028133019197761097,0.007751573505989467
0.1370769,0.001160371298118898,0.002464606097896012,0.005690683524493901,0.013965783337651956,0.005560394720205159,0.0066789782902784,0.00282627743643095,0.00772567702922206
0.1375962,0.001178876961246637,0.0024396993075665634,0.005693704420060065,0.013934090779707576,0.005580915120517011,0.006678123704123779,0.002839532710780028,0.007700161041933564
0.1381154,0.0011979909931542276,0.0024147618325388877,0.005696605311432583,0.01390173544235439,0.005601848584999298,0.006677595202348933,0.002853069092207237,0.007675028889088654
0.1386346,0.001217717117394724,0.0023897980580836905,0.005699385626922723,0.013868720877144747,0.005623195289073699,0.006677400936850489,0.002866887886654925,0.007650283732981105
0.1391538,0.0012380589410551713,0.0023648123921576883,0.005702044811171019,0.0138350507751052,0.005644955317180506,0.006677549071785524,0.002880990356610108,0.007625928553812355
0.1396731,0.0012590199531561663,0.0023398092652575937,0.005704582325982519,0.01380072896599628,0.005667128663506138,0.006678047782958544,0.002895377721085175,0.007601966150304756
0.1401923,0.0012806035230668216,0.0023147931302702988,0.005706997651159501,0.013765759417474608,0.005689715232739375,0.006678905257177996,0.0029100511555924056,0.007578399140349359
0.1407115,0.0013028128989358084,0.0022897684623189684,0.005709290285330584,0.013730146234160781,0.005712714840855553,0.0066801296915816495,0.0029250117921116236,0.007555229961688123
0.1412308,0.0013256512061391695,0.002264739758604752,0.005711459746775141,0.01369389365661643,0.005736127215927926,0.006681729292930168,0.002940260719050296,0.007532460872630565
0.14175,0.0013491214457456012,0.002239711538243824,0.005713505574241876,0.013657006060233822,0.005759951998965384,0.0066837122768681366,0.002955798981195383,0.007510093952804934
0.1422692,0.0013732264929999102,0.0022146883420994965,0.005715427327760401,0.013619487954041356,0.005784188744775671,0.006686086867151788,0.0029716275796562355,0.00748813110394408
0.1427885,0.0013979690958253418,0.0021896747326091166,0.005717224589444624,0.013581343979428128,0.005808836922853221,0.006688861294842604,0.0029877474717978276,0.00746657405070628
0.1433077,0.0014233518733454788,0.0021646752936055,0.005718896964286742,0.0135425789087907,0.005833895918290659,0.006692043797465935,0.003004159571163615,0.00744542434153129
0.1438269,0.0014493773144263894,0.002139694630132622,0.005720444080940591,0.013503197644105113,0.005859365032713005,0.0066956426181337,0.0030208647473873094,0.007424683349532019
0.1443462,0.0014760477762397052,0.002114737368255311,0.00572186559249312,0.013463205215427076,0.005885243485233565,0.006699666004630229,0.0030378638260929137,0.007404352273422197
0.1448654,0.0015033654828473001,0.002089808154862687,0.005723161177222711,0.013422606779323231,0.005911530413430448,0.0067041222084602,0.003055157588782381,0.007384432138480446
0.1453846,0.0015313325238082323,0.002064911657465073,0.005724330539343101,0.013381407617236322,0.00593822487434259,0.006709019483857617,0.003072746772710339,0.0073649237975511395
0.1459038,0.0015599508528085979,0.00204005256398411,0.005725373409731617,0.013339613133787018,0.005965325845484168,0.006714366086754702,0.003090632070745374,0.007345827932082426
0.1464231,0.0015892222863149424,0.00201523558253582,0.005726289546640491,0.013297228855015083,0.0059928322258762075,0.006720170273709515,0.0031088141312174194,0.007327145053201729
0.1469423,0.0016191485022518666,0.0019904654412063534,0.005727078736390028,0.013254260426562574,0.006020742837094247,0.006726440300791085,0.0031272935577508604,0.00730887550282903
0.1474615,0.001649731038704456,0.0019657468878201937,0.005727740794042463,0.013210713611801664,0.006049056424330909,0.006733184422420752,0.0031460709090830007,0.007291019454828193
0.1479808,0.0016809712926461585,0.0019410846897005996,0.005728275564055401,0.013166594289909614,0.006077771657472313,0.006740410890168438,0.003165146698867594,0.007273576916196534
0.1485,0.001712870518692729,0.001916483633422062,0.005728682920913802,0.013121908453893407,0.006106887132187299,0.006748127951502516,0.0031845213954631753,0.007256547728292897
0.1490192,0.0017454298278828497,0.0018919485245545656,0.005728962769739541,0.013076662208566516,0.006136401371028489,0.00675634384849196,0.0032041954217059535,0.007239931568104355
0.1495385,0.0017786501864860348,0.001867484187399434,0.005729115046877596,0.013030861768480234,0.006166312824544269,0.006765066816459519,0.0032241691546670906,0.00722372794955174
0.1500577,0.0018125324148384199,0.0018430954647165306,0.005729139720457973,0.012984513455811952,0.006196619872400812,0.006774305082584746,0.0032444429253942315,0.007207936224834074
0.1505769,0.0018470771862070367,0.0018187872174425903,0.005729036790932477,0.012937623698212683,0.006227320824513217,0.006784066864455741,0.0032650170186372643,0.007192555585811942
0.1510962,0.0018822850256831794,0.0017945643244004494,0.005728806291585401,0.012890199026616145,0.006258413922184953,0.006794360368568666,0.0032858916725583866,0.0071775850654298
0.1516154,0.0019181563091054557,0.0017704316819989283,0.005728448289017184,0.012842246073011626,0.006289897339254725,0.00680519378877417,0.0033070670784266696,0.007163023539177116
0.1521346,0.0019546912620131353,0.0017463942039231174,0.005727962883600075,0.012793771568182821,0.006321769183249948,0.006816575304670059,0.0033285433802974058,0.007148869726588234
0.1526538,0.0019918899586303896,0.0017224568208148168,0.005727350209904832,0.012744782339414762,0.006354027496546012,0.006828513079939682,0.003350320674676575,0.007135122192780731
0.1531731,0.0020297523208820225,0.0016986244799428675,0.005726610437097493,0.012695285308170925,0.006386670257530492,0.006841015260635704,0.003372399010170836,0.007121779350032047
0.1536923,0.002068278117441277,0.0016749021448631263,0.005725743769305289,0.012645287487742511,0.006419695381771494,0.00685408997340906,0.0033947783871234433,0.007108839459394084
0.1542115,0.0021074669628102947,0.0016512947950678325,0.005724750445950892,0.012594795980871886,0.006453100723189312,0.006867745323683033,0.0034174587572365334,0.007096300632345432
0.1547308,0.002147318316433775,0.0016278074256241262,0.005723630742054263,0.012543817977352097,0.006486884075230597,0.006881989393772462,0.0034404400231802285,0.00708416083248085
0.15525,0.0021878314818463912,0.0016044450468014845,0.0057223849685015165,0.012492360751604353,0.006521043172044277,0.006896830240948192,0.0034637220381890607,0.007072417877237581
0.1557692,0.002229005605854491,0.00158121268368784,0.005721013472280375,0.012440431660235281,0.0065555756896585075,0.00691227589544694,0.003487304605646231,0.007061069439658076
0.1562885,0.0022708396777526237,0.0015581153757941693,0.005719516636681927,0.012388038139575768,0.006590479247157971,0.006928334358426842,0.0035111874786562356,0.007050113050188624
0.1568077,0.0023133325285754026,0.001535158176647326,0.005717894881468534,0.012335187703203116,0.006625751407860866,0.006945013599869086,0.0035353703596064027,0.007039546098513401
0.1573269,0.002356482830385231,0.0015123461533709142,0.00571614866300793,0.012281887939448259,0.006661389680494918,0.006962321556426317,0.003559852899717908,0.0070293658354233695
0.1578462,0.0024002890955963953,0.001489684386254001,0.005714278474373695,0.01222814650888972,0.006697391520371742,0.006980266129218764,0.0035846346985868253,0.007019569374719493
0.1583654,0.0024447496763360323,0.0014671779683074686,0.005712284845412446,0.012173971141835962,0.006733754330558877,0.006998855181579271,0.003609715303715796,0.007010153695149637
0.1588846,0.002489862763842484,0.001444832004807817,0.0057101683427781685,0.012119369635797765,0.006770475463048855,0.007018096536748691,0.0036350942100368826,0.007001115642378534
0.1594038,0.002535626387901549,0.0014226516128282344,0.0057079295699342435,0.012064349852952256,0.006807552219924628,0.0070379979755232445,0.003660770859426179,0.006992451930990118
0.1599231,0.002582038416321147,0.001400641920756775,0.005705569167123707,0.012008919717600158,0.006844981854520785,0.0070585672338555425,0.003686744640210729,0.006984159146521508
0.1604423,0.0026290965544449136,0.001378808067801496,0.00570308781130832,0.011953087213617883,0.00688276157258002,0.007079812000411123,0.003713014886668319,0.006976233747527812
0.1609615,0.0026767983447052533,0.001357155203482426,0.005700486216077054,0.011896860381905988,0.006920888533404319,0.00710173991408241,0.0037395808785206704,0.006968672067676944
0.1614808,0.0027251411662163696,0.0013356884871102551,0.005697765131524582,0.011840247317835577,0.006959359851000388,0.007124358561462163,0.0037664418404205705,0.006961470317873561
0.162,0.002774122234407808,0.0013144130872516442,0.005694925344100402,0.011783256168694184,0.006998172595218858,0.007147675474278573,0.0037935969414334527,0.0069546245884112455
0.1625192,0.0028237386006990436,0.0012933341811810649,0.005691967676429288,0.011725895131132653,0.0070373237928867995,0.007171698126794204,0.003821045294513941,0.006948130851152019
0.1630385,0.0028739871522156504,0.001272456954319071,0.005688892987103793,0.011668172448614544,0.0070768104289331306,0.0071964339331710234,0.003848785955977857,0.006941984961732329
0.1635577,0.002924864611547574,0.0012517865996569191,0.005685702170449634,0.01161009640886951,0.007116629447506493,0.007221890244803716,0.0038768179249701958,0.0069361826617946876
0.1640769,0.00297636753655003,0.001231328317167451,0.0056823961562648346,0.011551675341352036,0.007156777753085164,0.007248074347623438,0.003905140142929565,0.006930719581244141
0.1645962,0.0030284923201875434,0.0012110873132021491,0.00567897590953349,0.01149291761470688,0.0071972522115785476,0.007274993459374163,0.003933751493049594,0.0069255912405288
0.1651154,0.0030812351904216345,0.0011910687998742788,0.005675442430115104,0.011433831634242405,0.007238049651419778,0.00730265472686372,0.003962650799737807,0.006920793052943628
0.1656346,0.0031345922101426314,0.0011712779944280263,0.0056717967524103526,0.011374425839412963,0.007279166864648987,0.00733106522319158,0.0039918368280724694,0.006916320326956683
0.1661538,0.0031885592771461017,0.001151720118593554,0.005668039945004198,0.011314708701311354,0.0073206006079868085,0.0073602319449554586,0.004021308283257933,0.006912168268557006
0.1666731,0.0032431321241543545,0.0011324003979278998,0.005664173110287235,0.011254688720172372,0.007362347603897769,0.007390161809438715,0.0040510638100790175,0.006908331983623339
0.1671923,0.003298306318883447,0.0011133240611416637,0.005660197384056147,0.011194374422888266,0.00740440454164326,0.007420861651780515,0.004081101992354955,0.006904806480312839
0.1677115,0.0033540772641561167,0.0010944963394114366,0.005656113935094093,0.011133774360536983,0.007446768078323839,0.007452338222130674,0.004111421352393466,0.006901586671468993
0.1682308,0.0034104401980610236,0.0010759224656779365,0.005651923964731871,0.011072897105923954,0.007489434839910686,0.0074845981827910725,0.00414202035044549,0.006898667377047943
0.16875,0.0034673901941586587,0.0010576076739298196,0.005647628706390651,0.011011751251138138,0.007532401422266068,0.007517648105345513,0.0041728973841611726,0.006896043326562471
0.1692692,0.003524922161734284,0.0010395571984731366,0.005643229425107054,0.010950345405123036,0.007575664392152723,0.007551494467779869,0.00420405078804767,0.006893709161542894
0.1697885,0.003583030846098232,0.001021776273186408,0.005638727417041319,0.010888688191263388,0.007619220288232045,0.007586143651594354,0.004235478832929374,0.006891659438014162
0.1703077,0.0036417108289338667,0.0010042701307613016,0.005634124008969297,0.010826788244988233,0.007663065622050945,0.007621601938909688,0.004267179725411143,0.006889888628988501
0.1708269,0.00370095652869351,0.0009870440019288942,0.005629420557759038,0.010764654211390981,0.007707196879017192,0.007657875509568947,0.0042991516073451015,0.006888391126972978
0.1713462,0.0037607622010425936,0.0009701031146715128,0.005624618449832716,0.01070229474286716,0.007751610519363068,0.007694970438236809,0.004331392555301593,0.006887161246491393
0.1718654,0.003821121939352308,0.0009534526934201412,0.005619719100614707,0.010639718496770477,0.007796302979097086,0.0077328926914979395,0.004363900580044836,0.006886193226619934
0.1723846,0.0038820296752410154,0.0009370979582373926,0.005614723953966664,0.01057693413308775,0.007841270670943536,0.007771648124956197,0.004396673626013874,0.006885481233536
0.1729038,0.003943479179164703,0.0009210441239860599,0.0056096344816104655,0.010513950312133277,0.007886509985269591,0.007811242480336343,0.004429709570809395,0.006885019363079676
0.1734231,0.004005464061056771,0.0009052963994832736,0.00560445218254,0.01045077569226314,0.007932017290999693,0.00785168138258991,0.004463006224687042,0.00688480164332732
0.1739423,0.004067977771017464,0.000889859986640305,0.005599178582422708,0.010387418927609903,0.007977788936516917,0.00789297033700682,0.004496561330057812,0.00688482203717675
0.1744615,0.0041310136000532365,0.0008747400795880714,0.005593815232991894,0.01032388866583807,0.008023821250551054,0.007935114726334357,0.004530372560996177,0.006885074444943481
0.1749808,0.00419456468086635,0.0008599418637883975,0.005588363711430753,0.010260193545920589,0.008070110543053033,0.007978119807905098,0.004564437522756538,0.006885552706967459
0.1755,0.004258623988694974,0.0008454705151310899,0.005582825619749074,0.010196342195936625,0.00811665310605541,0.008021990710775322,0.004598753751298646,0.006886250606229681
0.1760192,0.004323184342204055,0.0008313311990168765,0.00557720258415358,0.010132343230890739,0.008163445214518526,0.008066732432875569,0.0046333187128225865,0.006887161870978048
0.1765385,0.004388238404427201,0.0008175290694262639,0.005571496254412793,0.010068205250553523,0.00821048312716198,0.00811234983817488,0.004668129803313947,0.006888280177361748
0.1770577,0.004453778683759831,0.0008040692679743639,0.00556570830321731,0.010003936837323726,0.008257763087281067,0.008158847653860397,0.004703184348099758,0.006889599152073429
0.1775769,0.004519797535003786,0.0007909569229517436,0.005559840425536328,0.009939546554111858,0.008305281323547823,0.008206230467533904,0.004738479601415828,0.006891112374998379
0.1780962,0.004586287160463613,0.0007781971483513633,0.00555389433797122,0.00987504294224525,0.008353034050796319,0.008254502724426913,0.004774012745986098,0.006892813381869901
0.1786154,0.004653239611094714,0.0007657950428816769,0.0055478717781069,0.00981043451939465,0.008401017470791953,0.008303668724635904,0.004809780892614719,0.006894695666930028
0.1791346,0.004720646787703513,0.0007537556889659819,0.005541774503861734,0.00974572977752238,0.008449227772984418,0.008353732620379278,0.004845781079791565,0.006896752685594685
0.1796538,0.004788500442199834,0.0007420841517281251,0.005535604292836674,0.00968093718085213,0.00849766113524413,0.008404698413277562,0.004882010273311957,0.006898977857122368
0.1801731,0.004856792178901636,0.0007307854779646888,0.005529362941664349,0.009616065163860444,0.008546313724581983,0.008456569951658327,0.0049184653659114334,0.00690136456728536
0.1806923,0.004925513455892242,0.0007198646951038029,0.005523052265358795,0.009551122129289883,0.008595181697852443,0.00850935092788731,0.004955143176916504,0.006903906171042454
0.1812115,0.004994655586430199,0.0007093268101507538,0.005516674096666578,0.009486116446183874,0.008644261202440193,0.008563044875727106,0.004992040451912397,0.006906595995212075
0.1817308,0.00506420974041185,0.0006991768086205719,0.005510230285420063,0.009421056447943273,0.008693548376930677,0.008617655167724824,0.00502915386242888,0.0069094273411447115
0.18225,0.005134166945886673,0.0006894196534577943,0.005503722697893604,0.009355950430404743,0.008743039351765,0.00867318501263,0.005066480005645282,0.006912393487393477
0.1827692,0.005204518090625434,0.0006800602839436036,0.005497153216163416,0.0092908066499412,0.008792730249879744,0.008729637452844137,0.005104015404115803,0.006915487692381591
0.1832885,0.005275253923741152,0.0006711036145905522,0.005490523737471908,0.00922563332158483,0.00884261718733222,0.008787015361903188,0.005141756505516209,0.006918703197065515
0.1838077,0.005346365057362825,0.0006625545340250854,0.005483836173597219,0.009160438617173285,0.008892696273911791,0.008845321441994389,0.005179699682412963,0.006922033227592467
0.1843269,0.005417841968361901,0.0006544179038580722,0.005477092450228623,0.009095230663519865,0.00894296361373791,0.008904558221508865,0.00521784123205584,0.006925470997950983
0.1848462,0.005489675000131406,0.0006466985575435608,0.005470294506348475,0.009030017540608561,0.0089934153058456,0.008964728052631519,0.005256177376195013,0.006929009712613289
0.1853654,0.005561854364417672,0.0006394012992259753,0.005463444293621322,0.008964807279814751,0.009044047444759135,0.0090258331089697,0.005294704260923641,0.00693264256916831
0.1858846,0.005634370143204547,0.0006325309025759808,0.005456543775790769,0.008899607862152395,0.009094856121054642,0.009087875383222201,0.0053334179565468764,0.006936362760944308
0.1864038,0.005707212290649968,0.0006260921096152555,0.005449594928084655,0.008834427216548467,0.009145837421912367,0.009150856684890116,0.005372314457478287,0.006940163479620273
0.1869231,0.0057803706350747575,0.0006200896295304172,0.005442599736629093,0.008769273218145326,0.009196987431659382,0.009214778638031107,0.0054113896821646,0.006944037917825296
0.1874423,0.00585383488100345,0.0006145281374763668,0.005435560197871921,0.008704153686631652,0.009248302232303544,0.009279642679058647,0.005450639473039708,0.006947979271725185
0.1879615,0.005927594611256975,0.0006094122733693186,0.005428478318016115,0.008639076384602574,0.009299777904059534,0.009345450054587846,0.005490059596508826,0.0069519807435956035
0.1884808,0.00600163928909695,0.000604746640669796,0.005421356112463722,0.008574049015949539,0.00935141052586788,0.00941220181932948,0.005529645742963721,0.006956035544380976
0.189,0.006075958260421307,0.0006005358051558834,0.005414195605270843,0.008509079224280448,0.009403196175907815,0.009479898834033815,0.005569393526829896,0.006960136896238392
0.1895192,0.006150540756010949,0.0005967842936870279,0.0054069988286142,0.008444174591370597,0.009455130932104878,0.009548541763485824,0.005609298486646633,0.0069642780350657445
0.1900385,0.0062253758938270775,0.0005934965929586872,0.005399767822269761,0.008379342635644873,0.009507210872634111,0.009618131074553345,0.005649356085180749,0.006968452213013381
0.1905577,0.006300452681358838,0.0005906771482481223,0.005392504633103894,0.00831459081069168,0.00955943207641971,0.009688667034289708,0.005689561709574934,0.006972652700978625
0.1910769,0.006375760018020818,0.000588330362151632,0.005385211314577445,0.008249926503809053,0.009611790623631974,0.009760149708092304,0.005729910671531499,0.006976872791082618
0.1915962,0.006451286697600002,0.0005864605933135281,0.005377889926263114,0.008185357034583337,0.009664282596182308,0.009832578957918567,0.0057703982075323354,0.0069811057991290585
0.1921154,0.006527021410751662,0.0005850721551471439,0.005370542533376501,0.00812088965350086,0.009716904078217044,0.009905954440560798,0.005811019479095835,0.006985345067044472
0.1926346,0.0066029527475436525,0.0005841693145481736,0.005363171206321068,0.008056531540592951,0.009769651156610765,0.009980275605981238,0.005851769573071531,0.006989583965299705
0.1931538,0.006679069200048561,0.0005837562906006357,0.005355778020247296,0.007992289804114665,0.009822519921459799,0.010055541695708766,0.005892643501973186,0.006993815895312391
0.1936731,0.006755359164983126,0.0005838372532757633,0.005348365054626234,0.007928171479257543,0.009875506466576551,0.010131751741298585,0.005933636204351043,0.006998034291830157
0.1941923,0.006831810946394307,0.0005844163221241266,0.005340934392837607,0.007864183526896688,0.009928606889985278,0.010208904562856266,0.005974742545203964,0.007002232625294387
0.1947115,0.006908412758391365,0.0005854975649613,0.0053334881217726345,0.007800332832372428,0.009981817294419885,0.010286998767627472,0.006015957316432122,0.007006404404184281
0.1952308,0.00698515272792324,0.0005870849965473914,0.005326028331451632,0.007736626204306762,0.010035133787824268,0.010366032748654646,0.006057275237330883,0.007010543177340973
0.19575,0.00706201889760053,0.0005891825772607453,0.0053185571146565054,0.007673070373454769,0.010088552483855654,0.010446004683501932,0.006098690955126481,0.007014642536271426
0.1962692,0.007138999228561293,0.0005917942117661343,0.005311076566578171,0.00760967199159109,0.010142069502391316,0.01052691253304952,0.00614019904555407,0.007018696117431734
0.1967885,0.007216081603379784,0.0005949237476777458,0.005303588784478967,0.0075464376304315624,0.01019568097003897,0.010608754040358609,0.00618179401347867,0.007022697604489454
0.1973077,0.007293253829017296,0.0005985749742172788,0.005296095867370063,0.007483373780590007,0.010249383020651055,0.01069152672960809,0.006223470293559486,0.007026640730564506
0.1978269,0.00737050363981414,0.0006027516208674684,0.00528859991570387,0.007420486850570123,0.010303171795843018,0.010775227905104042,0.0062652222509580555,0.007030519280448144
0.1983462,0.007447818700521758,0.0006074573560213668,0.005281103031081425,0.0073577831657924055,0.010357043445515697,0.010859854650363024,0.006307044182090617,0.007034327092799407
0.1988654,0.007525186609373949,0.0006126957856277293,0.005273607315974672,0.007295268967655976,0.010410994128381755,0.010945403827270118,0.006348930315425072,0.007038058062318492
0.1993846,0.00760259490119613,0.0006184704518328685,0.005266114873463562,0.0072329504126351215,0.010465020012496135,0.011031872075312626,0.006390874812322869,0.007041706141896389
0.1999038,0.007680031050551562,0.0006247848316193542,0.005258627806987836,0.00717083357141039,0.010519117275790404,0.011119255810890278,0.006432871767926133,0.007045265344740108
0.2004231,0.007757482474923507,0.000631642335441949,0.005251148220113349,0.007108924428034006,0.010573282106610807,0.011207551226702776,0.006474915212090323,0.007048729746472782
0.2009423,0.00783493653793225,0.0006390463058611828,0.005243678216312731,0.007047228879129402,0.010627510704259773,0.011296754291215494,0.006516999110362671,0.007052093487207904
0.2014615,0.00791238055258602,0.0006470000161749755,0.005236219898760185,0.006985752733124675,0.010681799279540544,0.01138686074820409,0.006559117365006626,0.007055350773596905
0.2019808,0.0079898017845648,0.0006555066690487328,0.0052287753701401865,0.006924501709519761,0.010736144055304535,0.011477866116378724,0.006601263816072521,0.007058495880849222
0.2025,0.008067187455536029,0.0006645693951443448,0.005221346732469796,0.006863481438187172,0.010790541267000955,0.011569765689088482,0.006643432242514611,0.007061523154723973
0.2030192,0.008144524746501234,0.0006741912517485304,0.005213936086934284,0.006802697458706135,0.010844987163228133,0.011662554534106521,0.006685616363354624,0.007064427013492301
0.2035385,0.008221800801172565,0.0006843752214009734,0.005206545533735722,0.0067421552197299344,0.010899478006285976,0.011756227493496368,0.006727809838891889,0.007067201949869411
0.2040577,0.008299002729378202,0.0006951242105227036,0.00519917717195418,0.006681860078386269,0.010954010072728986,0.011850779183559635,0.006770006271960097,0.0070698425329152915
0.2045769,0.008376117610495526,0.0007064410480451751,0.005191833099421155,0.006621817299710382,0.011008579653919251,0.011946203994865474,0.006812199209230677,0.00707234340990309
0.2050962,0.008453132496910968,0.0007183284840404943,0.005184515412604867,0.00656203205611071,0.011063183056578954,0.012042496092361858,0.0068543821425626796,0.007074699308154084
0.2056154,0.008530034417505371,0.0007307891883532579,0.005177226206507042,0.006502509426866841,0.011117816603341938,0.01213964941556882,0.006896548510399066,0.007076905036838197
0.2061346,0.008606810381163767,0.0007438257492344692,0.005169967574570837,0.006443254397659551,0.011172476633303993,0.012237657678853677,0.0069386916992091865,0.0070789554887389534
0.2066538,0.008683447380308488,0.000757440671978008,0.005162741608599522,0.006384271860132792,0.011227159502571556,0.012336514371788223,0.00698080504497723,0.007080845641981804
0.2071731,0.008759932394454644,0.0007716363775601394,0.005155550398685574,0.006325566611487569,0.011281861584808511,0.012436212759587813,0.007022881834736323,0.007082570561724734
0.2076923,0.00883625239378703,0.0007864152012825549,0.005148396033149816,0.006267143354107709,0.011336579271780767,0.012536745883632213,0.0070649153081479964,0.007084125401810096
0.2082115,0.008912394342757679,0.0008017793914194454,0.005141280598490219,0.006209006695217574,0.011391308973898217,0.012638106562068062,0.00710689865912663,0.007085505406376631
0.2087308,0.008988345203703313,0.0008177311078691246,0.005134206179340032,0.006151161146571827,0.011446047120753705,0.012740287390492763,0.007148825037508529,0.007086705911430712
0.20925,0.009064091940481979,0.0008342724208107385,0.0051271748584348475,0.006093611124177319,0.011500790161658518,0.01284328074271951,0.007190687550765201,0.007087722346375825
0.2097692,0.009139621522128155,0.0008514053093666192,0.005120188716588248,0.006036360948047202,0.011555534566173876,0.012947078771623209,0.007232479265760414,0.007088550235499343
0.2102885,0.009214920926525672,0.0008691316602708543,0.0051132498326756665,0.0059794148419873286,0.011610276824637809,0.013051673410066997,0.007274193210550514,0.007089185199415599
0.2108077,0.009289977144097628,0.0008874532665446677,0.005106360283626112,0.005922776933415003,0.01166501344868693,0.013157056371909118,0.007315822376227483,0.007089622956464277
0.2113269,0.009364777181512567,0.0009063718261792193,0.0050995221444214865,0.005866451253210081,0.011719740971772538,0.013263219153089902,0.0073573597188041516,0.007089859324063102
0.2118462,0.009439308065406037,0.0009258889408264416,0.005092737488103206,0.00581044173559842,0.011774455949670682,0.013370153032798643,0.007398798161140917,0.0070898902200138576
0.2123654,0.00951355684611657,0.0009460061144985431,0.005086008385785874,0.005754752218067648,0.011829154960985869,0.013477849074720119,0.007440130594913325,0.007089711663760839
0.2128846,0.009587510601435093,0.0009667247522768103,0.005079336906677727,0.005699386441315252,0.01188383460764823,0.013586298128360364,0.0074813498826197915,0.007089319777600986
0.2134038,0.009661156440366695,0.0009880461590303412,0.00507272511810756,0.005644348049228976,0.011938491515403972,0.013695490830451351,0.0075224488596287485,0.007088710787845068
0.2139231,0.009734481506903599,0.0010099715381453427,0.005066175085557827,0.005589640588899524,0.011993122334298922,0.013805417606434094,0.007563420336264437,0.007087881025929476
0.2144423,0.009807472983808133,0.0010325019902656194,0.005059688872703587,0.005535267510665589,0.012047723739154973,0.01391606867201969,0.007604257099930572,0.007086826929478265
0.2149615,0.009880118096404471,0.001055638512044884,0.00505326854145699,0.005481232168191183,0.0121022924300392,0.014027434034827679,0.007644951917271059,0.0070855450433151045
0.2154808,0.00995240411637782,0.0010793819949115177,0.005046916152016964,0.005427537818575253,0.012156825132725323,0.014139503496101095,0.0076854975363669295,0.007084032020424907
0.216,0.010024318365579755,0.0011037332238464268,0.005040633762923772,0.005374187622493525,0.012211318599147154,0.014252266652497453,0.00772588668896862,0.007082284622864876
0.2165192,0.01009584821983829,0.0011286928761746512,0.005034423431118063,0.005321184644372509,0.012265769607843572,0.014365712897954802,0.007766112092762703,0.007080299722624782
0.2170385,0.010166981112771251,0.001154261520371407,0.005028287212004056,0.005268531852595601,0.01232017496439455,0.01447983142563189,0.007806166453672195,0.007078074302436328
0.2175577,0.010237704539601458,0.0011804396148832642,0.005022227159516399,0.005216232119741154,0.012374531501847644,0.014594611229921357,0.00784604246818952,0.0070756054565315595
0.2180769,0.01030800606097216,0.0012072275069651768,0.005016245326190248,0.0051642882228523845,0.012428836081134311,0.014710041108534754,0.007885732825741242,0.007072890391350359
0.2185962,0.010377873306761128,0.0012346254315340928,0.00501034376323408,0.005112702843738947,0.012483085591475464,0.01482610966465812,0.007925230211083642,0.007069926426197176
0.2191154,0.01044729397989175,0.001262633510039883,0.005004524520604698,0.005061478569309974,0.01253727695077563,0.014942805309176684,0.007964527306728178,0.00706671099384726
0.2196346,0.010516255860139411,0.001291251749354328,0.0049987896470838795,0.005010617891938355,0.01259140710600513,0.015060116262967225,0.008003616795395924,0.007063241641102738
0.2201538,0.010584746807931384,0.001320480040678906,0.004993141190356053,0.0049601232098559845,0.012645473033569637,0.015178030559256562,0.008042491362499998,0.007059516029298975
0.2206731,0.010652754768138314,0.0013503181584721203,0.004987581197086387,0.004909996827579681,0.012699471739666486,0.015296536046044546,0.008081143698654994,0.007055531934761731
0.2211923,0.010720267773855404,0.0013807657593970994,0.004982111712998636,0.004860240956367464,0.012753400260627037,0.015415620388589815,0.008119566502212369,0.0070512872492156965
0.2217115,0.01078727395017124,0.0014118223812901946,0.004976734782952073,0.004810857714704851,0.012807255663244343,0.015535271071956505,0.008157752481820688,0.007046779980145055
0.2222308,0.010853761517922155,0.0014434874421512987,0.00497145245101678,0.00476184912882081,0.012861035045085295,0.015655475403619994,0.008195694359009612,0.00704200825110675
0.22275,0.010919718797429945,0.0014757602391565947,0.00496626676054659,0.004713217133232993,0.012914735534786377,0.015776220516129594,0.008233384870796405,0.007036970301997219
0.2232692,0.010985134212220641,0.0015086399476944372,0.00496117975424888,0.0046649635713218755,0.012968354292332101,0.015897493369826106,0.008270816772313725,0.00703166448927338
0.2237885,0.011049996292721988,0.0015421256204250643,0.004956193474250433,0.004617090195933422,0.013021888509315164,0.016019280755611952,0.008307982839457387,0.007026089286128632
0.2243077,0.011114293679937184,0.0015762161863648295,0.004951309962158554,0.0045695986700098655,0.013075335409177399,0.016141569297771566,0.008344875871552766,0.007020243282624679
0.2248269,0.011178015129092405,0.0016109104499956344,0.004946531259116636,0.004522490567248224,0.013128692247430573,0.016264345456839566,0.008381488694038418,0.007014125185779876
0.2253462,0.011241149513255572,0.0016462070904002324,0.004941859405853377,0.004475767372786116,0.01318195631185609,0.016387595532514225,0.008417814161165464,0.0070077338196148425
0.2258654,0.011303685826923858,0.0016821046604240664,0.004937296442724898,0.004429430483914448,0.013235124922682844,0.016511305666613664,0.008453845158711233,0.007001068125155951
0.2263846,0.011365613189577461,0.0017186015858642926,0.0049328444097490615,0.004383481210816514,0.013288195432742443,0.016635461846072154,0.008489574606705639,0.006994127160397365
0.2269038,0.011426920849197175,0.0017556961646866321,0.004928505346631338,0.004337920777332989,0.01334116522760097,0.016760049905973875,0.008524995462168693,0.00698691010022218
0.2274231,0.011487598185743417,0.0017933865662706837,0.0049242812927816435,0.004292750321752308,0.013394031725666557,0.01688505553262153,0.00856010072185757,0.0069794162362832495
0.2279423,0.011547634714594482,0.0018316708306843213,0.0049201742873216155,0.0042479708976258515,0.013446792378271968,0.017010464266637156,0.008594883425021608,0.006971644976844269
0.2284615,0.011607020089941817,0.001870546867987799,0.004916186369081881,0.004203583474607372,0.013499444669731294,0.017136261506092616,0.008629336656163625,0.006963595846581678
0.2289808,0.011665744108140263,0.0019100124575681858,0.004912319576588887,0.0041595889393160074,0.013551986117369979,0.017262432509667264,0.00866345354780591,0.006955268486347971
0.2295,0.011723796711011307,0.0019500652475047523,0.00490857594804092,0.004115988096222244,0.013604414271527372,0.01738896239983046,0.008697227283259225,0.006946662652897012
0.2300192,0.011781167989097474,0.001990702753965932,0.0049049575212729455,0.004072781668556136,0.013656726715531227,0.01751583616604666,0.008730651099393142,0.006937778218572007
0.2305385,0.011837848184866039,0.0020319223606384738,0.00490146633370993,0.00402997029923705,0.013708921065643696,0.01764303866800099,0.008763718289405953,0.006928615170956778
0.2310577,0.011893827695860313,0.002073721318189403,0.004898104422308311,0.003987554551824185,0.013760994970978513,0.01777055463884333,0.008796422205592373,0.006919173612491021
0.2315769,0.011949097077796723,0.0021160967437613793,0.004894873823485335,0.003945534911487098,0.013812946113389065,0.017898368688448976,0.008828756262107228,0.006909453760050257
0.2320962,0.012003647047605915,0.002159045620502054,0.004891776573035945,0.0039039117859954366,0.013864772207327042,0.018026465306694123,0.008860713937723256,0.006899455944491154
0.2326154,0.012057468486416114,0.0022025647971279914,0.004888814706036982,0.0038626855067270902,0.013916470999671306,0.01815482886674436,0.008892288778581144,0.0068891806101629
0.2331346,0.012110552442477008,0.002246650987523725,0.004885990256738487,0.003821856329693963,0.013968040269526553,0.018283443628354316,0.008923474400929877,0.006878628314385275
0.2336538,0.012162890134022615,0.0022913007703764922,0.004883305258442016,0.0037814244365845504,0.014019477827991303,0.018412293741176564,0.008954264493855398,0.0068677997268940605
0.2341731,0.012214472952071674,0.0023365105888471945,0.004880761743366029,0.0037413899358225023,0.014070781517894811,0.01854136324807785,0.008984652821995549,0.006856695629254411
0.2346923,0.01226529246316429,0.0023822767502781257,0.004878361742498558,0.003701752863640356,0.014121949213502428,0.018670636088460563,0.00901463322823919,0.006845316914242851
0.2352115,0.01231534041203367,0.002428595425938018,0.004876107285437483,0.0036625131851676035,0.014172978820188926,0.0188000961015876,0.009044199636407324,0.006833664585198505
0.2357308,0.012364608724211974,0.002475462650804945,0.004874000400218855,0.003623670795532264,0.014223868274079348,0.018929727029909,0.009073346053914027,0.006821739755344203
0.23625,0.012413089508569423,0.002522874323387625,0.004872043113133704,0.0035852255209751337,0.014274615541656857,0.019059512522389015,0.009102066574405054,0.006809543647078077
0.2367692,0.012460775059785873,0.002570826205585651,0.004870237448533812,0.0035471771199758724,0.014325218619337159,0.019189436137832794,0.00913035538037197,0.006797077591236267
0.2372885,0.01250765786075418,0.0026193139225891638,0.004868585428626942,0.0035095252843900934,0.014375675533009079,0.019319481348211962,0.009158206745739778,0.00678434302632731
0.2378077,0.01255373058491466,0.0026683329628184598,0.004867089073262023,0.003472269640596628,0.014425984337541033,0.019449631541988643,0.009185615038426019,0.0067713414977387774
0.2383269,0.01259898609851999,0.00271787867790401,0.004865750399704813,0.0034354097506541117,0.014476143116253167,0.019579870027437482,0.009212574722869467,0.006758074656916663
0.2388462,0.012643417462829853,0.00276794628270736,0.00486457142240461,0.0033989451134660313,0.01452614998035516,0.019710180035965343,0.009239080362526552,0.00674454426051805
0.2393654,0.012687017936234586,0.0028185308553833593,0.004863554152752586,0.003362875165953344,0.01457600306834978,0.01984054472542854,0.009265126622333766,0.006730752169537494
0.2398846,0.012729780976307111,0.0028696273374841795,0.00486270059883231,0.0033271992842337896,0.014625700545402423,0.01997094718344767,0.0092907082711343,0.00671670034840753
0.2404038,0.012771700241782329,0.0029212305341055774,0.0048620127651630585,0.0032919167848069883,0.014675240602676885,0.02010137043072024,0.009315820184067196,0.006702390864073717
0.2409231,0.012812769594463244,0.0029733351140758387,0.004861492652436458,0.003257026925744415,0.014724621456637626,0.020231797424331475,0.009340457344917256,0.006687825885044506
0.2414423,0.012852983101053084,0.003025935610187847,0.004861142257247051,0.0032225289078833793,0.014773841348318842,0.0203622110610636,0.009364614848423934,0.006673007680416236
0.2419615,0.01289233503491263,0.0030790264194746975,0.004860963571817305,0.0031884218760241446,0.014822898542560702,0.020492594180703917,0.009388287902547393,0.0066579386188735
0.2424808,0.012930819877742044,0.0031326018035292744,0.004860958583717676,0.003154704920129337,0.014871791327213078,0.020622929569351925,0.009411471830689888,0.006642621167665125
0.243,0.01296843232118647,0.0031866558888681644,0.004861129275582279,0.0031213770765248137,0.014920518012307192,0.02075319996272574,0.009434162073870581,0.00662705789155601
0.2435192,0.013005167268364549,0.0032411826673402777,0.004861477624820758,0.0030884373291011724,0.014969076929195685,0.020883388049468047,0.00945635419285185,0.006611251451755047
0.2440385,0.013041019835319021,0.003296175996580527,0.00486200560332695,0.003055884610515104,0.015017466429661671,0.02101347647445195,0.00947804387021514,0.006595204604819418
0.2445577,0.013075985352388481,0.003351629600508876,0.004862715177184899,0.0030237178033898156,0.01506568488499746,0.02114344784208709,0.009499226912384365,0.006578920201535516
0.2450769,0.013110059365499277,0.0034075370698750645,0.004863608306372803,0.0029919357415137734,0.015113730685053627,0.021273284719626466,0.009519899251594867,0.006562401185776796
0.2455962,0.01314323763737648,0.0034638918628492788,0.004864686944465487,0.0029605372110370455,0.015161602237259089,0.021402969640474407,0.009540056947806018,0.006545650593338889
0.2461154,0.013175516148672744,0.003520687305659054,0.004865953038335943,0.002929520951664522,0.01520929796561281,0.02153248510749621,0.00955969619055555,0.006528671550752297
0.2466346,0.013206891099013827,0.003577916593272666,0.004867408527856543,0.002898885657845318,0.015256816309647682,0.021661813596329894,0.009578813300753742,0.006511467274073014
0.2471538,0.01323735890795958,0.003635572790129293,0.004869055345600482,0.0028686299799576495,0.015304155723367038,0.021790937558700547,0.009597404732415625,0.006494041067651447
0.2476731,0.01326691621587911,0.0036936488309162346,0.004870895416544045,0.0028387525254884773,0.01535131467415426,0.021919839425737674,0.00961546707432943,0.00647639632287995
0.2481923,0.013295559884738859,0.00375213752139352,0.004872930657770268,0.0028092518602072245,0.015398291641655813,0.02204850161129586,0.009632997051659601,0.0064585365169193285
0.2487115,0.013323286998802291,0.0038110315392662114,0.004875162978174553,0.0027801265093328653,0.015445085116638054,0.02217690651527889,0.009649991527482854,0.0064404652114045694
0.2492308,0.013350094865239881,0.0038703234351047575,0.00487759427817282,0.002751374958693706,0.01549169359981819,0.02230503652696756,0.009666447504255944,0.006422186051130049
0.24975,0.013375981014648082,0.003930005633313712,0.00488022644941274,0.002722995655879156,0.015538115600669927,0.02243287402835119,0.009682362125213917,0.0064037027627144374
0.2502692,0.013400943201475918,0.003990070433149134,0.004883061374488581,0.0026949870113828016,0.015584349636204527,0.02256040139746301,0.009697732675697802,0.006385019153245482
0.2507885,0.01342497940435774,0.004050510009784954,0.004886100926660152,0.002667347399736067,0.01563039422972832,0.022687601011719686,0.009712556584410698,0.006366139108904836
0.2513077,0.013448087826350609,0.004111316415428583,0.0048893469695763265,0.0026400751606317657,0.01567624790957782,0.022814455251265197,0.00972683142460125,0.006347066593573122
0.2518269,0.013470266895074762,0.004172481580485998,0.004892801357003575,0.002613168600036857,0.015721909207833815,0.02294094650231923,0.009740554915173564,0.006327805647415408
0.2523462,0.013491515262755568,0.0042339973147765605,0.0048964659325599225,0.002586625991293752,0.015767376659015765,0.023067057160530403,0.009753724921722667,0.006308360385447367
0.2528654,0.01351183180616534,0.004295855308797766,0.0049003425294547156,0.0025604455762095503,0.015812648798757992,0.02319276963433446,0.009766339457494859,0.006288734996082375
0.2533846,0.013531215626463497,0.00435804713504014,0.004904432970234569,0.0025346255661326486,0.015857724162469205,0.023318066348317734,0.009778396684272427,0.006268933739659879
0.2539038,0.013549666048933704,0.004420564249352453,0.0049087390665358555,0.002509164143016213,0.015902601283976935,0.023442929746586034,0.009789894913182511,0.006248960946955384
0.2544231,0.013567182622616799,0.004483397992357441,0.004913262618844079,0.0024840594604680767,0.015947278694158535,0.023567342296138986,0.00980083260543005,0.00622882101767244
0.2549423,0.013583765119838612,0.004546539590918159,0.004918005416260463,0.0024593096447866635,0.015991754919560473,0.02369128649025007,0.00981120837295489,0.006208518418917003
0.2554615,0.013599413535632108,0.004609980159655107,0.004922969236276076,0.0024349127959826075,0.016036028481007672,0.02381474485185241,0.00982102097901311,0.0061880576836545985
0.2559808,0.01361412808705366,0.004673710702514238,0.004928155844553804,0.002410866988785773,0.01608009789220472,0.023937699936930536,0.009830269338682746,0.006167443409150652
0.2565,0.01362790921239357,0.004737722114385899,0.004933566994718458,0.0023871702736374357,0.016123961658330858,0.024060134337918346,0.009838952519294064,0.006146680255394412
0.2570192,0.013640757570281293,0.00480200518277477,0.004939204428155325,0.0023638206776674347,0.01616761827463066,0.02418203068710372,0.009847069740784644,0.006125772943506902
0.2575385,0.013652674038686025,0.004866550589520789,0.0049450698738174315,0.0023408162056561556,0.016211066225002513,0.02430337166004036,0.009854620375979593,0.006104726254133289
0.2580577,0.013663659713813506,0.004931348912571033,0.004951165048041799,0.002318154840981225,0.01625430398058682,0.024424139978967797,0.009861603950797262,0.006083545025820098
0.2585769,0.013673715908899984,0.004996390627802489,0.00495749165437494,0.0022958345465488475,0.016297329998355977,0.02454431841624103,0.009868020144380856,0.00606223415337766
0.2590962,0.013682844152904276,0.0050616661108955924,0.004964051383407783,0.002273853265709724,0.016340142719708,0.024663889797771548,0.009873868789156389,0.006040798586228184
0.2596154,0.013691046189098912,0.0051271656392583844,0.00497084591262019,0.002252208923159503,0.016382740569065645,0.024782837006481685,0.009879149870817417,0.0060192433267398674
0.2601346,0.013698323973561431,0.005192879394001097,0.0049778769062352015,0.00223089942582372,0.01642512195248274,0.024901142985774442,0.009883863528237008,0.005997573428547453
0.2606538,0.01370467967356708,0.00525879746196094,0.00498514601508306,0.002209922663727157,0.01646728525625936,0.025018790743020762,0.009888010053307401,0.005975793994859648
0.2611731,0.013710115665884433,0.005324909837776853,0.004992654876475086,0.002189276510847554,0.016509228845567422,0.02513576335306625,0.00989158989070777,0.005953910176753837
0.2616923,0.013714634534975826,0.0053912064260139255,0.005000405114087404,0.002168958825953574,0.016550951063088185,0.025252043961759115,0.009894603637600445,0.0059319271714584594
0.2622115,0.013718239071104924,0.0054576770433371925,0.005008398337854539,0.0021489674534269304,0.016592450227662973,0.02536761578950104,0.009897052043255873,0.005909850220623476
0.2627308,0.013720932268354148,0.005524311420734471,0.005016636143872917,0.002129300224068573,0.016633724632958372,0.02548246213482235,0.009898936008606665,0.00588768460857931
0.26325,0.013722717322554945,0.005591099205787882,0.005025120114314269,0.002109954955888851,0.01667477254614711,0.02559656637798273,0.009900256585730953,0.005865435660584747
0.2637692,0.013723597629134207,0.00565802996499365,0.005033851817348999,0.002090929454881582,0.01671559220660557,0.02570991198459862,0.009901014977265381,0.005843108741064367
0.2642885,0.013723576780880343,0.00572509318612975,0.005042832807079544,0.0020722215157819852,0.016756181824628923,0.025822482509298063,0.009901212535748015,0.0058207092518360965
0.2648077,0.013722658565632609,0.005792278280670906,0.0050520646234837735,0.002053828922808461,0.01679653958016474,0.02593426159940386,0.009900850762891544,0.005798242630329593
0.2653269,0.013720846963897405,0.005859574586250434,0.005061548792368451,0.0020357494503882197,0.016836663621565967,0.0260452329986455,0.009899931308787229,0.0057757143477961
0.2658462,0.013718146146395311,0.005926971369168381,0.005071286825332792,0.0020179808638667827,0.016876552064364104,0.026155380550900373,0.009898455971040216,0.005753129907510483
0.2663654,0.013714560471542596,0.005994457826945389,0.005081280219742107,0.0020005209202014107,0.016916202990063453,0.026264688203964638,0.00989642669383703,0.005730494842966108
0.2668846,0.013710094482870897,0.006062023090921678,0.005091530458711518,0.0019833673686385374,0.01695561444495733,0.026373140013354064,0.009893845566946185,0.005707814716063219
0.2674038,0.013704752906388729,0.006129656228900585,0.005102039011099681,0.001966517951375319,0.01699478443896706,0.026480720146134992,0.009890714824652936,0.005685095115291457
0.2679231,0.013698540647888372,0.006197346247836005,0.005112807331512425,0.0019499704042054394,0.017033710944504715,0.02658741288478549,0.009887036844629236,0.005662341653907163
0.2684423,0.013691462790201583,0.0062650820965632,0.005123836860316185,0.00193372245714934,0.017072391895360563,0.026693202631086516,0.00988281414673998,0.005639559968106046
0.2689615,0.013683524590407467,0.006332852668572412,0.005135129023661065,0.0019177718350690733,0.01711082518561624,0.026798073910042873,0.009878049391786593,0.005616755715191885
0.2694808,0.013674731476995784,0.006400646804824729,0.005146685233513327,0.0019021162582680054,0.01714900866858458,0.026902011373833253,0.009872745380189068,0.005593934571741912
0.27,0.01366508904698881,0.006468453296609714,0.005158506887697103,0.0018867534430756251,0.01718694015577708,0.027004999805788705,0.009866905050607496,0.00557110223176957
0.2705192,0.013654603063024856,0.006536260888444277,0.0051705953699450495,0.001871681102417728,0.017224617415899913,0.027107024124398534,0.009860531478504114,0.005548264404885464
0.2710385,0.01364327945040639,0.006604058281012228,0.005182952049957678,0.001856896946372269,0.017262038173879387,0.027208069387342475,0.009853627874646935,0.005525426814457332
0.2715577,0.013631124294115681,0.006671834134143943,0.00519557828347102,0.0018423986827111822,0.017299200109917652,0.027308120795547727,0.009846197583555974,0.005502595195769959
0.2720769,0.013618143835800687,0.0067395770698354986,0.005208475412332314,0.001828184017428473,0.017336100858579343,0.027407163697269223,0.009838244081893101,0.0054797752941859405
0.2725962,0.013604344470733925,0.0068072756753065735,0.005221644764583346,0.0018142506552548798,0.01737273800790992,0.027505183592191406,0.00982977097679662,0.005456972863308262
0.2731154,0.013589732744746917,0.006874918506096395,0.005235087654551119,0.0018005963001594088,0.017409109098586405,0.02760216613554949,0.009820782004161664,0.005434193663145585
0.2736346,0.013574315351142757,0.006942494089196969,0.0052488053829454675,0.0017872186558380372,0.017445211623101285,0.02769809714226796,0.00981128102686758,0.005411443458281144
0.2741538,0.013558099127589308,0.007009990926222784,0.005262799236963259,0.0017741154261898776,0.01748104302498056,0.027792962591113923,0.009801272032953558,0.005388728016046116
0.2746731,0.013541091052995509,0.007077397496616169,0.00527707049039879,0.0017612843157811,0.01751660069803704,0.027886748628862677,0.009790759133743854,0.005366053104698311
0.2751923,0.013523298244373167,0.007144702260887451,0.005291620403759955,0.0017487230302968978,0.017551881985660135,0.027979441574472855,0.009779746561923977,0.005343424491607019
0.2757115,0.01350472795368663,0.0072118936638890215,0.005306450224389734,0.0017364292769817885,0.017586884180143498,0.028071027923268172,0.009768238669569312,0.005320847941444802
0.2762308,0.013485387564692716,0.007278960138122409,0.005321561186592508,0.0017244007650685147,0.017621604522051998,0.0281614943511228,0.009756239926127735,0.005298329214387043
0.27675,0.013465284589773177,0.007345890107077353,0.0053369545117646616,0.0017126352061958248,0.017656040199629495,0.02825082771864718,0.009743754916357872,0.005275874064320029
0.2772692,0.01344442666676199,0.007412671988601887,0.0053526314085289165,0.0017011303148153905,0.017690188348248908,0.02833901507537088,0.009730788338224836,0.005253488237058339
0.2777885,0.013422821555769727,0.007479294198302347,0.005368593072871753,0.001689883808588116,0.017724046049906007,0.028426043663918984,0.009717345000755401,0.005231177468572262
0.2783077,0.01340047713600718,0.0075457451529722126,0.0053848406882832985,0.0016788934087700912,0.017757610332758363,0.028511900924178282,0.0097034298218546,0.0052089474832259655
0.2788269,0.013377401402610421,0.007612013274048667,0.0054013754258989645,0.0016681568405884297,0.01779087817071081,0.028596574497449446,0.009689047826085758,0.005186803992027086
0.2793462,0.013353602463469382,0.007678086991095727,0.005418198444642128,0.001657671833607235,0.01782384648304876,0.028680052230581135,0.009674204142416015,0.005164752690888363
0.2798654,0.01332908853606206,0.007743954745312771,0.005435310891367092,0.0016474361220839356,0.01785651213412063,0.028762322180081984,0.009658904001929395,0.005142799258901928
0.2803846,0.013303867944296338,0.007809604993067245,0.0054527139010015335,0.0016374474453162275,0.017888871933070573,0.028843372616206193,0.009643152735509516,0.005120949356626794
0.2809038,0.01327794911536133,0.007875026209450273,0.005470408596687579,0.00162770354797985,0.017920922633622677,0.02892319202700854,0.00962695577149406,0.005099208624390069
0.2814231,0.013251340576590219,0.007940206891853853,0.005488396089920678,0.00161820218045742,0.01795266093391758,0.029001769122364754,0.009610318633303078,0.005077582680602368
0.2819423,0.0132240509523363,0.008005135563568244,0.0055066774806854105,0.001608941099158534,0.017984083476402547,0.02907909283795331,0.009593246937043234,0.00505607712008785
0.2824615,0.013196088960863984,0.008069800777398094,0.005525253857587356,0.0015999180668313387,0.018015186847775807,0.02915515233919498,0.00957574638908998,0.005034697512429302
0.2829808,0.013167463411256337,0.008134191119295817,0.005544126297980194,0.0015911308528657642,0.01804596757898602,0.029229937025146622,0.009557822783649673,0.005013449400328609
0.2835,0.013138183200340669,0.008198295212010645,0.0055632958680871475,0.0015825772335886072,0.018076422145287582,0.029303436532345965,0.009539482000303544,0.004992338297982962
0.2840192,0.013108257309633603,0.008262101718751746,0.00558276362311593,0.0015742549925506387,0.018106546966352582,0.029375640738604283,0.009520730001535376,0.004971369689477107
0.2845385,0.013077694802306968,0.008325599346863732,0.005602530607366274,0.0015661619208059072,0.018136338406440168,0.029446539766743867,0.00950157283024472,0.004950549027191932
0.2850577,0.013046504820175771,0.00838877685151282,0.005622597854329145,0.0015582958171834022,0.018165792774624087,0.029516123988277212,0.009482016607247436,0.004929881730229634
0.2855769,0.013014696580709475,0.008451623039381908,0.0056429663867766655,0.0015506544885512308,0.01819490632507925,0.029584384027024808,0.009462067528765335,0.004909373182855733
0.2860962,0.012982279374067665,0.008514126772372722,0.005663637216841838,0.0015432357500734654,0.01822367525742803,0.02965131076266833,0.009441731863906703,0.004889028732958126
0.2866154,0.012949262560161118,0.008576276971313204,0.0056846113460870895,0.0015360374254598027,0.018252095717147025,0.029716895334235986,0.009421015952139494,0.004868853690523374
0.2871346,0.012915655565739221,0.008638062619668306,0.005705889765560708,0.0015290573472081812,0.018280163796034872,0.02978112914351671,0.00939992620075895,0.00484885332613035
0.2876538,0.012881467881504549,0.008699472767252317,0.005727473455840162,0.001522293356840495,0.01830787553274167,0.02984400385840021,0.009378469082351387,0.004829032869461372
0.2881731,0.012846709059255359,0.008760496533940882,0.005749363387061291,0.0015157433051315584,0.018335226913360463,0.02990551141614,0.009356651132255861,0.004809397507830902
0.2886923,0.012811388709056655,0.008821123113380869,0.005771560518932373,0.0015094050523314737,0.01836221387208113,0.029965644026536953,0.009334478946025446,0.004789952384731871
0.2892115,0.012775516496440435,0.008881341776696257,0.005794065800731981,0.0015032764683815707,0.018388832291906975,0.03002439417504123,0.009311959176889748,0.004770702598399641
0.2897308,0.012739102139635616,0.008941141876188283,0.00581688017128956,0.001497355433124084,0.018415078005434175,0.030081754625770563,0.009289098533220297,0.004751653200393628
0.29025,0.012702155406828095,0.009000512849028055,0.005840004558947593,0.0014916398365057227,0.018440946795694142,0.030137718424442857,0.009265903776000324,0.004732809194196516
0.2907692,0.012664686113451265,0.009059444220939935,0.005863439881504239,0.0014861275787752923,0.018466434397058744,0.030192278901221305,0.009242381716300397,0.004714175533831029
0.2912885,0.012626704119507266,0.009117925609873954,0.005887187046135315,0.0014808165706755095,0.018491536496208175,0.030245429673470024,0.009218539212761325,0.004695757122494129
0.2918077,0.012588219326919111,0.009175946729665574,0.005911246949294487,0.0014757047336291487,0.018516248733161166,0.03029716464841838,0.009194383169085638,0.004677558811208546
0.2923269,0.012549241676913715,0.009233497393681076,0.005935620476590532,0.0014707899999196624,0.018540566702367103,0.030347478025732504,0.00916992053153892,0.004659585397491504
0.2928462,0.012509781147435799,0.00929056751844689,0.005960308502640522,0.0014660703128664054,0.018564485953859462,0.0303963642999926,0.009145158286462203,0.004641841624040461
0.2933654,0.012469847750592577,0.009347147127261134,0.005985311890897837,0.0014615436269946047,0.018588001994469888,0.03044381826307483,0.009120103457796574,0.004624332177435697
0.2938846,0.01242945153012904,0.009403226353785616,0.00601063149345392,0.0014572079082002037,0.01861111028910216,0.030489835006436757,0.009094763104621076,0.004607061686859589
0.2944038,0.012388602558933677,0.0094587954456165,0.00603626815081281,0.0014530611339097072,0.018633806262065192,0.030534409923305198,0.009069144318704961,0.004590034722832388
0.2949231,0.012347310936574447,0.009513844767831852,0.006062222691637533,0.0014491012932351518,0.01865608529846415,0.030577538710765455,0.00904325422207528,0.004573255795964402
0.2954423,0.012305586786864914,0.009568364806514235,0.006088495932467566,0.0014453263871243248,0.018677942745648598,0.03061921737175054,0.009017099964600764,0.004556729355724506
0.2959615,0.01226344025546045,0.009622346172246509,0.006115088677406699,0.0014417344285063587,0.018699373914716596,0.030659442216928876,0.008990688721592883,0.004540459789224957
0.2964808,0.012220881507484443,0.009675779603579114,0.00614200171778067,0.0014383234424328413,0.01872037408207337,0.030698209866488767,0.008964027691424912,0.004524451420022475
0.297,0.012177920725184591,0.009728655970467062,0.006169235831764041,0.0014350914662145794,0.01874093849104329,0.030735517251817838,0.008937124093169761,0.004508708506935568
0.2975192,0.01213456810561931,0.009780966277674948,0.006196791783975804,0.0014320365495541635,0.018761062353533732,0.030771361617075384,0.008909985164257289,0.004493235242878046
0.2980385,0.012090833858374339,0.009832701668148357,0.006224670325043257,0.0014291567546744714,0.018780740851749456,0.030805740520655572,0.008882618158151733,0.0044780357537086354
0.2985577,0.012046728203309667,0.009883853426350047,0.0062528721911338,0.0014264501564432463,0.018799969139956185,0.030838651836539322,0.008855030342049965,0.00446311409709662
0.2990769,0.012002261368336858,0.009934412981559304,0.0062813981034544565,0.001423914842493877,0.018818742346291956,0.030870093755532645,0.008827228994601212,0.0044484742614033825
0.2995962,0.011957443587226802,0.00998437191113289,0.0063102487677191964,0.001421548913342498,0.01883705557462487,0.030900064786389143,0.008799221403649,0.004434120164579722
0.3001154,0.011912285097447909,0.010033721943725963,0.006339424873584428,0.0014193504825015162,0.018854903906455868,0.030928563756814336,0.008771014863996094,0.00442005565307877
0.3006346,0.011866796138034649,0.010082454962471305,0.006368927094053251,0.0014173176765896718,0.018872282402865124,0.030955589814349347,0.008742616675193245,0.004406284500784327
0.3011538,0.011820986947486263,0.010130563008115089,0.00639875608484929,0.0014154486354387252,0.018889186106501,0.030981142427131472,0.008714034139352622,0.004392810407954421
0.3016731,0.011774867761695422,0.010178038282107359,0.0064289124837609984,0.0014137415121968685,0.018905610043610754,0.031005221384529047,0.008685274558986818,0.004379637000179827
0.3021923,0.011728448811906466,0.010224873149645331,0.006459396909957429,0.0014121944734289587,0.01892154922611236,0.03102782679764797,0.008656345234874413,0.004366767827357357
0.3027115,0.011681740322702864,0.010271060142667522,0.006490209963276504,0.0014108056992136655,0.018936998653706964,0.03104895909970722,0.00862725346395304,0.004354206362677651
0.3032308,0.011634752510023313,0.01031659196279662,0.006521352223486853,0.0014095733832376223,0.018951953316031434,0.031068619046280877,0.008598006537240941,0.004341956001627282
0.30375,0.011587495579205924,0.01036146148422897,0.006552824249524329,0.0014084957328866724,0.018966408194850532,0.031086807715404192,0.008568611737787859,0.004330020061004963
0.3042692,0.011539979723059816,0.010405661756568457,0.006584626578704293,0.0014075709693343085,0.018980358266287953,0.031103526507541474,0.008539076338656188,0.00431840177795169
0.3047885,0.011492215119963402,0.010449186007602527,0.006616759725910819,0.0014067973276273944,0.018993798503095505,0.031118777145413654,0.008509407600933144,0.0043071043089946415
0.3053077,0.011444211931988519,0.010492027646018096,0.0066492241827639,0.001406173056769262,0.01900672387695957,0.03113256167368333,0.008479612771774761,0.004296130729104684
0.3058269,0.01139598030304953,0.010534180264055094,0.0066820204167657975,0.0014056964198002682,0.019019129360843833,0.031144882458495025,0.008449699082482455,0.00428548403076736
0.3063462,0.011347530357076453,0.010575637640095432,0.006715148870427593,0.0014053656938758962,0.019031009931367394,0.031155742186868188,0.00841967374661286,0.004275167123067253
0.3068654,0.01129887219621111,0.010616393741185242,0.0067486099603770115,0.001405179170342479,0.019042360571217398,0.031165143865940548,0.008389543958121672,0.004265182830785717
0.3073846,0.011250015899025237,0.010656442725488397,0.006782404076448547,0.0014051351548106236,0.019053176271595407,0.031173090822059255,0.008359316889542091,0.004255533893511942
0.3079038,0.01120097151875942,0.010695778944669368,0.006816531580756879,0.0014052319672264058,0.019063452034696966,0.031179586699717692,0.008328999690198607,0.004246222964767377
0.3084231,0.011151749081581667,0.010734396946203612,0.0068509928067545965,0.0014054679419403984,0.01907318287622385,0.031184635460336067,0.00829859948445662,0.004237252611143527
0.3089423,0.011102358584864386,0.010772291475613836,0.006885788058275177,0.001405841427774584,0.019082363827928675,0.03118824138088426,0.008268123370008493,0.004228625311453152
0.3094615,0.01105280999547847,0.010809457478630463,0.006920917608562145,0.0014063507880871988,0.01909098994019156,0.031190409052345835,0.008237578416196524,0.004220343455894917
0.3099808,0.011003113248103213,0.0108458901032747,0.006956381699285334,0.0014069944008355418,0.019099056284628685,0.031191143378022354,0.008206971662373231,0.004212409345231552
0.3105,0.010953278243550723,0.010881584701862604,0.006992180539545146,0.001407770658636776,0.019106557956732606,0.031190449571677225,0.008176310116299417,0.004204825189981603
0.3110192,0.010903314847103582,0.010916536832928422,0.0070283143048657315,0.0014086779688267405,0.01911349007854424,0.03118833315551832,0.008145600752580319,0.004197593109624886
0.3115385,0.01085323288686444,0.010950742263065541,0.007064783136178028,0.0014097147535167866,0.01911984780135649,0.03118479995801883,0.008114850511140198,0.004190715131821831
0.3120577,0.010803042152116341,0.010984196968683375,0.007101587138793637,0.0014108794496486463,0.01912562630844939,0.03117985611157594,0.008084066295735631,0.004184193191646992
0.3125769,0.01075275239169266,0.011016897137678566,0.007138726381370506,0.0014121705090473376,0.019130820817856626,0.031173508050007414,0.008053254972507723,0.004178029130837073
0.3130962,0.010702373312355587,0.011048839171019101,0.007176200894871421,0.0014135863984720998,0.01913542658516323,0.031165762505886818,0.008022423368573414,0.004172224697053868
0.3136154,0.010651914577182292,0.011080019684240116,0.0072140106715163,0.0014151255996653624,0.019139438906334145,0.031156626507718575,0.007991578270655981,0.004166781543162565
0.3141346,0.010601385803958053,0.011110435508850543,0.007252155663729332,0.0014167866093997396,0.019142853120573303,0.031146107376954828,0.007960726423754795,0.004161701226525851
0.3146538,0.010550796563575781,0.011140083693650077,0.007290635783082026,0.0014185679395230448,0.019145664613212703,0.03113421272485648,0.007929874529854324,0.004156985208314327
0.3151731,0.010500156378441547,0.011168961505956282,0.007329450899233266,0.0014204681170013186,0.019147868818630894,0.03112095044920101,0.007899029246672308,0.0041526348528336905
0.3156923,0.010449474720885827,0.011197066432742025,0.007368600838867483,0.0014224856839598482,0.019149461223200197,0.031106328730839825,0.007868197186446988,0.0041486514268692385
0.3162115,0.010398761011580286,0.011224396181683664,0.007408085384632077,0.0014246191977221512,0.019150437368261688,0.031090356030107697,0.007837384914763185,0.00414503609904816
0.3167308,0.010348024617959932,0.011250948682120664,0.007447904274075224,0.0014268672308468937,0.019150792853126916,0.031073041083087057,0.0078065989494169735,0.004141789939220098
0.31725,0.010297274852650447,0.011276722085927421,0.007488057198585172,0.001429228371162706,0.019150523338105203,0.031054392897729932,0.007775845759318657,0.004138913917856434
0.3177692,0.01024652097190054,0.0113017147682982,0.007528543802332112,0.0014317012218008531,0.019149624547555054,0.031034420749840568,0.007745131763433673,0.0041364089054687185
0.3182885,0.010195772174019156,0.011325925328445997,0.007569363681213677,0.0014342844012257183,0.019148092272958255,0.031013134178922187,0.007714463329761026,0.00413427567204667
0.3188077,0.010145037597817486,0.011349352590216135,0.007610516381805026,0.0014369765432630476,0.019145922376014972,0.03099054298389177,0.007683846774348819,0.004132514886516149
0.3193269,0.010094326321055808,0.011371995602615433,0.007652001400314499,0.0014397762971259042,0.01914311079175816,0.030966657218667013,0.007653288360346364,0.004131127116217532
0.3198462,0.010043647358895343,0.011393853640257658,0.0076938181815457566,0.001442682327438287,0.019139653531685393,0.030941487187629804,0.007622794297092345,0.004130112826404939
0.3203654,0.009993009662355473,0.011414926203726104,0.0077359661178673335,0.0014456933142563755,0.019135546686906202,0.030915043440970614,0.007592370739238435,0.004129472379766772
0.3208846,0.009942422116776716,0.01143521301985407,0.007778444548190479,0.0014488079530873717,0.019130786431302827,0.030887336769918186,0.007562023785907729,0.004129206035968051
0.3214038,0.009891893540290011,0.011454714041924205,0.007821252756956215,0.001452024954905905,0.019125369024702275,0.030858378201859035,0.007531759479887305,0.004129313951215031
0.3219231,0.009841432682292886,0.01147342944978763,0.007864389973132461,0.0014553430461679798,0.019119290816057455,0.030828178995351112,0.0075015838068542146,0.004129796177842582
0.3224423,0.009791048221933135,0.011491359649903811,0.007907855369222073,0.0014587609688224421,0.01911254824663528,0.03079675063503606,0.0074715026946341285,0.004130652663924808
0.3229615,0.00974074876660067,0.01150850527530229,0.007951648060282654,0.001462277480319926,0.019105137853209626,0.030764104826454298,0.007441522012491898,0.004131883252909384
0.3234808,0.009690542850428205,0.011524867185467308,0.007995767102958944,0.0014658913536192504,0.01909705627125696,0.03073025349076709,0.007411647570453221,0.00413348768327606
0.324,0.009640438932801382,0.011540446466146418,0.008040211494528651,0.0014696013771912171,0.019088300238152587,0.030695208759389636,0.007381885118656613,0.004135465588219829
0.3245192,0.009590445396878975,0.011555244429084217,0.008084980171962578,0.0014734063550197608,0.019078866596365242,0.030658982968539084,0.007352240346734916,0.00413781649535924
0.3250385,0.00954057054812373,0.011569262611682372,0.008130072010999927,0.0014773051066003988,0.01906875229664783,0.030621588653701376,0.007322718883225562,0.004140539826470343
0.3255577,0.009490822612844391,0.011582502776587096,0.008175485825239609,0.001481296466935933,0.019057954401222113,0.030583038544021085,0.00729332629500885,0.004143634897246803
0.3260769,0.009441209736749404,0.011594966911205326,0.008221220365248395,0.0014853792865293627,0.0190464700869553,0.030543345556618355,0.00726406808677354,0.004147100917086672
0.3265962,0.009391739983512778,0.011606657227150844,0.008267274317686655,0.0014895524313739716,0.0190342966485265,0.030502522790837233,0.007234949700509055,0.004150936988906357
0.3271154,0.009342421333352583,0.011617576159621711,0.008313646304452397,0.0014938147829405735,0.01902143150158108,0.03046058352242993,0.0072059765150236325,0.004155142108982256
0.3276346,0.009293261681622481,0.011627726366710273,0.00836033488184431,0.0014981652381618983,0.01900787218587099,0.030417541197681447,0.0071771538454877375,0.004159715166820555
0.3281538,0.009244268837416745,0.01163711072864706,0.008407338539744406,0.00150260270941411,0.018993616368378975,0.030373409427479285,0.00714848694300205,0.004164654945055631
0.3286731,0.009195450522189156,0.011645732346979906,0.008454655700820846,0.0015071261244954445,0.018978661846424688,0.03032820198133276,0.007119980994189302,0.004169960119377497
0.3291923,0.009146814368386165,0.011653594543689609,0.008502284719751476,0.0015117344266019576,0.01896300655075084,0.030281932781346613,0.007091641120809309,0.0041756292584886985
0.3297115,0.009098367918094735,0.011660700860243437,0.008550223882468544,0.0015164265743003759,0.01894664854858746,0.030234615896153262,0.007063472379396477,0.0041816608240910335
0.3302308,0.009050118621705254,0.011667055056587775,0.008598471405425011,0.0015212015414980359,0.018929586046692728,0.030186265534808028,0.007035479760919091,0.004188053170902449
0.33075,0.009002073836589962,0.011672661110081235,0.008647025434882867,0.0015260583174098986,0.018911817394368587,0.0301368960406515,0.007007668190459653,0.004194804546704445
0.3312692,0.008954240825797257,0.011677523214369507,0.008695884046223823,0.0015309959065226302,0.018893341086449626,0.030086521885142894,0.006980042526915537,0.00420191309242029
0.3317885,0.008906626756762268,0.011681645778203244,0.008745045243282809,0.0015360133285557262,0.018874155766263397,0.030035157661668373,0.006952607562719155,0.004209376842224329
0.3323077,0.008859238700033991,0.011685033424200205,0.008794506957704753,0.0015411096184196472,0.018854260228560307,0.029982818079327834,0.006925368023576938,0.004217193723682635
0.3328269,0.008812083628019291,0.011687690987552858,0.008844267048325197,0.0015462838261709356,0.018833653422411046,0.029929517956703677,0.006898328568226354,0.0042253615579252645
0.3333462,0.008765168413744036,0.011689623514682536,0.008894323300575355,0.0015515350169642656,0.018812334454069407,0.029875272215614798,0.0068714937882102724,0.0042338780598503685
0.3338654,0.008718499829631585,0.01169083626184121,0.008944673425912247,0.0015568622710013863,0.018790302589798292,0.029820095874858787,0.006844868207667993,0.00424274083836038
0.3343846,0.008672084546298907,0.011691334693661796,0.00899531506127466,0.0015622646834769194,0.018767557258656604,0.02976400404394514,0.006818456283142255,0.004251947396630519
0.3349038,0.00862592913137061,0.011691124481657919,0.009046245768565619,0.001567741364520985,0.018744098055244764,0.02970701191682229,0.006792262403401632,0.0042614951324097886
0.3354231,0.008580040048311208,0.011690211502673912,0.00909746303416213,0.0015732914391386299,0.018719924742406656,0.029649134765601236,0.006766290889277666,0.004271381338354628
0.3359423,0.008534423655276003,0.011688601837285777,0.009148964268452879,0.0015789140471460447,0.018695037253885723,0.029590387934278848,0.006740545993516179,0.00428160320239535
0.3364615,0.008489086203980986,0.011686301768153832,0.009200746805404572,0.0015846083431035436,0.018669435696933,0.029530786832464045,0.006715031900642154,0.004292157808135474
0.3369808,0.008444033838592265,0.011683317778327665,0.009252807902157541,0.0015903734962452773,0.018643120354864758,0.02947034692911035,0.006689752726837582,0.004303042135284015
0.3375,0.008399272594635486,0.011679656549504027,0.009305144738651136,0.0015962086904056326,0.018616091689567446,0.02940908374625834,0.0066647125198316184,0.0043142530601207865
0.3380192,0.008354808397925776,0.011675324960238253,0.00935775441727943,0.001602113123942276,0.01858835034394755,0.02934701285279175,0.006639915258802456,0.004325787355994745
0.3385385,0.00831064706351867,0.01167033008410975,0.009410633962577656,0.001608086009655784,0.0185598971443241,0.029284149858210953,0.006615364854290238,0.004337641693855364
0.3390577,0.008266794294682522,0.011664679187842121,0.009463780320939781,0.0016141265747058068,0.018530733102761425,0.029220510406427588,0.006591065148120429,0.004349812642817019
0.3395769,0.00822325568189284,0.011658379729378424,0.009517190360367467,0.0016202340605236936,0.01850085941933977,0.029156110169584075,0.00656701991333703,0.004362296670756318
0.3400962,0.008180036701849032,0.011651439355912072,0.009570860870250714,0.0016264077227215246,0.018470277484361163,0.02909096484190169,0.006543232854145036,0.004375090144942341
0.3406154,0.008137142716514044,0.011643865901873825,0.00962478856118037,0.0016326468309974759,0.018438988880487978,0.029025090133560628,0.006519707605861611,0.004388189332699692
0.3411346,0.008094578972177425,0.011635667386875305,0.009678970064792604,0.0016389506690374543,0.018406995384811536,0.028958501764615455,0.006496447734875365,0.004401590402104327
0.3416538,0.008052350598542389,0.011626852013609478,0.009733401933645438,0.0016453185344129288,0.01837429897084801,0.02889121545894941,0.0064734567386131765,0.004415289422712093
0.3421731,0.008010462607837466,0.011617428165708509,0.00978808064112732,0.0016517497384748892,0.018340901810458842,0.028823246938270885,0.006450738045513941,0.004429282366319981
0.3426923,0.007968919893953368,0.011607404405559315,0.009843002581397704,0.0016582436062438468,0.018306806275692908,0.028754611916155883,0.006428295015008589,0.00444356510776005
0.3432115,0.007927727231605695,0.01159678947207711,0.009898164069359536,0.001664799476295788,0.018272014940547487,0.028685326092140317,0.006406130937505692,0.0044581334257260555
0.3437308,0.007886889275524125,0.01158559227843712,0.009953561340663521,0.0016714167006439899,0.018236530582644992,0.02861540514586621,0.006384249034381938,0.004472983003632794
0.34425,0.007846410559668685,0.011573821909764654,0.01000919055174398,0.0016780946446165975,0.018200356184822332,0.028544864731285962,0.006362652457976717,0.004488109430508208
0.3447692,0.007806295496473671,0.011561487620783541,0.010065047779886075,0.001684832686729868,0.018163494936629675,0.028473720470928793,0.006341344291590061,0.004503508201918269
0.3452885,0.00776654837611976,0.01154859883342295,0.010121129023324155,0.0016916302185570082,0.01812595023573522,0.028401987950233538,0.006320327549483118,0.004519174720924703
0.3458077,0.007727173365834797,0.011535165134382502,0.0101774302013709,0.001698486644592542,0.018087725689232538,0.02832968271195183,0.006299605176880387,0.004535104299075525
0.3463269,0.0076881745092237195,0.011521196272655587,0.010233947154576949,0.0017054013821121827,0.018048825114846952,0.028256820250625654,0.00627918004997287,0.004551292157428417
0.3468462,0.0076495557256280634,0.011506702157010728,0.010290675644920647,0.0017123738610281972,0.018009252542037373,0.028183416007143035,0.00625905497592135,0.004567733427606872
