Time,Rectus Femoris right,Rectus Femoris left,Hamstrings right,Hamstrings left,TibilaisÂ Anterior right,TibilaisÂ Anterior left,Gastrocnemius right,Gastrocnemius left
0.0,0.0020357025328587024,0.005245216977252467,0.0028198824287443192,-0.005739804218397886,0.0005465037758511718,-0.02586363383308128,-0.01767050171086882,0.00029706483097509135
0.0004655,0.0021418372460751405,0.0053877817417099525,0.0028568793591023938,-0.005484009396108367,0.0007408443221724131,-0.025011624676704744,-0.017198090226418133,0.0004302554110487856
0.000931,0.002249274478068289,0.00553166212453162,0.0028934008816701253,-0.005228243182678056,0.0009356296761673671,-0.024160802357418937,-0.016727054966379863,0.0005649358539910455
0.0013966,0.0023580169930751795,0.005676856676082222,0.002929442433231291,-0.004972538027865144,0.0011308333292001382,-0.023311272261197072,-0.016257460796843405,0.0007011106149420393
0.0018621,0.002468067423457415,0.005823363846632086,0.0029649996655220904,-0.0047169263838137045,0.0013264285634713609,-0.02246313927023766,-0.0157893721577018,0.0008387840712489473
0.0023276,0.002579428269028123,0.005971181988206576,0.00300006844954542,-0.004461440696154897,0.0015223884578964622,-0.021616507728098564,-0.015322853040299272,0.000977960522537929
0.0027931,0.0026921018964035127,0.006120309356476016,0.0030346448798406205,-0.0042061133951483065,0.0017186858940618575,-0.020771481405094674,-0.014857966965309687,0.0011186441907947097
0.0032586,0.0028060905383791106,0.006270744112684719,0.0030687252787060288,-0.003950976886869532,0.0019152935622572353,-0.019928163463981796,-0.014394776960864547,0.001260839220453134
0.0037241,0.002921396293330745,0.006422484325617823,0.0031023062003716563,-0.0036960635444499893,0.002112183967582094,-0.019086656425948572,-0.013933345540947847,0.0014045496784910454
0.0041897,0.0030380211246403455,0.006575527973604589,0.003135384435119305,-0.0034414056993747346,0.002309329436124678,-0.018247062136937567,-0.01347373468407385,0.001549779554532847
0.0046552,0.0031559668601466202,0.006729872946556829,0.0031679570133474155,-0.003187035632843919,0.0025067021212114636,-0.01740948173431589,-0.01301600581226288,0.0016965327609581018
0.0051207,0.0032752351916206656,0.006885517048041135,0.0032000212095779496,-0.002932985567203194,0.0027042740097253286,-0.016574015613915156,-0.012560219770329279,0.001844813133015535
0.0055862,0.0033958276742665546,0.007042457997383589,0.0032315745464025747,-0.002679287657448091,0.002902016928490545,-0.01574076339746,-0.012106436805494914,0.0019946244289417983
0.0060517,0.003517745726246928,0.0072006934318056375,0.003262614798365442,-0.002425973982807057,0.003099902550722718,-0.01490982390040391,-0.011654716547340864,0.002145970330084366
0.0065172,0.0036409906282336155,0.007360220908589849,0.003293139995779845,-0.0021730765384075034,0.003297902402541817,-0.014081295100190653,-0.011205117988109057,0.00229885444102793
0.0069828,0.0037655635229833064,0.007521037907274267,0.0033231484284760564,-0.0019206272270289224,0.003495987869546493,-0.013255274104958994,-0.01075769946336478,0.002453280289723669
0.0074483,0.0038914654149382793,0.007683141831874056,0.003352638649477637,-0.0016686578509468534,0.003694130203447929,-0.012431857122707628,-0.010312518633030008,0.0026092513276207863
0.0079138,0.004018697169852193,0.007846530013129101,0.003381609478603538,-0.0014172001038711738,0.0038923005287615563,-0.011611139430936265,-0.009869632462796542,0.002766770929799714
0.0083793,0.004147259514440949,0.008011199710776214,0.003410060005993339,-0.0011662855629819278,0.004090469849555064,-0.010793215346777747,-0.009429097205927096,0.0029258423951064364
0.0088448,0.00427715303605865,0.008177148115844522,0.0034379895955529683,-0.0009159456810655981,0.0042886090562511935,-0.009978178197635069,-0.008990968385451723,0.003086468946287399
0.0093103,0.004408378182398684,0.008344372352972633,0.00346539788831831,-0.0006662117787544206,0.004486688932483879,-0.009166120292336277,-0.008555300776766278,0.0032486537301245444
0.0097759,0.004540935261220024,0.008512869482746155,0.0034922848057341157,-0.0004171150368710472,0.00468468016200634,-0.00835713289281965,-0.008122148390639045,0.0034123998175700594
0.0102414,0.004674824440098804,0.00868263650405415,0.0035186505528456806,-0.0001686864888805717,0.004882553335649731,-0.007551306186360965,-0.007691564456631241,0.0035777102038804863
0.0107069,0.0048100457462052675,0.008853670356463103,0.003544495621400771,7.904298654829066e-05,0.005080278958330972,-0.006748729258354199,-0.007263601406936634,0.003744587808749931
0.0111724,0.004946599066106192,0.009025967922606992,0.00356982079285935,0.0003260426728712647,0.005277827456108379,-0.005949490065656341,-0.0068383108606451986,0.003913035476442193
0.0116379,0.005084484145592845,0.009199526030592051,0.003594627141308676,0.0005722820228843166,0.005475169183283676,-0.00515367541050631,-0.006415743608435383,0.004083055975921708
0.0121034,0.005223700589534539,0.009374341456414803,0.003618916036281412,0.0008177306658257587,0.0056722744295489656,-0.004361370915027292,-0.0059959495976993306,0.004254652000983291
0.012569,0.005364247861757796,0.009550410926391882,0.003642689145474409,0.0010623584143632531,0.005869113427177216,-0.0035726609963211706,-0.00557897791810514,0.004427826170380703
0.0130345,0.005506125284951139,0.00972773111960017,0.0036659484373659018,0.0013061352714643414,0.0060656563582547765,-0.0027876288421633966,-0.005164876787600149,0.0046025810279541534
0.0135,0.005649332040595443,0.009906298670325761,0.003688696183728877,0.0015490314371491543,0.006261873361954487,-0.0020063563873061255,-0.004753693538859104,0.004778919042756819
0.0139655,0.005793867168919811,0.010086110170520215,0.0037109349620384384,0.0017910173151239918,0.006457734541847937,-0.001228924290397057,-0.004345474606180967,0.004956842609180481
0.014431,0.005939729568882853,0.010267162172262593,0.003732667657771016,0.0020320635192944973,0.006653209973255484,-0.00045541191152092576,-0.003940265512837956,0.005136354047080371
0.0148966,0.006086917998179243,0.010449451190225686,0.003753897466593291,0.0022721408801571834,0.006848269710632675,0.00031410270962984737,-0.003538110858880284,0.005317455601899368
0.0153621,0.006235431073271377,0.010632973704144818,0.0037746278964386998,0.0025112204510681,0.007042883794991777,0.0010795428749492202,-0.003139054309399753,0.005500149444791635
0.0158276,0.006385267269445933,0.010817726161287549,0.0037948627694693892,0.0027492735143875104,0.007237022261357165,0.0018408332484704962,-0.0027431385832550744,0.005684437672745877
0.0162931,0.00653642492089513,0.011003704978922592,0.003814606223921496,0.0029862715874995204,0.007430655146253331,0.002597899876272576,-0.002350405442261358,0.0058703223087084345
0.0167586,0.006688902220822443,0.011190906546786235,0.0038338627158316066,0.0032221864287057403,0.007623752495224314,0.003350670205734003,-0.001960895680845779,0.006057805301706527
0.0172241,0.006842697221572528,0.01137932722954457,0.0038526370206422617,0.00345699004299221,0.007816284370383342,0.004099073104129351,-0.001574649116170973,0.006246888526971979
0.0176897,0.006997807834785147,0.011568963369249813,0.003870934234684366,0.0036906546876689693,0.008008220857991483,0.0048430388765625465,-0.001191704578727274,0.006437573786065792
0.0181552,0.007154231831572864,0.011759811287789003,0.0038887597765343692,0.003923152877881793,0.008199532076064062,0.005582499283231734,-0.0008120999033945326,0.006629862807003976
0.0186207,0.007311966842722358,0.011951867289323417,0.0039061193882440853,0.0041544573919956845,0.008390188182003551,0.006317387556020419,-0.0004358719209739408,0.006823757244384963
0.0190862,0.007471010358919256,0.01214512766271696,0.003923019136441065,0.004384541276849786,0.008580159380257623,0.007047638414409816,-6.305645019005288e-05,0.007019258679518909
0.0195517,0.007631359730996474,0.012339588683951918,0.003939465413297476,0.004613377852883367,0.008769415930001015,0.007773188080707657,0.00030631170983699233,0.007216368620559144
0.0200172,0.007793012170206122,0.012535246618530402,0.003955464937365513,0.004840940719132549,0.00895792815283978,0.00849397429458904,0.000672198786649228,0.007415088502635972
0.0204828,0.007955964748515126,0.012732097723859895,0.003971024754277437,0.005067203758097414,0.00914566644053647,0.009209936326945277,0.0010345720410389842,0.007615419687992943
0.0209483,0.008120214398924772,0.012930138251621254,0.003986152237308431,0.005292141140479215,0.009332601262754732,0.009921014993037117,0.001393399773168027,0.00781736346612572
0.0214138,0.008285757915814464,0.013129364450117562,0.004000855087800537,0.00551572732978745,0.009518703174821742,0.010627152664949156,0.0017486513282186239,0.008020921053923548
0.0218793,0.008452591955309976,0.013329772566602156,0.004015141335446014,0.005737937086816753,0.009703942825506894,0.011328293283342668,0.0021002971015777225,0.008226093595813319
0.0223448,0.008620713035676563,0.013531358849584094,0.004029019338428557,0.005958745473993834,0.009888290964815055,0.012024382368504467,0.002448308543555707,0.00843288216390617
0.0228103,0.008790117537737235,0.013734119551109272,0.00404249778342089,0.0061781278595949285,0.0100717184517927,0.012715367030689604,0.0027926581636414927,0.008641287758146536
0.0232759,0.008960801705316537,0.013938050929015343,0.004055585685437325,0.006396059921834588,0.010254196262345142,0.013401195979755982,0.003133319534296028,0.008851311306463602
0.0237414,0.009132761645710101,0.014143149249158495,0.00406829238753999,0.006612517652826879,0.010435695497063026,0.014081819534089228,0.0034702672942866193,0.00906295366492506
0.0242069,0.00930599333018029,0.014349410787610236,0.004080627560397483,0.0068274773624202815,0.01061618738905622,0.014757189628816383,0.0038034771515648336,0.009276215617893126
0.0246724,0.009480492594478139,0.014556831832822185,0.004092601201694859,0.007040915681907666,0.010795643311793123,0.015427259823307055,0.004132925885691067,0.009491097878182744
0.0251379,0.009656255139391787,0.014765408687756928,0.004104223635393935,0.007252809567612824,0.010974034786943391,0.01609198530796089,0.004458591349809245,0.009707601087221901
0.0256034,0.009833276531321497,0.014975137671982946,0.004115505510843027,0.007463136304355043,0.011151333492221999,0.016751322910280336,0.004780452472175433,0.00992572581521392
0.026069,0.010011552202881323,0.015186015123731593,0.004126457801735368,0.007671873508793294,0.0113275112692325,0.01740523110022788,0.0050984892572444864,0.010145472561301574
0.0265345,0.010191077453527373,0.015398037401914092,0.004137091804915543,0.00787899913265166,0.011502540131307257,0.018053669994867225,0.005412682786319192,0.01036684175373284
0.027,0.010371847450212596,0.015611200888096461,0.004147419139033386,0.008084491465827796,0.011676392271342319,0.018696601362288116,0.005723015217766593,0.010589833750028097
0.0274655,0.010553857228067943,0.01582550198843029,0.00415745174304489,0.008288329139386338,0.011849040069624586,0.019333988624815,0.006029469786806525,0.01081444883714851
0.027931,0.010737101691109719,0.016040937135537163,0.004167201874559736,0.00849049112843935,0.012020456101648754,0.019965796861500136,0.0063320308048776175,0.011040687231665267
0.0283966,0.010921575612972878,0.016257502790344453,0.004176682108035097,0.008690956754916013,0.01219061314592149,0.02059199280990236,0.006630683658586234,0.01126854907992933
0.0288621,0.011107273637669966,0.01647519544387017,0.004185905332815441,0.008889705690223796,0.012359484191750147,0.02121254486715332,0.006925414808244119,0.011498034458241206
0.0293276,0.011294190280375408,0.016694011618954344,0.004194884751018097,0.009086717957803392,0.012527042447013305,0.021827423090313536,0.007216211786000647,0.011729143373020277
0.0297931,0.011482319928234829,0.01691394787193436,0.0042036338752644105,0.009281973935579611,0.01269326134591026,0.022436599196021555,0.007503063193575824,0.011961875760973094
0.0302586,0.011671656841199066,0.0171350007942616,0.0042121665262564115,0.009475454358310428,0.012858114556686584,0.02304004655944052,0.007785958699600306,0.012196231489259992
0.0307241,0.011862195152882562,0.01735716701405652,0.004220496830198974,0.009667140319836247,0.013021575989332726,0.023637740212507738,0.008064889036568853,0.012432210355659314
0.0311897,0.012053928871445818,0.017580443197599403,0.004228639216067536,0.009857013275231473,0.013183619803252578,0.02422965684149434,0.008339845997413721,0.012669812088728489
0.0316552,0.012246851880501616,0.017804826050753696,0.00423660841272154,0.010045055042860329,0.013344220414898864,0.024815774783883204,0.008610822431704605,0.012909036347961166
0.0321207,0.012440957940044647,0.018030312320318934,0.004244419445863835,0.010231247806338908,0.013503352505372074,0.025396074024574285,0.008877812241481788,0.013149882723939472
0.0325862,0.012636240687404272,0.018256898795310127,0.004252087634846341,0.010415574116405259,0.013660991027979632,0.025970536191426908,0.009140810376729203,0.013392350738480463
0.0330517,0.01283269363821997,0.018484582308160448,0.0042596285893224195,0.010598016892699362,0.013817111215751842,0.02653914455014881,0.00939981283049414,0.013636439844775725
0.0335172,0.013030310187439116,0.018713359735844225,0.00426705820574641,0.01077855942545471,0.013971688588911077,0.0271018839985417,0.009654816633660345,0.013882149427523085
0.0339828,0.013229083610336565,0.018943228000917293,0.004274392663720929,0.010957185377103175,0.014124698962290584,0.027658741060113023,0.00990581984938126,0.014129478803049362
0.0344483,0.013429007063555595,0.019174184072472095,0.004281648422192584,0.011133878783794807,0.014276118452699217,0.02820970387706348,0.01015282156718007,0.01437842721942305
0.0349138,0.013630073586169553,0.019406224967004965,0.004288842215496842,0.011308624056834075,0.014425923486228358,0.028754762202659826,0.010395821896723252,0.014628993856555673
0.0353793,0.013832276100763612,0.019639347749193296,0.004295991049252865,0.011481405984034116,0.014574090805497214,0.029293907393002253,0.010634821961274219,0.014881177826290608
0.0358448,0.014035607414535835,0.019873549532580345,0.0043031121961092005,0.011652209730990374,0.014720597476832666,0.029827132398195476,0.010869823890833607,0.015134978172478024
0.0363103,0.014240060220416777,0.020108827480165747,0.004310223191341286,0.011821020842275059,0.014865420897379777,0.03035443175293273,0.011100830814972694,0.015390393871034629
0.0367759,0.01444562709820675,0.020345178804900152,0.004317341828301771,0.01198782524255373,0.015008538802139067,0.03087580156650172,0.011327846855366346,0.01564742382998685
0.0372414,0.014652300515729801,0.02058260077008306,0.0043244861537247445,0.01215260923762534,0.015149929270926652,0.03139123951222169,0.011550877118031787,0.01590606688949618
0.0377069,0.014860072830003415,0.020821090689663424,0.004331674462884997,0.012315359515386882,0.015289570735253432,0.03190074481632112,0.011769927685279426,0.016166321821865372
0.0381724,0.015068936288422888,0.02106064592844323,0.004338925294613478,0.012476063146723865,0.015427441985119465,0.03240431824626572,0.011985005607381924,0.016428187331524163
0.0386379,0.015278883029959193,0.021301263902184592,0.004346257426170198,0.012634707586327718,0.015563522175719756,0.032901962098547045,0.012196118893967468,0.01669166205499321
0.0391034,0.015489905086369138,0.021542942077621256,0.004353689867975813,0.012791280673441232,0.01569779083405773,0.03339368018594187,0.012403276505143264,0.016956744560824768
0.039569,0.015701994383416497,0.02178567797237545,0.00436124185820321,0.012945770632533014,0.015830227865462718,0.0338794778242526,0.012606488342355126,0.0172234333495186
0.0400345,0.015915142742102775,0.022029469154781052,0.004368932857230414,0.013098166073901954,0.015960813560007912,0.03435936181853905,0.01280576523898902,0.017491726853411563
0.0405,0.016129341879906285,0.022274313243613834,0.004376782541956162,0.013248455994212606,0.016089528598825346,0.03483334044885164,0.01300111895072033,0.017761623436539132
0.0409655,0.016344583412028196,0.022520207907729572,0.004384810799979542,0.013396629776962392,0.01621635406031462,0.03530142345547634,0.01319256214561667,0.01803312139446713
0.041431,0.016560858852644238,0.02276715086561064,0.0043930377236450924,0.013542677192881386,0.016341271426242067,0.03576362202370156,0.013380108394000056,0.018306218954091756
0.0418966,0.01677815961616087,0.023015139884821702,0.004401483603954777,0.01368658840026543,0.016464262587727187,0.036219948768117884,0.013563772158074236,0.01858091427340605
0.0423621,0.0169964770184747,0.02326417278137494,0.0044101689243483165,0.013828353945243269,0.01658530985111314,0.036670417716461574,0.013743568781323032,0.018857205441230842
0.0428276,0.017215802278234216,0.02351424741900522,0.0044191143543534095,0.013967964761978285,0.01670439594371812,0.037115044293013426,0.01391951447768555,0.019135090476908315
0.0432931,0.017436126518102807,0.023765361708355606,0.004428340743107458,0.014105412172805335,0.01682150401946456,0.03755384530156455,0.014091626320514155,0.01941456732995621
0.0437586,0.017657440766022242,0.024017513606073324,0.0044378691127525145,0.014240687888303146,0.016936617664383185,0.03798683890796089,0.014259922231321099,0.019695633879680735
0.0442241,0.01787973595647575,0.024270701113816483,0.004447720651705247,0.014373784007302586,0.017049720901988953,0.03841404462223848,0.014424420968319758,0.019978287934746517
0.0446897,0.018103002931749854,0.024524922277171773,0.004457916707803761,0.014504693016831055,0.017160798198526075,0.03883548328036126,0.014585142114766374,0.02026252723270191
0.0451552,0.018327232443194053,0.024780175184483673,0.004468478781333227,0.014633407791993206,0.017269834468079462,0.03925117702557359,0.014742106067108272,0.020548349439458317
0.0456207,0.018552415152477287,0.025036457965595813,0.004479428517932284,0.014759921595788088,0.017376815077550074,0.03966114928937961,0.014895334022944481,0.020835752148722297
0.0460862,0.018778541632840106,0.025293768790505537,0.004490787701382276,0.014884228078862681,0.017481725851491808,0.04006542477216169,0.01504484796880465,0.021124732881379334
0.0465517,0.01900560237034147,0.025552105867933095,0.004502578246281426,0.015006321279201915,0.017584553076807844,0.04046402942345054,0.015190670667752109,0.0214152890848281
0.0470172,0.01923358776509903,0.025811467443807207,0.004514822190606098,0.015126195621755054,0.017685283507304733,0.040856990421859585,0.01533282564681684,0.021707418132264008
0.0474828,0.019462488132521813,0.02607185179966901,0.004527541688161333,0.015243845917998485,0.01778390436810284,0.041244336154696346,0.015471337184264062,0.022001117321910693
0.0479483,0.019692293704534323,0.02633325725099668,0.004540759000922902,0.015359267365434878,0.017880403359902052,0.04162609619726353,0.015606230296704098,0.022296383876198034
0.0484138,0.019922994630791228,0.0265956821454533,0.004554496491273101,0.015472455547028814,0.017974768663101715,0.04200230129186288,0.015737530726049123,0.022593214940885255
0.0488793,0.020154580979881917,0.026859124861060846,0.004568776614132598,0.015583406430579066,0.01806698894177393,0.042372983326514777,0.01586526492632244,0.022891607584127647
0.0493448,0.020387042740524438,0.027123583804303165,0.0045836219089905855,0.015692116368027698,0.01815705334748925,0.04273817531340687,0.01598946005032587,0.023191558795485515
0.0498103,0.020620369822748504,0.02738905740816128,0.004599054991835583,0.015798582094706203,0.018244951522993873,0.04309791136708503,0.016110143936170992,0.023493065484874075
0.0502759,0.020854552059067503,0.027655544130084166,0.004615098546989216,0.015902800728518903,0.01833067360573744,0.04345222668239982,0.01622734509367984,0.023796124481453122
0.0507414,0.02108957920563947,0.02792304244989823,0.004631775318845309,0.016004769769063877,0.018414210231250644,0.043801157512221724,0.01634109269066068,0.02410073253245533
0.0512069,0.021325440943417092,0.028191550867658507,0.004649108103516673,0.016104487096691825,0.018495552536371914,0.0441447411449384,0.01645141653906456,0.024406886301951994
0.0516724,0.021562126879286676,0.028461067901444665,0.004667119740391961,0.016201950971503336,0.018574692162322687,0.044483015881747245,0.01655834708102817,0.02471458236955499
0.0521379,0.021799626547196076,0.028731592085104583,0.004685833103604992,0.01629716003228524,0.018651621257630716,0.04481602101375654,0.016661915374808677,0.025023817229053613
0.0526034,0.022037929409271243,0.029003121965948224,0.004705271093418968,0.016390113295386758,0.01872633248090099,0.045143796798908224,0.0167621530806162,0.025334587286985
0.053069,0.022277024856920975,0.02927565610239424,0.004725456627528021,0.016480810153536335,0.01879881900343387,0.04546638443873508,0.016859092446349564,0.0256468888611368
0.0535345,0.02251690221192935,0.029549193061571753,0.004746412632278584,0.016569250374599925,0.01886907451169001,0.045783826054964845,0.016952766293240877,0.025960718178980758
0.054,0.022757550727535165,0.029823731416879534,0.004768162033813124,0.01665543410028164,0.018937093209601786,0.04609616466598346,0.017043208001414456,0.02627607137603604
0.0544655,0.02299895958949778,0.030099269745504958,0.004790727749138862,0.016739361844767504,0.019002869820730788,0.04640344416316961,0.01713045149536553,0.026592944494160994
0.054931,0.02324111791714876,0.03037580662590511,0.00481413267712414,0.01682103449331301,0.01906639959027101,0.046705709287112214,0.017214531229364127,0.026911333479772016
0.0553966,0.02348401476442875,0.030653340635252695,0.004838399689425156,0.01690045330077525,0.019127678286897216,0.047003005603722364,0.017295482172789423,0.027231234181988296
0.0558621,0.023727639120909288,0.030931870346849803,0.004863551621345823,0.016977619890090365,0.019186702204457888,0.04729537948025139,0.017373339795399935,0.027552642350701043
0.0563276,0.02397197991279924,0.031211394327512892,0.0048896112626335714,0.0170525362506973,0.01924346816351219,0.047582878061226325,0.017448140052544633,0.027875553634566192
0.0567931,0.024217026003935615,0.03149191113493262,0.004916601348213969,0.017125204736908865,0.01929797351271033,0.04786554924431435,0.01751991937032015,0.028199963578919372
0.0572586,0.024462766196758638,0.03177341931501249,0.004944544548867104,0.01719562806623131,0.01935021613001675,0.04814344165612773,0.017588714630679056,0.028525867623612342
0.0577241,0.024709189233270878,0.032055917399190184,0.004973463461848708,0.01726380931763348,0.01940019442377558,0.04841660462798048,0.01765456315649406,0.028853261100770036
0.0581897,0.02495628379598032,0.03233940390174531,0.00500338060145909,0.01732975192976664,0.019447907333617554,0.04868508817160825,0.017717502696582958,0.029182139232467603
0.0586552,0.025204038508827294,0.0326238773170972,0.00503431838956295,0.01739345969913594,0.019493354331207795,0.04894894295486256,0.01777757141069906,0.029512497128327122
0.0591207,0.025452441938095146,0.03290933611709598,0.005066299146063229,0.01745493677822439,0.019536535420833542,0.049208220277390365,0.017834807854491846,0.029844329783033714
0.0595862,0.025701482593304414,0.03319577874831009,0.005099345079332152,0.017514187673570013,0.019577451139830906,0.04946297204630971,0.017889250964442546,0.030177632073771016
0.0600517,0.025951148928090303,0.03348320362931286,0.005133478276602683,0.017571217243796792,0.01961610255884967,0.04971325075189181,0.017940940042779307,0.030512398757575953
0.0605172,0.026201429341063096,0.0337716091479709,0.0051687206943236315,0.017626030697599816,0.019652491281955117,0.049959109443260014,0.017989914742376666,0.030848624468612917
0.0609828,0.02645231217665144,0.03406099365873652,0.005205094148481681,0.01767863359168499,0.019686619446565676,0.050200601704115826,0.018036215051643927,0.031186303715367816
0.0614483,0.026703785725928502,0.034351355479946416,0.005242620304893637,0.01772903182866347,0.019718489723225367,0.05043778162850258,0.01807988127940717,0.031525430877762654
0.0619138,0.026955838227421387,0.034642692891128354,0.005281320669472211,0.017777231654900895,0.01974810531520974,0.05067070379661752,0.018120954039789507,0.031866000204191856
0.0623793,0.027208457867904406,0.034935004130317554,0.0053212165784687045,0.017823239658321305,0.019775469957964042,0.050899423250683,0.01815947423709407,0.03220800580848192
0.0628448,0.02746163278317702,0.03522828739138403,0.005362329188695965,0.017867062766165676,0.019800587918372366,0.05112399547088774,0.018195483050694235,0.032551441666776204
0.0633103,0.027715351058827338,0.035522540821372024,0.00540467946773503,0.017908708242704713,0.019823463993856292,0.05134447635140848,0.018229021919935504,0.03289630161434702
0.0637759,0.027969600730982376,0.035817762517852215,0.005448288184128887,0.017948183686905622,0.019844103511301555,0.05156092217652249,0.018260132529053508,0.03324257934233714
0.0642414,0.028224369787046028,0.03611395052628751,0.005493175897566828,0.017985497030052436,0.019862512325811137,0.05177338959682072,0.018288856792112774,0.03359026839443323
0.0647069,0.028479646166425936,0.03641110283741259,0.005539362949062923,0.018020656533319492,0.019878696819283212,0.05198193560553132,0.018315236837970924,0.03393936216347403
0.0651724,0.028735417761250485,0.036709217384627485,0.0055868694511321745,0.01805367078529779,0.01989266389881236,0.052186617514963486,0.018339314995273033,0.034289853887996685
0.0656379,0.028991672417077088,0.03700829204140511,0.005635715277967955,0.018084548699473988,0.019904420994912506,0.05238749293308132,0.01836113377748095,0.03464173664872549
0.0661034,0.029248397933592973,0.037308324618712696,0.0056859200556243945,0.018113299511661976,0.019913976059560128,0.0525846197402179,0.018380735867942213,0.03499500336500767
0.066569,0.02950558206530947,0.037609312862446745,0.005737503152207449,0.018139932777387086,0.019921337564056316,0.05277805606593971,0.018398164105003167,0.035349646791201214
0.0670345,0.029763212522250688,0.0379112544508812,0.005790483668078463,0.018164458369222914,0.01992651449670633,0.05296786026607148,0.01841346146717074,0.03570565951301992
0.0675,0.030021276970637514,0.03821414699212859,0.005844880426074083,0.018186886474080927,0.01992951636031533,0.05315409089989121,0.018426671058327192,0.036063033943840375
0.0679655,0.030279763033567598,0.03851798802161394,0.005900711961746494,0.018207227590452964,0.01993035316949899,0.05333680670750516,0.01843783609300202,0.03642176232097576
0.068431,0.030538658291692024,0.038822774999561376,0.005957996513627999,0.01822549252560691,0.019929035447807792,0.05351606658741217,0.018446999881705093,0.03678183670192078
0.0688966,0.030797950283889226,0.039128505308493364,0.006016752013524021,0.018241692392735917,0.019925574224663928,0.053691929574266765,0.018454205816325165,0.03714324896057199
0.0693621,0.031057626507936656,0.039435176250742665,0.006076996076838652,0.01825583860806177,0.01991998103210992,0.053864454816850274,0.01845949735559775,0.037505990783427444
0.0698276,0.03131767442118051,0.03974278504597687,0.0061387459929369195,0.018267942887893227,0.019912267901368217,0.05403370155625901,0.018462918010646704,0.03787005366576936
0.0702931,0.03157808144120363,0.04005132882873547,0.0062020187155480055,0.01827801724564012,0.019902447359211064,0.05419972910431852,0.01846451133060365,0.03823542890783332
0.0707586,0.0318388349464917,0.040360804645979166,0.006266830853213722,0.01828607398878413,0.01989053242414003,0.054362596822232566,0.018464320888309682,0.03860210761096752
0.0712241,0.032099922277097626,0.04067120945465122,0.006333198659786585,0.018292125715807094,0.0198765366023747,0.05452236409947501,0.018462390266103634,0.038970080673785344
0.0716897,0.03236133073530386,0.04098254011925086,0.006401138024981872,0.018296185313077563,0.01986047388364998,0.054679090332932556,0.018458763041701184,0.039339338788314714
0.0721552,0.03262304758628241,0.04129479340941877,0.006470664464988112,0.018298265951696403,0.019842358736822076,0.05483283490630586,0.018453482774168948,0.03970987243614762
0.0726207,0.03288506005875183,0.04160796599753515,0.006541793113140438,0.018298381084302085,0.0198222061052833,0.054983657169775955,0.018446592989997734,0.040081671884593016
0.0730862,0.03314735534563066,0.0419220544563307,0.006614538710661329,0.018296544441836527,0.01980003140218658,0.055131616419942624,0.01843813716927906,0.04045472718283628
0.0735517,0.033409920604686255,0.04223705525651159,0.006688915597473278,0.018292770030272295,0.019775850505480804,0.055276771880041,0.018428158731989115,0.0408290281581084
0.0740172,0.03367274295917801,0.042552964764398876,0.006764937703087896,0.018287072127302212,0.019749679752758553,0.055419182680442054,0.018416701024384342,0.04120456441186829
0.0744828,0.03393580949849387,0.04286977923958374,0.0068426185375760566,0.01827946527899257,0.019721535935917862,0.05555890783944269,0.018403807305512884,0.041581325316001505
0.0749483,0.034199107278778715,0.043187494832599774,0.0069219711826235975,0.018269964296401257,0.01969143629563999,0.05569600624435049,0.018389520733846237,0.04195930000903878
0.0754138,0.03446262332355374,0.04350610758261383,0.007003008282677187,0.018258584252162292,0.019659398515685194,0.0558305366328683,0.018373884354035384,0.04233847739239786
0.0758793,0.03472634462432558,0.04382561341513694,0.007085742036184916,0.01824534047703825,0.019625440717008745,0.05596255757478321,0.018356941083795854,0.04271884612665171
0.0763448,0.03499025814118494,0.04414600813975687,0.007170184186936229,0.01823024855644205,0.019589581451699555,0.056092127453964545,0.018338733700926,0.0431003946278265
0.0768103,0.035254350803394376,0.04446728744789348,0.007256346015505769,0.0182133243269294,0.019551839696743983,0.05621930445067473,0.01831930483046293,0.04348311106373245
0.0772759,0.035518609509965514,0.04478944691057803,0.0073442383308057356,0.01819458387266323,0.01951223484761766,0.056344146524197065,0.018298696931980316,0.043866983350330735
0.0777414,0.03578302113022616,0.04511248197625724,0.007433871461751358,0.018174043521851087,0.019470786711708325,0.05646671139578368,0.018276952287032414,0.04425199914813992
0.0782069,0.036047572504377776,0.045436387968622746,0.007525255249044016,0.018151719843156486,0.019427515501572946,0.05658705653192656,0.01825411298674834,0.04463814585868507
0.0786724,0.03631225044404392,0.04576116008446657,0.007618399037076533,0.018127629642084968,0.019382441828032587,0.05670523912795445,0.01823022091958071,0.04502541062099279
0.0791379,0.03657704173281002,0.0460867933915625,0.007713311665965145,0.018101789957345554,0.019335586693108704,0.056821316091957896,0.01820531775921268,0.04541378030813502
0.0796034,0.03684193312675489,0.046413282826573705,0.007810001463712548,0.018074218057188136,0.01928697148280498,0.056935344029044196,0.018179444952627247,0.045803241523824575
0.080069,0.03710691135497399,0.046740623192986164,0.007908476238506436,0.018044931435717265,0.01923661795973913,0.05704737922592385,0.018152643708342586,0.046193780599064725
0.0805345,0.03737196312009473,0.04706880915906796,0.008008743271157805,0.01801394780918274,0.019184548255629326,0.05715747763582959,0.018124954984817226,0.046585383588855334
0.081,0.037637075098784355,0.0473978352558545,0.008110809307683308,0.017981285112247423,0.019130784863640265,0.0572656948637686,0.01809641947902854,0.04697803626895773
0.0814655,0.03790223394225111,0.047727695875159716,0.00821468055203584,0.017946961494232562,0.019075350630593988,0.05737208615210856,0.018067077615228036,0.04737172413272081
0.081931,0.038167426276739976,0.04805838526761406,0.00832036265898748,0.01791099531534102,0.019018268749050965,0.057476706366497876,0.01803696953387678,0.04776643238797079
0.0823966,0.03843263870402468,0.048389897540729664,0.008427860727168857,0.017873405142858564,0.018959562749267262,0.057579609982120535,0.018006135080764124,0.04816214595396716
0.0828621,0.03869785780189786,0.04872222665699351,0.008537179292268883,0.01783420974733355,0.01889925649103395,0.057680851070286226,0.017974613796312818,0.0485588494584272
0.0833276,0.03896307012466158,0.049055366431989066,0.008648322320398805,0.017793428098735246,0.018837374155405148,0.05778048328535627,0.017942444905073428,0.0489565272346216
0.0837931,0.03922826220362016,0.049389310532546714,0.008761293201624372,0.01775107936259119,0.018773940236321177,0.0578785598520058,0.01790966730541088,0.04935516331854363
0.0842586,0.03949342054757741,0.04972405247492288,0.008876094743669929,0.01770718289610395,0.018708979532133144,0.057975133552822564,0.01787631955938576,0.04975474144615482
0.0847241,0.03975853164333991,0.05005958562300754,0.00899272916579809,0.017661758244247937,0.01864251713703537,0.05807025671624213,0.017842439882832833,0.05015524505071001
0.0851897,0.040023581956228044,0.05039590318655944,0.009111198092868662,0.017614825135846935,0.018574578432411868,0.058163981204819644,0.017808066135639206,0.050556657260165234
0.0856552,0.040288557930596304,0.0507329982194679,0.009231502549580361,0.01756640347963328,0.018505189078102988,0.058256358403837714,0.017773235812224415,0.050958960894671765
0.0861207,0.04055344599036427,0.05107086361804012,0.00935364295489885,0.017516513360289847,0.018434375003598368,0.05834743921024996,0.01773798603222464,0.051362138464159136
0.0865862,0.040818232539559615,0.05140949211931257,0.009477619116674517,0.01746517503447627,0.018362162399162246,0.05843727402195944,0.01770235353138311,0.051766172166010115
0.0870517,0.041082903962874256,0.05174887629938474,0.00960343022645341,0.01741240892684109,0.01828857770689711,0.05852591272743093,0.017666374652648868,0.05217104388283013
0.0875172,0.04134744662623467,0.052089008571773766,0.009731074854484587,0.017358235626021876,0.018213647611751597,0.05861340469563549,0.017630085337485793,0.0525767351803133
0.0879828,0.041611846877387317,0.052429881185787855,0.009860550944927167,0.017302675880635384,0.01813739903247842,0.058699798766325466,0.017593521117393842,0.05298322730520699
0.0884483,0.0418760910464999,0.05277148622491642,0.009991855811260221,0.01724575059526011,0.018059859112548076,0.05878514324063752,0.017556717105644215,0.05339050118337674
0.0889138,0.04214016544677922,0.053113815605234684,0.010124986131898632,0.017187480826413505,0.017981055211023864,0.058869485872021184,0.01751970798923016,0.05379853741797297
0.0893793,0.04240405637510623,0.05345686107382039,0.010259937946017943,0.017127887778526144,0.017901014893403806,0.05895287385748989,0.017482528021034886,0.054207316287700986
0.0898448,0.04266775011268874,0.0538006142071801,0.010396706649591215,0.017066992799915,0.01781976592243481,0.05903535382919138,0.01744521101221799,0.05461681774519509
0.0903103,0.04293123292573197,0.054145066409682724,0.010535286991640752,0.017004817378757996,0.017737336248904542,0.05911697184629417,0.01740779032482159,0.055027021415497424
0.0907759,0.04319449106612721,0.054490208911997615,0.010675673070707591,0.01694138313907187,0.01765375400241626,0.05919777338718693,0.01737029886459735,0.05543790659464191
0.0912414,0.04345751077215823,0.05483603276953485,0.01081785833154153,0.016876711836695354,0.017569047482151857,0.059277803341987366,0.01733276907405535,0.05584945224834324
0.0917069,0.043720278269225414,0.05518252886088488,0.01096183556201442,0.01681082535527981,0.017483245147628237,0.059357106005357506,0.017295232925735704,0.05626163701079069
0.0921724,0.04398277977058697,0.05552968788625466,0.011107596890259377,0.016743745702289387,0.017396375609451918,0.059435725069621935,0.017257721915703628,0.05667443918354619
0.0926379,0.0442450014781167,0.05587750036589786,0.011255133782038518,0.01667549500501296,0.017308467620076772,0.059513703618185664,0.017220267057268607,0.057087836734546184
0.0931034,0.04450692958307786,0.05622595663853676,0.011404437038341719,0.01660609550659005,0.01721955006456959,0.0595910841192482,0.01718289887492816,0.057501807297206206
0.093569,0.04476855026691237,0.05657504685977405,0.01155549679321888,0.016535569562052883,0.017129651951388047,0.05966790841981014,0.01714564739853655,0.05791632816962786
0.0940345,0.045029849702044954,0.056924761000492985,0.011708302511848059,0.01646393963438679,0.01703880240317565,0.05974421773996853,0.01710854215769874,0.058331376313907626
0.0945,0.04529081405270117,0.05727508884524505,0.011862842988841799,0.01639122829061089,0.016947030647577997,0.05982005266749727,0.017071612176389774,0.05874692835554738
0.0949655,0.04555142947573846,0.05762601999062399,0.012019106346793831,0.01631745819788108,0.016854366008084678,0.05989545315270833,0.017034885967799722,0.05916296058296668
0.095431,0.045811682121489124,0.0579775438436259,0.012177080035068325,0.016242652119617194,0.016760837894900918,0.059970458503590215,0.016998391529404244,0.05957944894711697
0.0958966,0.04607155813461393,0.058329649619994484,0.01233675082883366,0.016166832911656263,0.016666475795852943,0.060045107381219626,0.01696215633826073,0.05999636906119776
0.0963621,0.046331043654965466,0.05868232634255085,0.012498104828342708,0.016090023518433635,0.016571309267330924,0.06011943779544306,0.016926207346529994,0.06041369620047492
0.0968276,0.04659012481846018,0.05903556283950692,0.012661127458461435,0.016012246969193785,0.016475367925273172,0.06019348710082471,0.016890570977223414,0.06083140530220096
0.0972931,0.046848787757958386,0.0593893477427621,0.012825803468447583,0.01593352637423252,0.016378681436195176,0.06026729199285764,0.016855273120175405,0.06124947096563796
0.0977586,0.047107018604151736,0.05974366948618289,0.012992116931981068,0.015853884921172245,0.016281279508266914,0.060340888504435364,0.016820339128241043,0.0616678674521834
0.0982241,0.04736480348645776,0.06009851630386621,0.013160051247447608,0.015773345871271903,0.016183191882441657,0.06041431200258085,0.01678579381371857,0.06208656868560008
0.0986897,0.04762212853392125,0.06045387622838758,0.01332958913847706,0.015691932555773162,0.016084448323639502,0.06048759718543007,0.01675166144499649,0.06250554825235145
0.0991552,0.047878979876122094,0.06080973708903643,0.013500712654737798,0.01560966837228432,0.01598507861198857,0.060560778079467144,0.01671796574342486,0.06292477940204376
0.0996207,0.04813534364408929,0.06116608651004097,0.013673403172988397,0.015526576781203387,0.015885112534126892,0.060633888037008754,0.016684729880410358,0.06334423504797641
0.1000862,0.04839120597122048,0.06152291190878614,0.013847641398387765,0.015442681302181627,0.015784579874567724,0.06070695973393562,0.01665197647473456,0.06376388776780204
0.1005517,0.04864655299420602,0.06188020049402821,0.014023407366064788,0.015358005510628785,0.015683510407131073,0.06078002516766954,0.016619727590094814,0.0641837098042973
0.1010172,0.04890137085395652,0.062237939264110434,0.014200680442948406,0.015272573034261059,0.015581933886444028,0.060853115655395175,0.016588004732866916,0.06460367306624527
0.1014828,0.04915564569653219,0.0625961150051842,0.014379439329858981,0.01518640754969279,0.015479880039512447,0.060926261832526245,0.016556828850088703,0.06502374912943013
0.1019483,0.049409363674072435,0.06295471428944072,0.014559662063861771,0.01509953277907276,0.01537737855736642,0.060999493651416166,0.016526220327663616,0.0654439092377445
0.1024138,0.04966251094572422,0.06331372347335863,0.014741326020883155,0.015011972486765833,0.015274459086781936,0.06107284038031344,0.016496198988783153,0.06586412430440997
0.1028793,0.049915073678567935,0.0636731286959725,0.014924407918590295,0.014923750476080615,0.015171151222081045,0.06114633060256262,0.016466784092567105,0.06628436491331115
0.1033448,0.050167038048539975,0.06403291587716768,0.015108883819534766,0.014834890586043684,0.015067484497012779,0.061219992216051476,0.01643799433292038,0.06670460132044399
0.1038103,0.05041839024135178,0.06439307071600694,0.01529472913456068,0.01474541668822089,0.014963488376717047,0.061293852432905145,0.016409847837605056,0.0671248034554791
0.1042759,0.05066911645340525,0.06475357868909393,0.015481918626477695,0.014655352683586139,0.014859192249773584,0.061367937779427756,0.016382362167526338,0.06754494092344113
0.1047414,0.0509192028927045,0.06511442504897866,0.015670426413999232,0.014564722499437912,0.01475462542033806,0.06144227409629184,0.016355554316230803,0.06796498300650584
0.1052069,0.051168635779763834,0.0654755948226102,0.01586022597594609,0.014473550086363732,0.014649817100367241,0.06151688653897571,0.016329440709615357,0.068384898665916
0.1056724,0.05141740134851165,0.06583707280984066,0.01605129015571559,0.014381859415252671,0.014544796401935135,0.06159179957844869,0.01630403720584516,0.06880465654401824
0.1061379,0.051665485847189274,0.06619884358198524,0.01624359116601622,0.01428967447435588,0.014439592329641902,0.06166703700210395,0.016279359095478594,0.06922422496642353
0.1066034,0.05191287553924371,0.0665608914804425,0.016437100593867653,0.014197019266395135,0.014334233773117249,0.06174262191493867,0.01625542110179732,0.06964357194429419
0.107069,0.052159556704212975,0.06692320061537926,0.016631789405865904,0.014103917805719225,0.014228749499619935,0.061818576740980666,0.016232237381339273,0.0700626651767605
0.1075345,0.05240551563860236,0.06728575486448492,0.0168276279537133,0.014010394115507977,0.014123168146734921,0.06189492322496037,0.016209821524632344,0.07048147205346965
0.108,0.05265073865674967,0.06764853787180053,0.017024585980012767,0.013916472225023636,0.014017518215169675,0.06197168243422662,0.01618818655712635,0.07089995965726956
0.1084655,0.052895212091677954,0.06801153304662877,0.017222632624325857,0.013822176166909218,0.01391182806165099,0.06204887476090451,0.016167344940320773,0.07131809476702988
0.108931,0.05313892229593382,0.06837472356253095,0.017421736429493767,0.013727529974533451,0.013806125891923718,0.062126519924292856,0.016147308573085623,0.07173584386060175
0.1093966,0.0533818556424096,0.06873809235641808,0.017621865348220533,0.013632557679381863,0.013700439753852746,0.06220463697349878,0.016128088793172613,0.07215317311791754
0.1098621,0.053623998525147695,0.0691016221277427,0.017822986749917377,0.013537283308493442,0.01359479753062947,0.06228324429030665,0.016109696378913747,0.07257004842423168
0.1103276,0.05386533736012552,0.06946529533779824,0.018025067427807167,0.013441730881942227,0.013489226934084008,0.06236235959227798,0.01609214155110422,0.07298643537350294
0.1107931,0.0541058585860189,0.0698290942091319,0.018228073606287802,0.013345924410363117,0.013383755498104352,0.062441999936079,0.0160754339750664,0.0734022992719183
0.1112586,0.054345548664942366,0.0701930007250771,0.01843197094855323,0.013249887892521033,0.013278410572163534,0.06252218172103165,0.01605958276289162,0.0738176051415577
0.1117241,0.05458439408316438,0.07055699662941062,0.0186367245644707,0.013153645312922449,0.013173219314955846,0.06260292069288412,0.016044596475856238,0.07423231772419886
0.1121897,0.054822381351795804,0.07092106342613956,0.018842299018712823,0.013057220639468235,0.013068208688143007,0.06268423194779628,0.016030483127008405,0.07464640148526035
0.1126552,0.055059497007450005,0.07128518237942287,0.01904865833914295,0.012960637821146636,0.012963405450211109,0.062766129936535,0.01601725018392191,0.07505982061788133
0.1131207,0.05529572761287326,0.07164933451363183,0.019255766025452314,0.012863920785765134,0.012858836150439019,0.06284862846887428,0.016004904571613368,0.07547253904713529
0.1135862,0.05553105975754372,0.07201350061355434,0.01946358505804741,0.012767093437719841,0.012754527122978917,0.06293174071819456,0.01599345267561912,0.07588452043437492
0.1140517,0.055765480058238115,0.0723776612247476,0.01967207790718599,0.012670179655800994,0.01265050448104951,0.06301547922627569,0.015982900345228254,0.07629572818170538
0.1145172,0.05599897515956542,0.07274179665404361,0.019881206542360138,0.012573203291033064,0.012546794111242432,0.06309985590827737,0.015973252896868267,0.07670612543658303
0.1149828,0.05623153173446767,0.0731058869702115,0.02009093244192483,0.01247618816454794,0.012443421667942312,0.06318488205790103,0.015964515117640007,0.07711567509653683
0.1154483,0.0564631364846884,0.07346991200478048,0.020301216602970407,0.01237915806548958,0.012340412567860908,0.06327056835272665,0.015956691268998496,0.07752433981400932
0.1159138,0.05669377614120968,0.07383385135302638,0.020512019551437475,0.012282136748948479,0.012237791984685784,0.06335692485971793,0.01594978509057635,0.0779320820013153
0.1163793,0.056923437464658215,0.074197684375125,0.02072330135247263,0.012185147933924253,0.012135584843843923,0.06344396104088941,0.015943799804146366,0.07833886383571607
0.1168448,0.05715210724568102,0.07456139019747486,0.020935021621023512,0.012088215301314632,0.01203381581738068,0.06353168575912886,0.015938738117719797,0.07874464726460832
0.1173103,0.057379772305290774,0.07492494771419175,0.02114713953267161,0.011991362491929064,0.011932509318954496,0.06362010728416861,0.015934602229776756,0.0791493940108273
0.1177759,0.05760641949518083,0.07528833558877747,0.021359613834701266,0.0118946131045252,0.0118316894989477,0.06370923329869953,0.015931393833625154,0.07955306557806466
0.1182414,0.057832035698009585,0.0756515322559645,0.021572402857403254,0.011797990693866408,0.011731380239693773,0.0637990709046216,0.01592911412188458,0.079955623256401
0.1187069,0.058056607827654,0.07601451592373785,0.02178546452561126,0.011701518768798541,0.011631605150821322,0.06388962662942567,0.01592776379109149,0.08035702812795402
0.1191724,0.058280122829432,0.07637726457553522,0.021998756370469403,0.011605220790344085,0.01153238756471505,0.063980906432701,0.015927343046422175,0.080757241072643
0.1196379,0.05850256768029358,0.07673975597262579,0.022212235541428916,0.011509120169811876,0.011433750532093865,0.06407291571276354,0.015927851606530086,0.08115622277407028
0.1201034,0.05872392938898005,0.07710196765666802,0.02242585881847191,0.011413240266920583,0.011335716817706192,0.06416565931339968,0.01592928870849413,0.08155393372552039
0.120569,0.05894419499615109,0.07746387695244582,0.02263958262456,0.011317604387934086,0.011238308896142517,0.06425914153072014,0.015931653112874734,0.08195033423607732
0.1210345,0.059163351574478676,0.07782546097078229,0.022853363038305343,0.01122223578380698,0.01114154894776508,0.06435336612011834,0.01593494310887446,0.0823453844368608
0.1215,0.059381386228707235,0.07818669661162965,0.023067155806861625,0.011127157648338387,0.011045458854754567,0.06444833630332793,0.015939156519599963,0.08273904428738202
0.1219655,0.05959828609567872,0.0785475605673333,0.023280916359032178,0.01103239311633234,0.01095006019727361,0.0645440547755736,0.015944290707421923,0.08313127358201974
0.122431,0.05981403834432113,0.0789080293260679,0.023494599818592223,0.010937965261763011,0.010855374249746747,0.06464052371280946,0.015950342579429774,0.08352203195661777
0.1228966,0.06002863017559875,0.07926807917544278,0.023708161017822096,0.010843897095943092,0.010761421977256548,0.0647377447790392,0.015957308592977944,0.08391127889520437
0.1233621,0.06024204882242231,0.0796276862062735,0.023921554511248163,0.010750211565693668,0.01066822403205551,0.06483571913371183,0.0159651847613206,0.08429897373683422
0.1238276,0.060454281549516514,0.07998682631651644,0.024134734589587876,0.010656931551514075,0.010575800750193284,0.06493444743918762,0.015973966659332116,0.0846850756825527
0.1242931,0.060665315653242735,0.08034547521536262,0.02434765529389521,0.010564079865750146,0.010484172148258895,0.0650339298682683,0.01598364942931066,0.08506954380248295
0.1247586,0.060875138461374545,0.08070360842748732,0.024560270429902633,0.010471679250759298,0.010393357920237486,0.06513416611178649,0.01599422778686247,0.08545233704303573
0.1252241,0.06108373733282373,0.08106120129745187,0.024772533582555635,0.010379752377070886,0.010303377434481217,0.06523515538624973,0.016005696026864417,0.08583341423424254
0.1256897,0.06129109965731495,0.08141822899425405,0.024984398130735528,0.010288321841540098,0.01021424973079391,0.0653368964415347,0.016018048029502314,0.08621273409721321
0.1261552,0.0614972128550074,0.08177466651602361,0.025195817262166294,0.010197410165493671,0.01012599351762898,0.06543938756862817,0.016031277266382555,0.0865902552517193
0.1266207,0.06170206437606271,0.08213048869485912,0.025406743988500968,0.010107039792865551,0.010038627169400164,0.06554262660741138,0.016045376806714574,0.08696593622390561
0.1270862,0.06190564170015851,0.08248567020180188,0.0256171311605829,0.010017233088320608,0.009952168723904508,0.06564661095448499,0.01606033932356164,0.08733973545413178
0.1275517,0.062107932335948,0.08284018555194271,0.025826931483877096,0.009928012335364413,0.00986663587985698,0.06575133757103153,0.016076157100157615,0.08771161130494586
0.1280172,0.062308923820465996,0.08319400910965671,0.026036097534066726,0.009839399734437076,0.009782045994536026,0.06585680299071198,0.01609282203628728,0.0880815220691918
0.1284828,0.06250860371848242,0.0835471150939614,0.026244581772809618,0.009751417400989204,0.009698416081539414,0.06596300332759292,0.016110325654727913,0.08844942597825245
0.1289483,0.06270695962180481,0.08389947758399356,0.0264523365636495,0.009664087363538154,0.009615762808649574,0.06606993428410039,0.016128659107749847,0.08881528121042939
0.1294138,0.06290397914853098,0.08425107052460008,0.02665931418807664,0.009577431561702997,0.009534102495807738,0.06617759115899612,0.016147813183673792,0.08917904589946127
0.1298793,0.06309964994225317,0.0846018677320382,0.026865466861732343,0.00949147184421693,0.009453451113195998,0.06628596885537133,0.01616777831348286,0.08954067814318192
0.1303448,0.06329395967121491,0.08495184289978043,0.027070746750751593,0.009406229966916207,0.009373824279426459,0.06639506188865338,0.016188544577487363,0.08990013601231998
0.1308103,0.06348689602742189,0.08530096960441866,0.027275105988238204,0.009321727590704916,0.009295237259836553,0.06650486439461933,0.01621010171204063,0.09025737755944106
0.1312759,0.06367844672570795,0.08564922131166194,0.027478496690866487,0.009237986279495123,0.00921770496488954,0.06661537013741077,0.01623243911630429,0.09061236082803358
0.1317414,0.06386859950275744,0.08599657138242178,0.027680870975603396,0.009155027498121937,0.009141241948679157,0.06672657251754344,0.01625554585906173,0.09096504386173909
0.1322069,0.06405734211608449,0.0863429930789784,0.027882180976545018,0.009072872610233047,0.009065862407537345,0.06683846457990494,0.016279410685578456,0.09131538471372751
0.1326724,0.06424466234297024,0.0866884595712218,0.02808237886186116,0.008991542876152295,0.00899158017874389,0.06695103902173333,0.016304022024508237,0.09166334145621766
0.1331379,0.06443054797935883,0.08703294394296067,0.02828141685084167,0.00891105945071678,0.008918408739336857,0.06706428820056881,0.016329367994843885,0.09200887219014381
0.1336034,0.06461498683871307,0.08737641919829262,0.028479247231038028,0.00883144338108705,0.00884636120502256,0.06717820414217072,0.016355436412911505,0.09235193505496796
0.134069,0.06479796675083087,0.08771885826802978,0.02867582237549361,0.008752715604529927,0.008775450329183905,0.0672927785483911,0.016382214799406988,0.09269248823863882
0.1345345,0.06497947556062346,0.08806023401617409,0.028871094760055952,0.008674896946173533,0.008705688501985883,0.06740800280499577,0.016409690386473406,0.09303048998769754
0.135,0.06515950112685627,0.08840051924643727,0.029065016980764285,0.008598008116734052,0.008637087749577041,0.06752386798942392,0.01643785012481788,0.09336589861753013
0.1354655,0.06533803132085363,0.0887396867088015,0.029257541771305445,0.008522069710213758,0.008569659733385738,0.06764036487847581,0.016466680690866323,0.09369867252276592
0.135931,0.06551505402516866,0.08907770910611677,0.02944862202053132,0.008447102201569755,0.008503415749509982,0.06775748395591911,0.01649616849395441,0.09402877018782156
0.1363966,0.06569055713222019,0.08941455910073115,0.02963821079003083,0.008373125944352862,0.008438366728199627,0.06787521542000405,0.01652629968355288,0.09435615019758882
0.1368621,0.06586452854289986,0.08975020932115006,0.029826261331749458,0.008300161168316009,0.00837452323342968,0.06799354919087863,0.016557060156525336,0.09468077124826467
0.1373276,0.06603695616515327,0.09008463236872048,0.030012727105649298,0.00822822797699153,0.008311895462563472,0.06811247491789625,0.016588435564416425,0.09500259215832092
0.1377931,0.06620782791253996,0.0904178008243356,0.03019756179740251,0.00815734634523661,0.008250493246104386,0.06823198198680944,0.01662041132076827,0.09532157187961025
0.1382586,0.06637713170277731,0.09074968725515561,0.030380719336111084,0.008087536116746206,0.00819032604753486,0.06835205952684471,0.016652972608463008,0.09563766950860468
0.1387241,0.06654485545627441,0.09108026422134022,0.03056215391204578,0.008018817001532723,0.008131402963241266,0.06847269641765434,0.016686104387089114,0.09595084429776148
0.1391897,0.06671098709466089,0.09140950428278845,0.030741819994396926,0.007951208573371697,0.008073732722523317,0.06859388129614126,0.01671979140032932,0.09626105566701154
0.1396552,0.06687551453931682,0.09173738000588169,0.03091967234902992,0.007884730267212786,0.008017323687686527,0.06871560256315465,0.016754018183367865,0.09656826321536492
0.1401207,0.06703842570990845,0.0920638639702258,0.031095666056238154,0.00781940137655539,0.007962183854216294,0.06883784839005405,0.016788769070315034,0.09687242673262782
0.1405862,0.06719970852293557,0.09238892877538808,0.031269756528486,0.007755241050788234,0.007908320851032167,0.0689606067251417,0.01682402820164696,0.0971735062112254
0.1410517,0.06735935089029609,0.09271254704762501,0.03144189952813439,0.007692268292492279,0.007855741940820858,0.06908386529996408,0.01685977953165894,0.09747146185812508
0.1415172,0.06751734071787346,0.0930346914465962,0.03161205118514171,0.0076305019547063275,0.007804454020446585,0.06920761163548461,0.016896006835930552,0.09776625410685483
0.1419828,0.06767366590415298,0.09335533467206027,0.03178016801473235,0.007569960738154717,0.007754463621437297,0.06933183304813087,0.016932693718800965,0.09805784362961058
0.1424483,0.06782831433887265,0.0936744494705474,0.031946206935025624,0.007510663188436432,0.007705776910545406,0.06945651665571961,0.016969823620852854,0.09834619134944735
0.1429138,0.06798127390171436,0.09399200864200302,0.0321101252846173,0.0074526276931750415,0.007658399690381566,0.06958164938326346,0.01700737982640337,0.09863125845254828
0.1433793,0.06813253246104022,0.09430798504639668,0.03227188084010638,0.007395872479128845,0.007612337400120073,0.06970721796866283,0.017045345471000808,0.09891300640056604
0.1438448,0.06828207787267886,0.09462235161028897,0.03243143183355948,0.007340415609260706,0.00756759511627447,0.06983320896828676,0.01708370354892582,0.09919139694303042
0.1443103,0.06842989797876622,0.0949350813333495,0.03258873696990503,0.007286274979767119,0.007524177553541998,0.06995960876244564,0.01712243692069626,0.09946639212981595
0.1447759,0.06857598060664451,0.09524614729481758,0.0327437554442498,0.007233468317066187,0.0074820890657155605,0.07008640356075922,0.017161528320575048,0.0997379543236637
0.1452414,0.06872031356782314,0.09555552265989699,0.0328964469591098,0.007182013174744305,0.007441333646662012,0.0702135794074233,0.017200960364080517,0.10000604621275185
0.1457069,0.06886288465700456,0.09586318068607602,0.03304677174154758,0.00713192693046143,0.007401914931365645,0.07034112218637818,0.017240715555498762,0.10027063082331059
0.1461724,0.06900368165117828,0.09616909472936305,0.033194690560207914,0.007083226782815028,0.007363836197035867,0.07046901762638244,0.017280776295397496,0.10053167153227814
0.1466379,0.06914269230878627,0.09647323825042792,0.033340164742243314,0.007035929748162905,0.007327100364278112,0.07059725130599534,0.01732112488814076,0.10078913207999565
0.1471034,0.06927990436896224,0.0967755848206383,0.03348315619012087,0.006990052657405361,0.007291709998327075,0.0707258086584708,0.01736174354940381,0.1010429765829385
0.147569,0.0694153055508479,0.09707610812798033,0.033623627398301624,0.00694561215272723,0.007257667310341354,0.07085467497656635,0.0174026144136874,0.10129316954648188
0.1480345,0.0695488835529885,0.09737478198285174,0.03376154146978333,0.00690262468430055,0.007224974158758541,0.07098383541727016,0.017443719541830487,0.1015396758776975
0.1485,0.0696806260528098,0.09767158032371544,0.033896862132497596,0.0068611065069487075,0.007193632050709812,0.07111327500644939,0.017485040928520264,0.1017824608981774
0.1489655,0.06981052070617873,0.09796647722260055,0.03402955375555199,0.006821073676772965,0.007163642143492973,0.07124297864342277,0.017526560509798405,0.10202149035688085
0.149431,0.06993855514704905,0.09825944689043761,0.03415958136530787,0.006782542047742292,0.007135005246102945,0.0713729311054605,0.017568260170562042,0.10225673044299931
0.1498966,0.07006471698719334,0.09855046368221396,0.03428691066128443,0.006745527268247452,0.0071077218208186466,0.07150311705221438,0.017610121752058165,0.10248814779883403
0.1503621,0.07018899381602198,0.09883950210193483,0.03441150803187985,0.006710044777620349,0.0070817919848452275,0.07163352103008142,0.017652127059369884,0.10271570953268
0.1508276,0.07031137320048943,0.09912653680737557,0.0345333405699001,0.0066761098026197245,0.007057215512010593,0.07176412747650453,0.017694257868892987,0.10293938323170954
0.1512931,0.07043184268508769,0.09941154261460981,0.03465237608788627,0.006643737353884412,0.00703399183451519,0.07189492072421451,0.017736495935801053,0.10315913697484776
0.1517586,0.07055038979192618,0.09969449450230025,0.034768583133231445,0.0066129422223555135,0.007012120044734025,0.07202588500541757,0.017778823001497447,0.10337493934563197
0.1522241,0.07066700202089714,0.099975367615739,0.034881931003077994,0.006583738975669057,0.006991598897069962,0.07215700445593319,0.017821220801052324,0.10358675944504604
0.1526897,0.07078166684992496,0.10025413727062582,0.034992389758986525,0.006556141954520865,0.006972426809857396,0.07228826311928686,0.017863671070622866,0.1037945669043208
0.1531552,0.07089437173529767,0.10053077895657403,0.035099930241367545,0.006530165269005463,0.006954601867315496,0.0724196449507621,0.017906155554854843,0.10399833189769132
0.1536207,0.07100510411207768,0.10080526834033383,0.03520452408366721,0.0065058227949309376,0.006938121821550307,0.07255113382141597,0.017948656014263546,0.1041980251551016
0.1540862,0.07111385139458926,0.10107758126872404,0.035306143726298464,0.006483128170111628,0.006922984094605073,0.07268271352206206,0.017991154232592163,0.10439361797484809
0.1545517,0.07122060097697921,0.10134769377126225,0.035404762430308885,0.006462094790640607,0.006909185780558219,0.07281436776722466,0.018033632024145575,0.10458508223615409
0.1550172,0.07132534023384758,0.10161558206248349,0.03550035429077679,0.0064427358071438194,0.006896723647668579,0.07294608019906779,0.018076071241097523,0.10477239041166851
0.1554828,0.07142805652094453,0.10188122254393801,0.035592894249926996,0.006425064121017774,0.0068855941405675325,0.07307783439130201,0.01811845378076909,0.10495551557988313
0.1559483,0.07152873717592985,0.10214459180585875,0.03568235810995794,0.0064090923806526525,0.006875793382497878,0.073209613853072,0.0181607615928762,0.1051344314374631
0.1564138,0.07162736951919135,0.10240566662849038,0.03576872254557162,0.006394832977642762,0.006867317177599368,0.07334140203282653,0.018202976686743828,0.10530911231148607
0.1568793,0.07172394085471857,0.10266442398307454,0.035851965116198044,0.006382298042986245,0.006860161013240926,0.07347318232217384,0.018245081138484477,0.10547953317158472
0.1573448,0.07181843847102812,0.10292084103248816,0.03593206427790623,0.0063714994432759985,0.006854320062399567,0.07360493805972361,0.018287057098138274,0.10564566964198858
0.1578103,0.07191084964213729,0.10317489513153558,0.036008999394993677,0.006362448776883779,0.006849789186086094,0.07373665253491826,0.018328886796771925,0.10580749801346137
0.1582759,0.07200116162858278,0.10342656382689831,0.036082750751246555,0.006355157370139483,0.006846562935817564,0.07386830899185531,0.018370552553533703,0.10596499525513033
0.1587414,0.07208936167848169,0.10367582485674959,0.03615329956086283,0.006349636273507595,0.006844635556136499,0.07399989063310289,0.0184120367826615,0.10611813902620444
0.1592069,0.07217543702863231,0.10392265615004262,0.03622062797903047,0.006345896257762819,0.006844000987176723,0.07413138062351,0.018453322000440888,0.10626690768757789
0.1596724,0.07225937490565221,0.1041670358254831,0.03628471911215298,0.006343947810166867,0.006844652867275714,0.0742627620940126,0.018494390832110172,0.10641128031331472
0.1601379,0.07234116252715198,0.10440894219019685,0.03634555702771439,0.006343801130648376,0.006846584535633317,0.0743940181454364,0.018535226018709366,0.10655123670200964
0.1606034,0.07242078710294263,0.10464835373810304,0.03640312676377593,0.006345466127987914,0.006849789035016629,0.07452513185229676,0.01857581042386998,0.10668675738801996
0.161069,0.07249823583627524,0.10488524914800362,0.0364574143380968,0.00634895241600998,0.006854259114510867,0.07465608626659521,0.018616127040542437,0.10681782365256234
0.1615345,0.07257349592511088,0.10511960728139949,0.03650840675687143,0.0063542693097838904,0.006859987232316081,0.07478686442161271,0.018656158997657907,0.10694441753466796
0.162,0.07264655456341947,0.10535140718004365,0.03655609202307608,0.006361425821835426,0.006866965558589501,0.07491744933569897,0.018695889566721274,0.10706652184198938
0.1624655,0.0727173989425055,0.10558062806324223,0.03660045914441787,0.006370430658371086,0.006875185978333392,0.07504782401605782,0.018735302168331972,0.10718412016145241
0.162931,0.07278601625235886,0.1058072493249138,0.0366414981408793,0.006381292215516827,0.0068846400943282935,0.07517797146252793,0.018774380378629392,0.107297196869747
0.1633966,0.07285239368302857,0.10603125053041866,0.036679200051852164,0.0063940185755731425,0.006895319230111589,0.07530787467135804,0.018813107935659636,0.10740573714365123
0.1638621,0.07291651842601768,0.106252611413169,0.03671355694285451,0.006408617503288349,0.0069072144330014264,0.07543751663897585,0.01885146874566047,0.10750972697018331
0.1643276,0.07297837767569837,0.10647131187103218,0.036744561911824965,0.006425096442151954,0.006920316477165988,0.07556688036574934,0.018889446889261374,0.107609153156576
0.1647931,0.07303795863074661,0.10668733196254031,0.03677220909498871,0.006443462510710001,0.0069346158667382635,0.07569594885973914,0.01892702662759577,0.10770400334006841
0.1652586,0.07309524849559744,0.10690065190292018,0.036796493672289876,0.006463722498904246,0.006950102838976385,0.07582470514044093,0.018964192408322728,0.10779426599750946
0.1657241,0.07315023448192273,0.10711125205995857,0.03681741187238523,0.006485882864437053,0.006966767367469618,0.07595313224251617,0.019000928871555665,0.1078799304547676
0.1661897,0.07320290381013446,0.1073191129497186,0.03683496097719415,0.00650994972916382,0.006984599165390042,0.07608121321951075,0.019037220855695883,0.10796098689594069
0.1666552,0.07325324371091724,0.10752421523212352,0.03684913932600007,0.006535928875514744,0.007003587688789952,0.07620893114756039,0.019073053403168953,0.10803742637235979
0.1671207,0.07330124142679488,0.10772653970642382,0.03685994631909844,0.006563825742947709,0.007023722139944929,0.07633626912908181,0.01910841176606207,0.10810924081137967
0.1675862,0.07334688421373609,0.10792606730656339,0.03686738242098639,0.006593645424433994,0.007044991470742581,0.07646321029644879,0.01914328141166051,0.10817642302494845
0.1680517,0.07339015934280461,0.10812277909646129,0.03687144916308916,0.0066253926629785236,0.007067384386116858,0.07658973781565133,0.019177648027881238,0.10823896671794776
0.1685172,0.07343105410185947,0.10831665626522521,0.03687214914601866,0.006659071848176307,0.0070908893475279035,0.07671583488993636,0.019211497528601643,0.10829686649629394
0.1689828,0.07346955579731043,0.10850768012231268,0.03686948604135976,0.006694687012806688,0.007115494576487307,0.07684148476342731,0.019244816058881235,0.10835011787479044
0.1694483,0.07350565175593368,0.10869583209265578,0.03686346459298052,0.006732241829466991,0.007141188058128643,0.07696667072472027,0.019277590000074136,0.10839871728472052
0.1699138,0.07353932932675225,0.1088810937117647,0.036854090617862933,0.006771739607247097,0.0071679575448231414,0.07709137611045389,0.01930980597483025,0.10844266208116882
0.1703793,0.07357057588298498,0.10906344662082453,0.036841371006451525,0.00681318328844648,0.007195790559840259,0.07721558430885012,0.019341450851982994,0.10848195055006016
0.1708448,0.07359937882406795,0.10924287256179908,0.03682531372251742,0.006856575445335129,0.0072246744010529265,0.07733927876322329,0.01937251175132164,0.10851658191490328
0.1713103,0.07362572557775159,0.10941935337255507,0.036805927802536255,0.006901918276959811,0.0072545961446871384,0.07746244297545425,0.019402976048246413,0.10854655634322727
0.1717759,0.07364960360227651,0.10959287098201878,0.036783223354578766,0.0069492136059970495,0.007285542649115523,0.07758506050942673,0.019432831378304535,0.1085718749526979
0.1722414,0.07367100038863084,0.10976340740537756,0.036757211556713666,0.006998462875654223,0.0073175005586944555,0.0777071149944228,0.019462065641605363,0.10859253981690181
0.1727069,0.0736899034628917,0.10993094473933646,0.03672790465492315,0.007049667146620194,0.007350456307644262,0.07782859012847465,0.01949066700711286,0.10860855397078516
0.1731724,0.07370630038865363,0.11009546515744073,0.036695315960532035,0.007102827094066935,0.007384396123972032,0.07794946968166974,0.019518623916813443,0.10861992141573436
0.1736379,0.07372017876954635,0.11025695090547397,0.03665945984715254,0.007157943004703666,0.007419306033436548,0.07806973749940645,0.019545925089757332,0.10862664712428699
0.1741034,0.07373152625184481,0.11041538429694113,0.03662035174714741,0.007215014773885083,0.007455171863554879,0.07818937750559704,0.01957255952597134,0.1086287370444612
0.174569,0.07374033052717419,0.11057074770864615,0.03657800814761499,0.007274041902775303,0.007491979247650212,0.07830837370581438,0.01959851651024121,0.10862619810369256
0.1750345,0.07374657933531323,0.11072302357637312,0.03653244658590041,0.007335023495569226,0.007529713628940527,0.07842671019037843,0.019623785615761606,0.10861903821236775
0.1755,0.07375026046709937,0.11087219439068037,0.036483685644637665,0.007397958256773024,0.007568360264667708,0.07854437113737818,0.019648356707651953,0.10860726626694478
0.1759655,0.07375136176743903,0.11101824269281695,0.036431744946328434,0.007462844488545431,0.0076079042302667575,0.07866134081562512,0.019672219946336486,0.1085908921526491
0.176431,0.0737498711384274,0.11116115107077071,0.0363766451474634,0.007529680088101546,0.007648330423574702,0.07877760358753541,0.019695365790786984,0.10856992674573546
0.1768966,0.07374577654258149,0.11130090215545811,0.03631840793219285,0.007598462545180821,0.007689623569078831,0.07889314391193901,0.0197177850016271,0.10854438191530641
0.1773621,0.07373906600619058,0.11143747861706504,0.036257056005553547,0.007669188939580831,0.007731768222203807,0.07900794634681581,0.019739468644097237,0.10851427052467902
0.1778276,0.07372972762278793,0.11157086316154853,0.036192613086259165,0.0077418559387584535,0.007774748773637226,0.07912199555195981,0.0197604080908793,0.10847960643229335
0.1782931,0.0737177495567476,0.11170103852730871,0.0361251038990618,0.007816459795500018,0.007818549453693108,0.07923527629157286,0.019780595024780794,0.10844040449215768
0.1787586,0.07370312004701028,0.1118279874820402,0.036054554166692364,0.007892996345662007,0.007863154336712802,0.07934777343679014,0.019800021441278057,0.10839668055382713
0.1792241,0.07368582741094173,0.1119516928197716,0.03598099060138753,0.007971461005983846,0.007908547345502774,0.0794594719681391,0.019818679650918783,0.10834845146191362
0.1796897,0.07366586004832887,0.11207213735810224,0.03590444089601115,0.008051848771974315,0.007954712255808728,0.07957035697793338,0.01983656228158412,0.10829573505512688
0.1801552,0.07364320644551783,0.11218930393564575,0.03582493371477768,0.008134154215873135,0.008001632700825477,0.07968041367260326,0.01985366228061086,0.10823855016484697
0.1806207,0.07361785517969875,0.11230317540969066,0.03574249868358509,0.008218371484689251,0.00804929217574198,0.07978962737496323,0.019869972916774243,0.10817691661322984
0.1810862,0.07358979492334157,0.11241373465408913,0.03565716637996448,0.008304494298317361,0.008097674042320903,0.07989798352641764,0.019885487782131957,0.10811085521084812
0.1815517,0.07355901444878739,0.11252096455738445,0.0355689683226535,0.008392515947734267,0.008146761533512107,0.08000546768910435,0.019900200793729866,0.10804038775386997
0.1820172,0.07352550263299946,0.11262484802118866,0.035477936960800434,0.0084824292932767,0.008196537758099401,0.0801120655479757,0.019914106195169957,0.1079655370207807
0.1824828,0.0734892484624777,0.11272536795882092,0.03538410566280566,0.008574226763002275,0.008246985705379904,0.08021776291281567,0.01992719855804091,0.10788632676865255
0.1829483,0.07345024103834066,0.1128225072942168,0.03528750870480715,0.00866790035113537,0.008298088249875333,0.08032254572019201,0.01993947278321161,0.10780278172896907
0.1834138,0.07340846958157857,0.11291624896111895,0.0351881812588168,0.008763441616599683,0.008349828156074527,0.08042640003534181,0.019950924101987774,0.10771492760301052
0.1838793,0.07336392343848039,0.1130065759025588,0.035086159380514036,0.008860841681639408,0.008402188083206478,0.08052931205398886,0.01996154807713182,0.107622791056807
0.1843448,0.07331659208623785,0.1130934710706394,0.03498147999670344,0.008960091230530938,0.00845515059004316,0.08063126810409157,0.019971340603745957,0.10752639971566574
0.1848103,0.07326646513872845,0.11317691742662828,0.0348741808924431,0.009061180508387069,0.008508698139731378,0.08073225464751979,0.019980297910018364,0.1074257821582794
0.1852759,0.07321353235247915,0.1132568979413693,0.034764300697850505,0.009164099320055736,0.008562813104652924,0.08083225828165887,0.019988416557832244,0.10732096791042174
0.1857414,0.07315778363281218,0.11333339559602074,0.03465187887459275,0.009268837029115354,0.008617477771312264,0.08093126574093905,0.01999569344323736,0.10721198743823793
0.1862069,0.07309920904017345,0.11340639338312668,0.034536955702068245,0.009375382556968846,0.008672674345250988,0.08102926389828778,0.02000212579678358,0.10709887214113568
0.1866724,0.07303779879664386,0.11347587430802719,0.03441957226328695,0.00948372438203844,0.008728384955988289,0.08112623976650188,0.020007711183715887,0.10698165434428351
0.1871379,0.07297354329263325,0.11354182139061221,0.034299770430456414,0.009593850539063371,0.008784591661986658,0.08122218049953658,0.02001244750403013,0.10686036729072206
0.1876034,0.07290643309375601,0.1136042176674234,0.034177592850281165,0.009705748618502544,0.008841276455641959,0.08131707339370871,0.02001633299238873,0.1067350451330942
0.188069,0.07283645894788696,0.11366304619410744,0.03405308292898297,0.00981940576604425,0.008898421268297083,0.08141090588881088,0.020019366217895636,0.10660572292499933
0.1885345,0.07276361179239546,0.11371829004822379,0.0339262848170497,0.00993480868222493,0.008956007975278284,0.08150366556913513,0.020021546083729677,0.10647243661197776
0.189,0.0726878827615552,0.11376993233240935,0.03379724339372065,0.010051943622158954,0.00901401840095324,0.08159534016440485,0.02002287182663568,0.106335223022132
0.1894655,0.0726092631941268,0.11381795617790236,0.03366600425121624,0.01017079639538135,0.009072434323809867,0.08168591755061441,0.020023343016272677,0.1061941198563916
0.189931,0.07252774464110978,0.1138623447484274,0.033532613678720236,0.010291352365805265,0.009131237481554836,0.08177538575077684,0.02002295955441859,0.10604916567842963
0.1903966,0.07244331887366025,0.11390308124444347,0.03339711864612253,0.010413596451795903,0.009190409576230659,0.08186373293558018,0.020021721674030848,0.10590039990423802
0.1908621,0.07235597789117076,0.11394014890775603,0.03325956678753079,0.010537513126362613,0.009249932279350174,0.0819509474239534,0.020019629938162243,0.10574786279136891
0.1913276,0.07226571392950834,0.11397353102649381,0.033120006384559364,0.010663086417470664,0.009309787237047258,0.08203701768354339,0.02001668523873163,0.10559159542784848
0.1917931,0.07217251946940674,0.11400321094045045,0.03297848634940374,0.010790299908474216,0.009369956075242492,0.08212193233110555,0.020012888795148873,0.10543163972076909
0.1922586,0.07207638724500852,0.11402917204679017,0.03283505620770912,0.010919136738671866,0.009430420404822568,0.08220568013280988,0.020008242152793468,0.10526803838456558
0.1927241,0.07197731025255225,0.11405139780611606,0.0326897660812416,0.011049579603986101,0.00949116182683222,0.08228825000446476,0.02000274718134629,0.10510083492898108
0.1931897,0.07187528175919938,0.1140698717488982,0.032542666670370694,0.011181610757767881,0.009552161937677396,0.08236963101166037,0.01999640607297388,0.10493007364672803
0.1936552,0.07177029531199511,0.1140845774822583,0.03239380923637179,0.011315212011727483,0.00961340233433848,0.08244981236983323,0.019989221340364845,0.10475579960085059
0.1941207,0.07166234474695675,0.11409549869710689,0.0322432455835574,0.011450364736992675,0.009674864619592374,0.08252878344425367,0.01998119581461806,0.10457805861179435
0.1945862,0.071551424198283,0.114102619175628,0.032091028041246056,0.011587049865295152,0.00973653040724221,0.08260653374993765,0.019972332642982878,0.10439689724418963
0.1950517,0.07143752810767712,0.11410592279910554,0.0319372094455778,0.011725247890286127,0.009798381327353525,0.08268305295148436,0.019962635286451782,0.1042123627933539
0.1955172,0.0713206512337766,0.1141053935560851,0.031781843121185295,0.01186493886898194,0.009860399031495659,0.08275833086284058,0.019952107517206615,0.1040245032715186
0.1959828,0.071200788661682,0.11410101555086372,0.03162498286272971,0.012006102423340425,0.009922565197987194,0.08283235744699256,0.019940753415919873,0.10383336739378528
0.1964483,0.07107793581257714,0.11409277301229949,0.03146668291631036,0.01214871774196879,0.00998486153714415,0.08290512281558568,0.01992857736891323,0.1036390045638165
0.1969138,0.07095208845343287,0.11408065030293202,0.03130699796075728,0.012292763581963727,0.010047269796529644,0.08297661722847242,0.019915584065175695,0.1034414648592674
0.1973793,0.0708232427067859,0.11406463192840391,0.031145983088816033,0.012438218270884394,0.010109771766203693,0.08304683109318906,0.01990177849324421,0.10324079901696472
0.1978448,0.07069139506058408,0.11404470254717321,0.030983693788233724,0.012585059708858908,0.010172349283971757,0.08311575496436112,0.019887165937949515,0.10303705841784157
0.1983103,0.07055654237808887,0.1140208469805058,0.03082018592275554,0.012733265370824864,0.01023498424063056,0.08318337954303838,0.01987175197703032,0.10283029507163631
0.1987759,0.07041868190782538,0.11399305022273731,0.030655515713040767,0.012882812308904444,0.010297658585209713,0.08324969567596009,0.01985554247761906,0.10262056160136397
0.1992414,0.07027781129356957,0.11396129745179404,0.030489739717507437,0.013033677154914585,0.010360354330207593,0.08331469435475176,0.019838543592602634,0.10240791122756916
0.1997069,0.07013392858436181,0.11392557403996295,0.03032291481311444,0.013185836123012735,0.01042305355681987,0.08337836671505548,0.019820761756861857,0.1021923977523689
0.2001724,0.06998703224453558,0.11388586556490163,0.030155098176089818,0.013339265012478618,0.010485738420159136,0.08344070403559635,0.019802203683393433,0.10197407554329395
0.2006379,0.0698371211637491,0.1138421578208786,0.02998634726261385,0.013493939210632496,0.010548391154463942,0.08350169773718828,0.019782876359318455,0.10175299951693723
0.2011034,0.06968419466700766,0.11379443683023525,0.029816719789465287,0.01364983369589043,0.010610994078295558,0.08356133938168317,0.019762787041781554,0.10152922512241709
0.201569,0.06952825252466324,0.11374268885506003,0.029646273714638887,0.01380692304095703,0.010673529599720757,0.08361962067086827,0.019741943253744912,0.10130280832466372
0.2020345,0.06936929496237794,0.11368690040906515,0.02947506721794215,0.013965181416156242,0.010735980221478845,0.08367653344531717,0.01972035277968141,0.10107380558753633
0.2025,0.0692073226710367,0.11362705826965536,0.029303158681579008,0.01412458259290082,0.010798328546131084,0.08373206968320042,0.019698023661171207,0.1008422738567785
0.2029655,0.06904233681659475,0.1135631494901772,0.02913060667072779,0.014285099947301094,0.010860557281190685,0.08378622149906176,0.019674964192405997,0.1006082705428194
0.203431,0.06887433904984393,0.113495161412337,0.028957469914120744,0.01444670646391381,0.010922649244231484,0.08383898114256598,0.019651182915605157,0.10037185350342824
0.2038966,0.0687033315160822,0.11342308167877431,0.02878380728463209,0.014609374739631881,0.010984587367973317,0.08389034099722403,0.019626688616347778,0.1001330810262303
0.2043621,0.06852931686466938,0.11334689824577732,0.028609677779881326,0.014773076987715909,0.011046354705342138,0.08394029357910049,0.019601490318824463,0.09989201181109232
0.2048276,0.06835229825845249,0.11326659939612548,0.028435140502858395,0.014937785041968401,0.011107934434502812,0.08398883153550829,0.019575597281012602,0.09964870495238633
0.2052931,0.0681722793830431,0.11318217375204438,0.028260254642577115,0.015103470361051663,0.011169309863862512,0.0840359476436954,0.019549018989778722,0.09940321992114105
0.2057586,0.0679892644559299,0.11309361028825768,0.028085079454763122,0.015270104032950253,0.011230464437042563,0.08408163480952725,0.019521765155911416,0.09915561654709039
0.2062241,0.06780325823540914,0.11300089834512096,0.027909674242582488,0.015437656779578873,0.011291381737816538,0.08412588606616866,0.01949384570908838,0.09890595500062813
0.2066897,0.06761426602931625,0.11290402764182303,0.02773409833741701,0.01560609896153653,0.011352045495012444,0.08416869457276833,0.01946527079278114,0.09865429577467712
0.2071552,0.06742229370354164,0.11280298828964062,0.027558411079692067,0.015775400583007665,0.011412439587376762,0.0842100536131487,0.019436050759101094,0.09840069966648088
0.2076207,0.06722734769031394,0.11269777080523366,0.02738267179976284,0.01594553129681087,0.011472548048398208,0.08424995659450357,0.019406196163590614,0.09814522775932448
0.2080862,0.0670294349962337,0.11258836612396883,0.027206939798864578,0.016116460409595725,0.011532355071089058,0.0842883970461051,0.019375717759962854,0.0978879414041912
0.2085517,0.06682856321003999,0.11247476561325913,0.027031274330132585,0.01628815688718812,0.011591845012721832,0.08432536861802169,0.019344626494793987,0.09762890220136171
0.2090172,0.06662474051009248,0.11235696108590822,0.026855734579697414,0.016460589360084314,0.011651002399519087,0.08436086507984705,0.01931293350217136,0.09736817198196178
0.2094828,0.06641797567155155,0.11223494481344784,0.0266803796478609,0.01663372612909388,0.011709811931294004,0.08439488031944066,0.01928065009830107,0.0971058127894647
0.2099483,0.06620827807323854,0.11210870953945723,0.02650526853035855,0.01680753517113157,0.01176825848603938,0.08442740834167871,0.01924778777607833,0.09684188686115486
0.2104138,0.06599565770415883,0.11197824849285273,0.02633046009971383,0.016981984145158002,0.011826327124462539,0.0844584432672143,0.019214358199624047,0.09657645660955885
0.2108793,0.06578012516967105,0.11184355540113602,0.026156013086690005,0.017157040398268934,0.011884003094463625,0.08448797933124519,0.019180373198790908,0.09630958460385078
0.2113448,0.06556169169728668,0.11170462450358855,0.025981986061845146,0.017332670971932737,0.011941271835554592,0.08451601088228765,0.019145844763642395,0.09604133355123876
0.2118103,0.06534036914208595,0.1115614505643994,0.025808437417195882,0.017508842608375607,0.011998118983216153,0.08454253238095467,0.01911078503890827,0.09577176627833953
0.2122759,0.06511616999173776,0.11141402888571318,0.02563542534799569,0.01768552175711394,0.012054530373189837,0.08456753839873687,0.019075206318419944,0.09550094571254891
0.2127414,0.06488910737111317,0.11126235532058379,0.02546300783463338,0.017862674581633264,0.01211049204570224,0.08459102361678439,0.01903912103952912,0.09522893486341488
0.2132069,0.0646591950464841,0.11110642628581982,0.02529124262465754,0.018040266966212984,0.012165990249618433,0.0846129828246878,0.01900254177751301,0.09495579680402068
0.2136724,0.06442644742930069,0.1109462387747067,0.025120187214932723,0.01821826452289627,0.012221011446521563,0.08463341091925544,0.018965481239969256,0.09468159465238547
0.2141379,0.06419087957954243,0.11078179036958995,0.024949898833933146,0.018396632598604242,0.012275542314715532,0.08465230290328443,0.018927952261203532,0.09440639155288953
0.2146034,0.06395250720863936,0.11061307925430457,0.024780434424179706,0.0185753362823936,0.012329569753147756,0.08466965388432236,0.0188899677966128,0.09413025065773131
0.215069,0.06371134668196018,0.1104401042264362,0.024611850624826223,0.01875434041285672,0.012383080885248926,0.08468545907341704,0.018851540917066936,0.09385323510842286
0.2155345,0.06346741502086452,0.11026286470939985,0.024444203754400776,0.018933609585663237,0.012436063062686764,0.08469971378385183,0.018812684803291405,0.09357540801732975
0.216,0.06322072990431651,0.11008136076432419,0.024277549793708053,0.019113108161242072,0.012488503869030727,0.08471241342986474,0.018773412740253487,0.09329683244926135
0.2164655,0.06297130967005789,0.1098955931017308,0.02411194436889873,0.019292800272602686,0.012540391123324581,0.08472355352534935,0.018733738111554515,0.09301757140311653
0.216931,0.06271917331533833,0.10970556309299767,0.02394744273471183,0.01947264983329445,0.012591712883563772,0.08473312968253552,0.018693674393830486,0.09273768779358961
0.2173966,0.06246434049720173,0.10951127278159745,0.023784099757895923,0.019652620545502823,0.01264245745007455,0.08474113761064778,0.018653235151163242,0.09245724443294051
0.2178621,0.062206831532327506,0.10931272489410036,0.023621969900815137,0.01983267590828106,0.012692613368791909,0.08474757311453918,0.01861243402950447,0.09217630401283236
0.2183276,0.0619466673964262,0.1091099228509311,0.023461107205245555,0.020012779225916145,0.012742169434433594,0.08475243209329804,0.01857128475111471,0.09189492908623954
0.2187931,0.06168386972318922,0.10890287077686878,0.023301565276367654,0.020192893616427666,0.01279111469356774,0.08475571053882602,0.018529801109019417,0.09161318204942849
0.2192586,0.06141846080279282,0.10869157351127912,0.023143397266960037,0.020372982020198244,0.012839438447571953,0.08475740453438634,0.018487996961484073,0.09133112512401367
0.2197241,0.06115046357995691,0.10847603661806711,0.02298665586179974,0.020553007208734188,0.012887130255482122,0.0847575102531213,0.018445886226510253,0.09104882033909094
0.2201897,0.06087990165155945,0.10825626639533946,0.022831393262274135,0.02073293179355499,0.01293417993672956,0.08475602395653886,0.018403482876354463,0.09076632951345046
0.2206552,0.06060679926380778,0.1080322698847658,0.022677661171209212,0.020912718235210164,0.012980577573765433,0.08475294199296782,0.018360800932071413,0.09048371423787142
0.2211207,0.060331181308968536,0.10780405488062833,0.02252551077791903,0.021092328852421835,0.01302631351457169,0.08474826079598208,0.018317854458083285,0.0902010358575008
0.2215862,0.060053073321658795,0.10757162993854942,0.022374992743480822,0.02127172583135133,0.013071378375057941,0.0847419768827945,0.018274657556776527,0.08991835545431874
0.2220517,0.05977250147470186,0.10733500438388677,0.02222615718624002,0.021450871234988015,0.013115763041343787,0.08473408685262124,0.01823122436312763,0.08963573382969264
0.2225172,0.05948949257455267,0.10709418831978533,0.022079053667549493,0.021629727012658365,0.013159458671926349,0.08472458738501731,0.018187569039359322,0.08935323148702286
0.2229828,0.059204074056299336,0.10684919263487529,0.021933731177746867,0.02180825500965317,0.013202456699733009,0.0847134752381846,0.018143705769628645,0.08907090861448348
0.2234483,0.05891627397824908,0.10660002901060547,0.02179023812237376,0.02198641697697065,0.013244748834059754,0.08470074724725314,0.018099648754748326,0.0887888250678623
0.2239138,0.05862612101610734,0.10634670992820217,0.021648622308640474,0.022164174581173056,0.013286327062396013,0.08468640032253678,0.01805541220694284,0.08850704035350465
0.2243793,0.05833364445675987,0.10608924867524488,0.021508930932139663,0.022341489414354192,0.013327183652137182,0.0846704314477636,0.018011010344640463,0.08822561361136624
0.2248448,0.05803887419166772,0.10582765935185215,0.021371210563812137,0.02251832300421504,0.013367311152186326,0.08465283767828159,0.017966457387302553,0.08794460359817975
0.2253103,0.05774184070988538,0.10556195687647116,0.021235507137167875,0.0226946368242448,0.013406702394446574,0.0846336161392396,0.017921767550291273,0.08766406867074025
0.2257759,0.05744257509071235,0.10529215699126696,0.021101865935765247,0.022870392304004197,0.013445350495205746,0.08461276402374349,0.017876955039776803,0.08738406676931476
0.2262414,0.05714110899598865,0.10501827626710719,0.020970331580951202,0.023045550839507933,0.013483248856414729,0.0845902785909876,0.017832034047685068,0.08710465540118156
0.2267069,0.05683747466204483,0.1047403321081392,0.020840948019865097,0.023220073803703053,0.01352039116686104,0.08456615716436151,0.017787018746686926,0.08682589162430585
0.2271724,0.056531704891316974,0.10445834275595589,0.020713758513708807,0.023393922557039922,0.013556771403239017,0.08454039712953244,0.017741923285229864,0.08654783203115858
0.2276379,0.056223833043637164,0.10417232729334742,0.020588805626285595,0.023567058458132464,0.013592383831117947,0.0845129959325037,0.01769676178261337,0.08627053273268624
0.2281034,0.055913893027210074,0.10388230564763462,0.020466131212810226,0.023739442874504402,0.013627223005809451,0.0844839510776503,0.017651548324109295,0.08599404934243947
0.228569,0.05560191928928627,0.10358829859358018,0.020345776408992683,0.02391103719341824,0.01366128377313536,0.0844532601257331,0.01760629695612876,0.08571843696086931
0.2290345,0.05528794680654307,0.10329032775587317,0.020227781620397806,0.024081802832783522,0.013694561270097216,0.08442092069189407,0.017561021681437188,0.08544375015979958
0.2295,0.05497201107518406,0.10298841561118248,0.020112186512083293,0.024251701252140993,0.013727050925448547,0.08438693044363561,0.017515736454419242,0.08517004296708434
0.2299655,0.05465414810076833,0.1026825854897744,0.01999902999851826,0.024420693963718872,0.013758748460170967,0.08435128709878757,0.01747045517639528,0.08489736885145986
0.230431,0.0543343943877807,0.10237286157669084,0.019888350233784765,0.024588742543557533,0.01378964988785519,0.08431398842346476,0.01742519169099095,0.0846257807076009
0.2308966,0.05401278692895388,0.10205926891248455,0.019780184602064512,0.02475580864269852,0.013819751514987998,0.08427503223001803,0.017379959779561506,0.08435533084139098
0.2313621,0.05368936319435329,0.10174183339350855,0.019674569708412866,0.024921853998433833,0.013849049941146174,0.08423441637498136,0.01733477315667223,0.08408607095541588
0.2318276,0.05336416112023504,0.10142058177175726,0.01957154136982227,0.025086840445611085,0.013877542059098393,0.08419213875701677,0.017289645465636445,0.08381805213468946
0.2322931,0.05303721909768753,0.10109554165425665,0.01947113460657699,0.025250729927990212,0.01390522505481597,0.0841481973148592,0.01724459027411249,0.08355132483261982
0.2327586,0.05270857596106676,0.10076674150200034,0.019373383633900974,0.02541348450964718,0.013932096407393308,0.08410259002526285,0.01719962106976108,0.08328593885722418
0.2332241,0.05237827097623553,0.10043421062842846,0.019278321853900524,0.02557506638641993,0.013958153888878815,0.08405531490095004,0.017154751255964423,0.08302194335759965
0.2336897,0.05204634382861632,0.10009797919744462,0.01918598184780338,0.02573543789739169,0.01398339556401694,0.08400636998856358,0.017109994147608384,0.08275938681065673
0.2341552,0.051712834611067515,0.09975807822096638,0.019096395368495677,0.0258945615364066,0.014007819789901984,0.08395575336662336,0.017065362966928947,0.08249831700812232
0.2346207,0.051377783811592095,0.09941453955600367,0.019009593333358134,0.026052399963612576,0.014031425215544287,0.08390346314348794,0.017020870839424083,0.08223878104381786
0.2350862,0.05104123230088813,0.09906739590125943,0.018925605817402807,0.02620891601702605,0.014054210781349436,0.08384949745532184,0.01697653078983203,0.0819808253012181
0.2355517,0.05070322131974983,0.09871668079324601,0.01884446204671156,0.026364072724113542,0.014076175718511162,0.08379385446407056,0.01693235573817691,0.08172449544129604
0.2360172,0.050363792466328085,0.09836242860191083,0.018766190392177366,0.026517833313385027,0.014097319548318731,0.08373653235544544,0.016888358495882525,0.08146983639065937
0.2364828,0.05002298768325939,0.09800467452576554,0.018690818363549428,0.026670161225994252,0.014117642081379554,0.08367752933692162,0.016844551761954974,0.08121689232998416
0.2369483,0.04968084924467155,0.09764345458651316,0.018618372603783104,0.02682102012734117,0.014137143416757727,0.08361684363575249,0.01680094811923489,0.08096570668275155
0.2374138,0.049337419743074526,0.09727880562316861,0.018548878883695333,0.026970373918671797,0.0141558239410292,0.08355447349700384,0.016757560030719827,0.0807163221042933
0.2378793,0.04899274207614448,0.09691076528566903,0.018482362096926278,0.027118186748670673,0.014173684327254148,0.08349041718161096,0.016714399835957554,0.08046878047115191
0.2383448,0.048646859433408934,0.0965393720279711,0.01841884625520774,0.027264423025041125,0.01419072553386708,0.08342467296446124,0.016671479747510792,0.08022312287076033
0.2388103,0.048299815282840844,0.09616466510063378,0.018358354483938695,0.027409047426068506,0.01420694880348518,0.0833572391325047,0.01662881184749408,0.07997938959144643
0.2392759,0.04795165335736953,0.0957866845428856,0.018300909018068225,0.027552024912161553,0.014222355661635287,0.08328811398289454,0.016586408084183452,0.07973762011276604
0.2397414,0.047602417641316334,0.09540547117417666,0.01824653119828592,0.027693320737367008,0.014236947915399907,0.08321729582116025,0.016544280268699738,0.07949785309616848
0.2402069,0.04725215235676298,0.09502106658521699,0.018195241467519756,0.027832900460852582,0.014250727651982606,0.08314478295941617,0.016502440071766388,0.07926012637599707
0.2406724,0.04690090194986042,0.0946335131285038,0.01814705936774126,0.027970729958353285,0.014263697237193148,0.08307057371460842,0.01646089902054284,0.07902447695082711
0.2411379,0.04654871107708614,0.09424285390834172,0.018102003537077697,0.028106775433576262,0.014275859313852729,0.08299466640680328,0.016419668495534386,0.07879094097514312
0.2416034,0.04619562459145733,0.09384913277036039,0.01806009170723094,0.028241003429559156,0.014287216800119771,0.08291705935752047,0.016378759727579607,0.07855955375135659
0.242069,0.045841687528707466,0.09345239429053372,0.018021340701202513,0.028373380839977046,0.01429777288773679,0.08283775088811408,0.016338183794916212,0.07833034972216522
0.2425345,0.04548694509343375,0.09305268376370547,0.017985766431324185,0.028503874920392885,0.014307531040198974,0.0827567393182038,0.01629795162032619,0.07810336246325524
0.243,0.04513144264522304,0.09265004719162566,0.01795338389759343,0.028632453299446352,0.014316494990845271,0.08267402296415914,0.016258073968361052,0.07787862467634786
0.2434655,0.044775225684764046,0.09224453127050258,0.017924207186312942,0.02875908398997592,0.014324668740872753,0.08258960013763875,0.01621856144264788,0.07765616818259174
0.243931,0.04441833983995335,0.09183618337807657,0.017898249469033286,0.02888373540006882,0.014332056557275078,0.08250346914418721,0.016179424483276878,0.0774360239163029
0.2443966,0.04406083085200361,0.09142505156022225,0.01787552300179759,0.02900637634403344,0.014338662970705896,0.0824156282818915,0.01614067336427107,0.0772182219190542
0.2448621,0.04370274456156171,0.09101118451708756,0.017856039124687098,0.02912697605328852,0.014344492773268058,0.0823260758400996,0.016102318191138724,0.07700279133411614
0.2453276,0.043344126894844626,0.0905946315887789,0.017839808261666246,0.029245504187163308,0.014349551016229523,0.08223481009820442,0.016064368898509002,0.07678976040125093
0.2457931,0.042985023849800706,0.09017544274060373,0.01782683992072582,0.029361930843602807,0.014353843007667011,0.08214182932449547,0.016026835247851288,0.07657915645186192
0.2462586,0.04262548148230359,0.08975366854788362,0.017817142694322552,0.02947622656977184,0.014357374310038465,0.0820471317750819,0.015989726825278525,0.07637100590450048
0.2467241,0.04226554589238573,0.08932936018035195,0.017810724260113382,0.029588362372551615,0.01436015073768564,0.08195071569288932,0.015953053039434843,0.0761653342607327
0.2471897,0.04190526321051803,0.08890256938615222,0.017807591381982537,0.029698309728922335,0.014362178354268274,0.08185257930673347,0.015916823119467603,0.07596216610136718
0.2476552,0.041544679583942146,0.0884733484754543,0.017807749911359385,0.02980604059622505,0.0143634634701313,0.08175272083047345,0.015881046113084052,0.07576152508304575
0.2481207,0.04118384116306131,0.08804175030370653,0.017811204788824978,0.02991152742229613,0.014364012639606764,0.08165113846224771,0.015845730884692617,0.07556343393519836
0.2485862,0.04082279408789569,0.08760782825454246,0.017817960046005055,0.030014743155467653,0.01436383265825206,0.0815478303837954,0.015810886113628946,0.07536791445736335
0.2490517,0.04046158447460774,0.08717163622236063,0.017828018807747145,0.030115661254426905,0.014362930560026185,0.0814427947598662,0.015776520292466643,0.07517498751687444
0.2495172,0.04010025840210299,0.08673322859459671,0.01784138329457941,0.030214255697928134,0.01436131361440569,0.08133602973772086,0.01574264172541264,0.07498467304691656
0.2499828,0.03973886189871161,0.08629266023370644,0.017858054825448583,0.030310500994349485,0.014358989323442102,0.08122753344672472,0.01570925852678701,0.0747969900449522
0.2504483,0.03937744092895568,0.08584998645887797,0.01787803382073449,0.030404372191088054,0.014355965418762424,0.08111730399803581,0.01567637861958694,0.07461195657152035
0.2509138,0.03901604138040739,0.08540526302749203,0.01790131980553838,0.030495844883785858,0.0143522498585144,0.08100533948438968,0.015644009734134573,0.0744295897494093
0.2513793,0.03865470905064325,0.08495854611634726,0.017927911413242403,0.030584895225379743,0.01434785082425802,0.08089163797998247,0.01561215940680831,0.0742499057632045
0.2518448,0.038293489634299384,0.08450989230266749,0.017957806389337395,0.030671499934968476,0.014342776717804788,0.08077619754045431,0.015580834978857172,0.07407291985921166
0.2523103,0.03793242871023291,0.08405935854490722,0.017991001595516223,0.030755636306490548,0.014337036158006135,0.08065901620297464,0.01555004359529775,0.07389864634575538
0.2527759,0.03757157172879454,0.08360700216337065,0.01802749301402972,0.0308372822172066,0.014330637977492365,0.08054009198643111,0.015519792203893224,0.0737270985938524
0.2532414,0.03721096399921741,0.08315288082065932,0.018067275752302273,0.03091641613598049,0.014323591219363614,0.08041942289172338,0.015490087554213825,0.07355828903825871
0.2537069,0.03685065067712737,0.08269705250196269,0.018110344047803813,0.030993017131353183,0.014315905133834272,0.08029700690216303,0.015460936196778028,0.07339222917888924
0.2541724,0.03649067675217966,0.082239575495206,0.018156691273174954,0.031067064879403732,0.014307589174832377,0.08017284198398143,0.015432344482273758,0.07322892958260872
0.2546379,0.03613108703582723,0.08178050837106975,0.018206309941601835,0.031138539671391494,0.014298652996555592,0.08004692608694684,0.01540431856085877,0.07306839988539249
0.2551034,0.03577192614922591,0.081319909962895,0.018259191712437062,0.031207422421174018,0.014289106449985408,0.07991925714509208,0.015376864381539287,0.07291064879485494
0.255569,0.03541323851128164,0.08085783934648884,0.018315327397063087,0.031273694672394915,0.014278959579361164,0.07978983307755395,0.01534998769162595,0.07275568409314379
0.2560345,0.0350550683268449,0.08039435581984414,0.018374706964994318,0.031337338605436416,0.014268222618615515,0.0796586517895248,0.015323694036266032,0.07260351264019704
0.2565,0.03469745957505743,0.07992951888278745,0.018437319550214198,0.03139833704413174,0.01425690598777292,0.07952571117331665,0.015297988758050813,0.07245414037735973
0.2569655,0.03434045599785594,0.07946338821656858,0.018503153457743525,0.03145667346223314,0.014245020289312856,0.07939100910953777,0.015272876996696941,0.07230757233135612
0.257431,0.033984101088637544,0.07899602366340483,0.01857219617043619,0.031512331989632214,0.01423257630449947,0.07925454346838146,0.015248363688800682,0.07216381261861375
0.2578966,0.03362843808109135,0.07852748520599252,0.018644434355998486,0.0315652974183296,0.014219584989679398,0.07911631211102671,0.015224453567663835,0.07202286444993415
0.2583621,0.03327350993820068,0.078057832946998,0.018719853874228035,0.03161555520815158,0.014206057472549586,0.0789763128911503,0.015201151163190067,0.07188473013550543
0.2588276,0.03291935934142024,0.0775871270885398,0.018798439784468185,0.031663091492211366,0.014192005048396817,0.07883454365654967,0.015178460801850419,0.07174941109025137
0.2592931,0.03256602868003257,0.07711542791167288,0.01888017635327367,0.03170789308211256,0.014177439176310725,0.07869100225087594,0.015156386606716593,0.07161690783951088
0.2597586,0.032213560040687664,0.0766427957558854,0.01896504706228317,0.031749947472892455,0.014162371475372052,0.07854568651547626,0.015134932497560651,0.07148722002504142
0.2602241,0.03186199519712988,0.07616929099861865,0.019053034616294356,0.03178924284770242,0.014146813720818018,0.07839859429134441,0.01511410219101969,0.07136034641133941
0.2606897,0.03151137560011564,0.07569497403481952,0.019144120951536853,0.0318257680822227,0.014130777840186648,0.07824972342117861,0.015093899200824044,0.0712362848922702
0.2611552,0.031161742367525405,0.07521990525653532,0.019238287244138737,0.031859512748808834,0.014114275909442102,0.07809907175154578,0.015074326838087517,0.07111503249799954
0.2616207,0.030813136274673168,0.07474414503256023,0.01933551391878196,0.031890467120366806,0.014097320149083025,0.07794663713515121,0.015055388211658157,0.07099658540221873
0.2620862,0.03046559774481633,0.07426775368814266,0.019435780657542128,0.031918622173954324,0.014079922920236037,0.0777924174332127,0.015037086228528026,0.07088093892965448
0.2625517,0.03011916683986907,0.07379079148476322,0.019539066408908002,0.031943969594105726,0.01406209672073646,0.07763641051793821,0.015019423594300443,0.07076808756385489
0.2630172,0.02977388325132186,0.07331331859999295,0.019645349396975986,0.03196650177587823,0.014043854181198362,0.07747861427510638,0.01500240281371317,0.07065802495524258
0.2634828,0.02942978629136997,0.07283539510744194,0.019754607130814953,0.031986211827617156,0.014025208061075975,0.07731902660675004,0.014986026191216006,0.07055074392942574
0.2639483,0.029086914884253676,0.0723570809568093,0.019866816413996673,0.032003093573437835,0.014006171244718472,0.0771576454339424,0.014970295831601243,0.07044623649575707
0.2644138,0.02874530755781274,0.0718784359540451,0.01998195335428714,0.03201714155542184,0.013986756737420116,0.0769944686996873,0.014955213640685437,0.07034449385613084
0.2648793,0.02840500243525762,0.071399519741636,0.020099993373494045,0.032028351035525,0.0139669776614676,0.07682949437191416,0.01494078132604086,0.07024550641400752
0.2653448,0.028066037227159692,0.07092039177902622,0.020220911217465443,0.03203671799719479,0.01394684725218638,0.07666272044657939,0.014927000397774974,0.07014926378365513
0.2658103,0.027728449223662643,0.07044111132318563,0.02034468096623474,0.03204223914669433,0.013926378853987646,0.07649414495087535,0.014913872169356216,0.07005575479959625
0.2662759,0.02739227528691706,0.06996173740933721,0.020471276044306902,0.03204491191413107,0.013905585916417485,0.07632376594654834,0.014901397758484298,0.0699649675262493
0.2667414,0.027057551843740122,0.06948232883185548,0.020600669231080813,0.03204473445418844,0.013884481990209668,0.0761515815333265,0.014889578088003197,0.06987688926775215
0.2672069,0.026724314878502096,0.06900294412534784,0.020732832671402687,0.03204170564655971,0.013863080723343408,0.07597758985245898,0.014878413886855079,0.06979150657795617
0.2676724,0.026392599926241326,0.06852364154593017,0.020867737886245533,0.032035825096084006,0.013841395857107293,0.07580178909036676,0.01486790569107338,0.06970880527057831
0.2681379,0.026062442066009103,0.06804447905270801,0.021005355783509615,0.03202709313258479,0.013819441222170478,0.07562417748240621,0.014858053844813418,0.06962877042949872
0.2686034,0.025733875914445786,0.06756551428947406,0.021145656668938966,0.03201551081041147,0.013797230734662165,0.07544475331674527,0.014848858501418958,0.06955138641919088
0.269069,0.025406935619589312,0.06708680456663292,0.02128861025714904,0.03200107990768475,0.013774778392260255,0.075263514938353,0.014840319624523219,0.06947663689527091
0.2695345,0.025081654854917174,0.0666084068433634,0.021434185682760606,0.0319838029252465,0.01375209827028993,0.0750804607531018,0.014832436989183002,0.06940450481515284
0.27,0.02475806681362272,0.06613037771002936,0.021582351511634915,0.031963683085315164,0.013729204517832829,0.07489558923198238,0.014825210183044661,0.06933497244879631
0.2704655,0.02443620420312647,0.06565277337084978,0.021733075752205316,0.03194072432984788,0.013706111353847413,0.07470889891543081,0.014818638607540678,0.06926802138953284
0.270931,0.024116099239822896,0.06517564962683868,0.02188632586690046,0.031914931318611096,0.013682833063300946,0.07452038841776751,0.01481272147911559,0.06920363256495694
0.2713966,0.023797783644062948,0.06469906185902562,0.02204206878365428,0.03188630942696161,0.013659383993313491,0.07433005643174743,0.01480745783047996,0.06914178624786822
0.2718621,0.023481288635372403,0.06422306501196712,0.022200270907498022,0.03185486474334058,0.013635778549314179,0.07413790173322118,0.014802846511890991,0.06908246206725023
0.2723276,0.023166644927905936,0.0637477135775591,0.022360898132229686,0.03182060406648308,0.013612031191209989,0.07394392318590631,0.014798886192458487,0.06902563901927297
0.2727931,0.022853882726136615,0.06327306157915986,0.022523915852156254,0.03178353490234616,0.01358815642956717,0.0737481197462681,0.014795575361474788,0.06897129547830645
0.2732586,0.02254303172078025,0.06279916255603286,0.022689288973904327,0.03174366546075832,0.0135641688218055,0.07355049046850935,0.014792912329767366,0.0689194092079349
0.2737241,0.022234121084954022,0.062326069548117494,0.022856981928295002,0.031701004651793596,0.013540082968405495,0.07335103450966915,0.01479089523107273,0.06886995737196328
0.2741897,0.021927179470568568,0.06185383508113612,0.023026958682278966,0.031655562081873714,0.013515913509128756,0.07314975113483166,0.014789522023430292,0.06882291654540966
0.2746552,0.021622235004952545,0.06138251115204466,0.023199182750928082,0.031607348049601754,0.013491675119251548,0.0729466397224468,0.01478879049059493,0.06877826272547885
0.2751207,0.021319315287708515,0.06091214921483369,0.02337361720947974,0.03155637354133116,0.013467382505811854,0.07274169976976526,0.014788698243467065,0.06873597134251269
0.2755862,0.021018447387798872,0.06044280016668638,0.023550224705430493,0.031502650226473645,0.013443050403870076,0.07253493089839068,0.014789242721539328,0.0686960172709132
0.2760517,0.02071965784086045,0.05997451433449933,0.02372896747067552,0.03144619045254978,0.013418693572783658,0.07232633285995195,0.014790421194359136,0.06865837484003474
0.2765172,0.02042297264674614,0.059507341461771744,0.023909807333690438,0.031387007239985956,0.01339432679249589,0.07211590554189795,0.014792230763006798,0.06862301784504114
0.2769828,0.02012841726729176,0.05904133069586785,0.02409270573175203,0.031325114276661445,0.013369964859839236,0.07190364897341726,0.014794668361589,0.06858991955772373
0.2774483,0.01983601662430623,0.05857653057565732,0.02427762372319439,0.03126052591220917,0.013345622584853528,0.07168956333148509,0.014797730758747721,0.06855905273727593
0.2779138,0.019545795097783,0.058112989019537604,0.024464521999697064,0.031193257152073814,0.013321314787119341,0.07147364894703963,0.014801414559184729,0.06853038964102051
0.2783793,0.019257776524330618,0.05765075331384198,0.024653360898601574,0.031123323651330706,0.01329705629210689,0.07125590631129025,0.014805716205202027,0.06850390203508604
0.2788448,0.018971984195820028,0.05718987010163674,0.024844100415253034,0.031050741708268517,0.013272861927540727,0.07103633608215996,0.01481063197825872,0.06847956120503056
0.2793103,0.018688440858246284,0.05673038537191053,0.025036700215363316,0.030975528257738957,0.013248746519780424,0.07081493909086434,0.014816158000544819,0.0684573379664118
0.2797759,0.018407168710802228,0.056272344449158636,0.02523111964739232,0.030897700864276074,0.013224724890217357,0.07059171634862893,0.014822290236572421,0.06843720267530481
0.2802414,0.018128189405161574,0.055815791983364754,0.025427317754943675,0.030817277714987774,0.013200811851687635,0.07036666905354673,0.014829024494784725,0.06841912523876892
0.2807069,0.01785152404496884,0.05536077194038264,0.025625253289171382,0.030734277612222114,0.013177022204901256,0.07013979859757659,0.014836356429183198,0.06840307512526689
0.2811724,0.017577193185533486,0.05490732759271941,0.025824884721193826,0.03064871996601099,0.013153370734887492,0.06991110657368317,0.014844281540973201,0.06838902137503966
0.2816379,0.017305216833725597,0.054455501510722225,0.026026170254511694,0.03056062478629394,0.013129872207456619,0.06968059478311853,0.014852795180228306,0.06837693261044074
0.2821034,0.017035614448070478,0.05400533555416977,0.026229067837426515,0.030470012674925325,0.013106541365678154,0.06944826524284496,0.014861892547573424,0.06836677704623496
0.282569,0.01676840493903937,0.053556870864269406,0.026433535175456525,0.030376904817468346,0.013083392926375843,0.069214120193098,0.014871568695886924,0.06835852249986708
0.2830345,0.016503606669533585,0.05311014785606047,0.0266395297437468,0.030281322974779885,0.013060441576639725,0.06897816210508811,0.01488181853202183,0.06835213640170631
0.2835,0.016241237455559145,0.052665206211223725,0.02684700879947073,0.030183289474390435,0.013037701970355675,0.06874039368883934,0.01489263681854618,0.06834758580527336
0.2839655,0.015981314567089157,0.05222208487129679,0.027055929394220194,0.03008282720168367,0.01301518872475303,0.0685008179011623,0.01490401817550281,0.06834483739745689
0.284431,0.015723854729111007,0.05178082203129457,0.027266248386381753,0.029979959590880297,0.012992916416970852,0.06825943795375894,0.014915957082188716,0.0683438575087261
0.2848966,0.015468874122855513,0.05134145513373375,0.027477922453496683,0.029874710615830954,0.012970899580643578,0.06801625732145544,0.014928447878954226,0.06834461212334551
0.2853621,0.015216388387205295,0.05090402086305958,0.027690908104602594,0.02976710478062299,0.012949152702506806,0.06777127975055987,0.014941484769022226,0.06834706688959842
0.2858276,0.014966412620279588,0.050468555140473194,0.02790516169255458,0.02965716711000642,0.012927690219023966,0.06752450926733994,0.014955061820327728,0.06835118713002436
0.2862931,0.014718961381192837,0.05003509311915701,0.028120639426323913,0.029544923139644803,0.012906526513034648,0.06727595018661618,0.014969172967378125,0.06835693785167604
0.2867586,0.014474048691984336,0.04960366917989585,0.02833729738327241,0.029430398906197402,0.012885675910425522,0.06702560712046499,0.014983812013134477,0.06836428375640047
0.2872241,0.014231688039716221,0.049174316927090504,0.028555091521400656,0.02931362093723942,0.012865152676824856,0.0667734849870257,0.014998972630914178,0.06837318925114852
0.2876897,0.013991892378737051,0.0487470691851607,0.028773977691568316,0.02919461624102741,0.01284497101432169,0.06651958901940523,0.015014648366315273,0.06838361845831666
0.2881552,0.013754674133108151,0.048321957995333654,0.028993911649684796,0.02907341229611698,0.012825145058210884,0.06626392477467312,0.015030832639162724,0.06839553522612411
0.2886207,0.013520045199189762,0.04789901461281442,0.029214849068868388,0.028950037040839777,0.012805688873765127,0.06600649814293984,0.015047518745476864,0.06840890313902813
0.2890862,0.013288016948384041,0.047478269504333745,0.029436745551571972,0.028824518862646725,0.012786616453035067,0.0657473153565101,0.015064699859464308,0.06842368552817946
0.2895517,0.013058600230031771,0.04705975234606862,0.029659556641673298,0.028696886587324485,0.012767941711678622,0.06548638299910256,0.015082369035531592,0.06843984548191992
0.2900172,0.012831805374459585,0.04664349202193076,0.029883237836527413,0.028567169468092055,0.012749678485820549,0.06522370801512668,0.01510051921032188,0.06845734585632335
0.2904828,0.012607642196174416,0.046229516622217554,0.03010774459897895,0.02843539717458468,0.012731840528943236,0.06495929771900684,0.01511914320477515,0.06847614928578072
0.2909483,0.012386119997201916,0.04581785344262002,0.030333032369331648,0.02830159978173247,0.012714441508809723,0.06469315980454352,0.015138233726212267,0.06849621819363028
0.2914138,0.01216724757056544,0.04540852898358165,0.030559056577272422,0.028165807758541404,0.01269749500441984,0.06442530235430059,0.015157783370443418,0.06851751480283284
0.2918793,0.011951033203902277,0.045001568950001736,0.03078577265374724,0.028028051956784743,0.012681014503000318,0.06415573384900716,0.015177784623901439,0.06854000114669224
0.2923448,0.011737484683213794,0.04459699825127669,0.03101313604278614,0.02788836359961279,0.012665013397029553,0.06388446317696182,0.015198229865800614,0.06856363907962068
0.2928103,0.01152660929674621,0.04419484100167248,0.03124110221327469,0.027746774270089057,0.012649504981297726,0.06361149964342698,0.015219111370321592,0.0685883902879485
0.2932759,0.011318413838998778,0.04379512052102115,0.03146962667066937,0.02760331589966075,0.012634502450002787,0.06333685297999983,0.01524042130882306,0.0686142163007771
0.2937414,0.011112904614856275,0.043397859335734534,0.03169866496865444,0.027458020756571232,0.012620018893882822,0.06306053335394662,0.015262151752080745,0.06864107850087398
0.2942069,0.010910087443842724,0.043003079180128335,0.03192817272073797,0.027310921434222073,0.012606067297385197,0.06278255137748621,0.015284294672554275,0.06866893813560787
0.2946724,0.010709967664493465,0.04261080099804997,0.03215810561178461,0.02716205083949197,0.012592660535872885,0.06250291811700832,0.015306841946682366,0.06869775632792208
0.2951379,0.010512550138842764,0.04222104494480366,0.032388419409483345,0.02701144218101972,0.01257981137286833,0.06222164510221144,0.01532978535720669,0.06872749408734279
0.2956034,0.010317839257024211,0.04183383038936613,0.03261906997574805,0.026859128957458303,0.012567532457335107,0.06193874433514499,0.015353116595524676,0.06875811232101957
0.296069,0.010125838941981265,0.04144917591688658,0.03285001327804931,0.026705144945706763,0.012555836320997663,0.06165422829913988,0.015376827264071425,0.06878957184479417
0.2965345,0.009936552654285492,0.04106709933146428,0.033081205400675794,0.02654952418912658,0.012544735375699374,0.061368109967611065,0.015400908878730784,0.06882183339429307
0.297,0.009749983397060014,0.04068761765919751,0.033312602555923575,0.026392300985748948,0.012534241910799045,0.06108040281271586,0.015425352871275541,0.06885485763603912
0.2974655,0.009566133721005867,0.04031074715149698,0.03354416109521161,0.026233509876479235,0.012524368090606018,0.06079112081385183,0.015450150591836576,0.0688886051785768
0.297931,0.009385005729528991,0.03993650328865719,0.03377583752012144,0.026073185633304713,0.012515125951853943,0.06050027846597891,0.015475293311400698,0.06892303658360525
0.2983966,0.00920660108396563,0.039564900783678615,0.03400758849335907,0.025911363247511456,0.012506527401213274,0.06020789078775135,0.015500772224336809,0.06895811237711266
0.2988621,0.009030921008903974,0.039195953586333945,0.03423937084963688,0.025748077917916147,0.01249858421284243,0.05991397332944598,0.015526578450949843,0.06899379306050527
0.2993276,0.008857966297599891,0.038829674887471285,0.034471141606473354,0.02558336503911838,0.012491308025977487,0.05961854218067431,0.01555270304006195,0.06903003912172355
0.2997931,0.008687737317484614,0.038466077123547715,0.034702857974907894,0.025417260189778797,0.012484710342560244,0.05932161397786632,0.01557913697162025,0.06906681104633795
0.3002586,0.00852023401576221,0.03810517198138688,0.03493447737012815,0.02524979912092842,0.012478802524904412,0.05902320591151431,0.015605871159330447,0.06910406932861567
0.3007241,0.008355455925094695,0.03774697040315477,0.035165957422006885,0.02508101774431408,0.012473595793399801,0.0587233357331663,0.015632896453315597,0.06914177448254984
0.3011897,0.00819340216937255,0.03739148259154818,0.03539725598554541,0.02491095212078499,0.012469101224254276,0.05842202176215896,0.015660203642799332,0.0691798870528423
0.3016552,0.008034071469568364,0.037038718015190986,0.03562833115122031,0.024739638448725097,0.012465329747273572,0.05811928289208132,0.015687783458812783,0.06921836762583036
0.3021207,0.007877462149671262,0.03668868541423323,0.03585914125523037,0.02456711305253584,0.012462292143679065,0.057815138596960934,0.01571562657692448,0.06925717684034828
0.3025862,0.007723572142699724,0.03634139280614848,0.036089644889640234,0.02439341237117366,0.012459999043963842,0.0575096089371645,0.01574372361999238,0.06929627539851343
0.3030517,0.007572398996790373,0.03599684749172458,0.03631980091241758,0.02421857294674659,0.01245846092578758,0.0572027145650057,0.015772065160937165,0.06933562407642806
0.3035172,0.007423939881360283,0.03565505606124304,0.036549568457360244,0.02404263141317391,0.012457688111910857,0.0568944767300536,0.015800641725535854,0.06937518373478786
0.3039828,0.007278191593340388,0.03531602440084218,0.03677890694390973,0.023865624484912886,0.012457690768169652,0.05658491728413682,0.015829443795234793,0.06941491532939091
0.3044483,0.007135150563477506,0.034979757699059186,0.03700777608684748,0.02368758894575632,0.012458478901490775,0.056274058686039706,0.015858461809980923,0.0694547799215417
0.3049138,0.006994812862702585,0.034646260453546206,0.03723613590587056,0.02350856163770454,0.012460062357948998,0.055961924005888446,0.01588768617107028,0.06949473868834728
0.3053793,0.006857174208562725,0.03431553647795548,0.03746394673504331,0.02332857944991528,0.01246245082086659,0.05564853692922568,0.015917107244012584,0.06953475293290323
0.3058448,0.006722229971714553,0.03398758890898873,0.03769116923212201,0.023147679307734842,0.012465653808955948,0.05533392176077317,0.015946715361410898,0.06957478409436832
0.3063103,0.006589975182476522,0.03366242021360572,0.03791776438774981,0.02296589816181365,0.012469680674506045,0.05501810342788287,0.01597650082585549,0.06961479375792749
0.3067759,0.006460404537437685,0.03334003219638717,0.03814369353451885,0.022783272977309327,0.0124745406016134,0.05470110748367743,0.016006453912831037,0.06965474366464344
0.3072414,0.0063335124061205,0.033020426007047056,0.03836891835589689,0.022599840723180137,0.012480242604458333,0.05438296010988187,0.01603656487363643,0.06969459572119803
0.3077069,0.006209292837695215,0.032703602148089664,0.0385934008950151,0.02241563836157165,0.012486795525627205,0.054063688119348544,0.01606682393831631,0.06973431200952493
0.3081724,0.006087739567743346,0.03238956048260651,0.0388171035633139,0.02223070283729931,0.012494208034481388,0.05374331895827776,0.01609722131860348,0.06977385479633497
0.3086379,0.005968846025067792,0.032078300242208334,0.03903998914904335,0.02204507106742939,0.012502488625573611,0.05342188070813601,0.016127747210871173,0.06981318654253535
0.3091034,0.005852605338547092,0.0317698200350876,0.03926202082561455,0.02185877993096079,0.012511645617112271,0.05309940208727368,0.01615839179909423,0.06985226991254387
0.309569,0.005739010344031307,0.03146411785420672,0.039483162159798434,0.021671866258610027,0.012521687149474202,0.052775912452243695,0.016189145257818005,0.0698910677834986
0.3100345,0.005628053591276991,0.03116119108560741,0.0397033771197681,0.021484366822701613,0.012532621183766359,0.052451441798822544,0.016219997755133914,0.06992954325436344
0.3105,0.005519727350918668,0.030861036516836512,0.03992263008298079,0.021296318327165928,0.01254445550043677,0.052126020762734745,0.01625093945566037,0.0699676596549294
0.3109655,0.005414023621474238,0.030563650345483775,0.04014088584389509,0.021107757397646636,0.012557197697935025,0.05179968062008191,0.01628196052352788,0.07000538055471081
0.311431,0.005310934136381685,0.03026902818782704,0.04035810962151887,0.0209187205717195,0.01257085519142249,0.05147245328747738,0.016313051125366948,0.07004266977173568
0.3118966,0.0052104503710644545,0.029977165087580183,0.040574267066783215,0.020729244289224416,0.012585435211532351,0.051144371321887296,0.01634420143329746,0.07007949138122842
0.3123621,0.005112563550022864,0.029688055524739385,0.04078932426973748,0.020539364882712175,0.012600944803179597,0.050815467920179526,0.016375401627918004,0.07011580972418298
0.3128276,0.005017264653948932,0.02940169342452313,0.04100324776656076,0.020349118568007488,0.012617390824421027,0.05048577691838186,0.016406641901293713,0.0701515894158243
0.3132931,0.004924544426861963,0.029118072166401367,0.04121600454638514,0.02015854143488949,0.01263477994536528,0.05015533279065158,0.01643791245994091,0.07018679535395557
0.3137586,0.004834393383262271,0.02883718459320928,0.04142756205792633,0.019967669437890856,0.012653118647132934,0.04982417064795879,0.016469203527806904,0.07022139272718939
0.3142241,0.004746801815300427,0.02855902302034103,0.04163788821591786,0.01977653838721649,0.012672413220866645,0.04949232623648592,0.016500505349243126,0.07025534702306087
0.3146897,0.004661759799959437,0.028283579245018738,0.04184695140734517,0.019585183939782595,0.012692669766791233,0.04915983593574628,0.01653180819196984,0.07028862403602074
0.3151552,0.004579257206247295,0.028010844555631895,0.04205472049747676,0.01939364159037679,0.012713894193323643,0.04882673675642411,0.016563102350030605,0.07032118987530672
0.3156207,0.004499283702397376,0.02774080974114247,0.04226116483568993,0.019201946662940016,0.012736092216232576,0.048493066337938734,0.016594378146734687,0.0703530109726916
0.3160862,0.004421828763074106,0.027473465100550896,0.042466254261089784,0.019010134301970898,0.012759269357847632,0.048158862945735105,0.01662562593758575,0.07038405409010658
0.3165517,0.00434688167658136,0.02720880045241845,0.04266995910792039,0.018818239464053314,0.012783430946317759,0.04782416546830323,0.016656836113195114,0.07041428632713878
0.3170172,0.0042744315520710134,0.02694680514444152,0.04287225021076811,0.01862629690950803,0.012808582114918672,0.04748901341392827,0.01668799910217797,0.07044367512840188
0.3174828,0.004204467326749017,0.026687468063073615,0.04307309890955759,0.018434341194169236,0.012834727801408945,0.04715344690717341,0.01671910537403086,0.07047218829077842
0.3179483,0.00413697777307636,0.0264307776431911,0.04327247705434114,0.018242406661286858,0.012861872747434418,0.04681750668509758,0.016750145441988835,0.0704997939705326
0.3184138,0.004071951505962255,0.026176721877798688,0.04347035700988278,0.018050527433555414,0.012890021497980454,0.04648123409321016,0.016781109865860663,0.07052646069029186
0.3188793,0.00400937698994682,0.025925288327770916,0.043666711660038104,0.017858737405270345,0.012919178400871537,0.04614467108116495,0.016811989254840527,0.07055215734589526
0.3193448,0.003949242546370541,0.025676464131625887,0.04386151441193088,0.017667070234612763,0.01294934760631763,0.045807860198196076,0.016842774270294566,0.07057685321310739
0.3198103,0.003891536360527751,0.025430236015327626,0.044054739199927626,0.017475559336063914,0.01298053306650657,0.04547084458829828,0.01687345562852068,0.07060051795419647
0.3202759,0.0038362464888013507,0.02518659030211341,0.04424636048941049,0.01728423787295091,0.013012738535241767,0.045133667985153926,0.016904024103479992,0.07062312162437653
0.3207414,0.003783360865775998,0.024945512922342403,0.04443635328034897,0.01709313875012562,0.013045967567624337,0.044796374706809104,0.016934470529498463,0.07064463467811383
