Time,Rectus Femoris right,Rectus Femoris left,Hamstrings right,Hamstrings left,TibilaisÂ Anterior right,Gastrocnemius right,Gastrocnemius left
0.0,-0.0008747993617422755,-0.0028957886129588914,0.0019026151137928485,0.0008956487675231007,0.0005791376149807635,-0.011100900217149448,0.00043698721675278614
0.0004655,-0.0008339860758926728,-0.0027669081350223403,0.001932234002561868,0.0008994111085440195,0.0006029515174674424,-0.010868979437302731,0.0005251379386777355
0.000931,-0.0007932264409665744,-0.0026383592200672212,0.001961809952372341,0.0009031704243049011,0.0006267504941619564,-0.010637294849165133,0.0006125444383619335
0.0013966,-0.0007525259971986065,-0.0025101595265798336,0.0019913385281776935,0.0009069262075889479,0.0006505313207471334,-0.01040587435515079,0.0006991870399503977
0.0018621,-0.0007118902672815934,-0.00238232662353014,0.002020815298185666,0.0009106779543506032,0.0006742907791136256,-0.01017474575512528,0.0007850461967166857
0.0023276,-0.0006713247544820431,-0.002254877984835583,0.002050235835192225,0.0009144251639814612,0.0006980256584939994,-0.009943936738058703,0.0008701024986067669
0.0027931,-0.000630834940767088,-0.0021278309838742315,0.002079595717914327,0.0009181673395771376,0.0007217327565939274,-0.009713474873761197,0.0009543366797925404
0.0032586,-0.0005904262849446934,-0.0020012028880508712,0.0021088905323207174,0.0009219039882048956,0.0007454088807194426,-0.009483387604706794,0.0010377296262321966
0.0037241,-0.0005501042208188404,-0.0018750108534196087,0.002138115872959966,0.0009256346211718155,0.0007690508488992407,-0.00925370223795113,0.001120262383234629
0.0041897,-0.0005098741553612574,-0.0017492719193664679,0.002167267344284934,0.0009293587542932928,0.0007926554910010524,-0.009024445937148214,0.0012019161630251135
0.0046552,-0.00046974146690112684,-0.0016240030033553999,0.002196340561972876,0.0009330759081616492,0.0008162196498411479,-0.00879564571467109,0.0012826723523094872
0.0051207,-0.00042971150333403677,-0.001499220895741033,0.002225331154240364,0.0009367856084146432,0.000839740182286089,-0.00856732842384085,0.0013625125198340805
0.0055862,-0.0003897895803513128,-0.0013749422546514172,0.0022542347631522427,0.0009404873860036687,0.0008632139603459058,-0.008339520751268276,0.0014414184239386644
0.0060517,-0.00034998097969074694,-0.0012511836009439334,0.0022830470459238275,0.0009441807774614426,0.0008866378722579412,-0.008112249209312096,0.001519372020099697
0.0065172,-0.00031029094740964283,-0.001127961313237443,0.002311763676215576,0.0009478653251689861,0.0009100088235606625,-0.007885540128657692,0.0015963554684611607
0.0069828,-0.0002707246921810043,-0.00100529162302365,0.0023403803454194985,0.0009515405776217089,0.000933323738156795,-0.007659419651019809,0.0016723511413503022
0.0074483,-0.00023128738361360792,-0.0008831906098605141,0.002368892763936615,0.0009552060896944031,0.0009565795593651817,-0.00743391372197262,0.00174734163077561
0.0079138,-0.0001919841505966219,-0.0007616741966503905,0.0023972966624447984,0.0009588614229049582,0.0009797732509608079,-0.007209048083910258,0.0018213097559044112
0.0083793,-0.00015282007966936514,-0.000640758145005409,0.00242558779315639,0.0009625061456765987,0.0010029017982024603,-0.0069848482691406396,0.0018942385705175227
0.0088448,-0.0001138002134167457,-0.0005204580507024392,0.002453761931064983,0.0009661398335984407,0.0010259622088475053,-0.006761339593115101,0.0019661113704384633
0.0093103,-7.492954889087695e-05,-0.0004007893392298257,0.0024818148751807735,0.0009697620696841622,0.0010489515141532861,-0.006538547147796075,0.002036911700934823
0.0097759,-3.621303605933781e-05,-0.00028176726142794406,0.00250974244975387,0.0009733724446285784,0.0010718667698646543,-0.006316495795164759,0.0021066233640894606
0.0102414,2.3444237194809158e-06,-0.0001634068892254997,0.002537540505484945,0.0009769705570619137,0.001094705057187165,-0.006095210160870543,0.002175230426139281
0.0107069,4.073797919352083e-05,-4.5723111473380286e-05,0.0025652049207225834,0.0009805560138015658,0.0011174634837454796,-0.005874714628023803,0.002242717224779387
0.0111724,7.896283068628446e-05,7.126937012221829e-05,0.002592731602646682,0.0009841284301011625,0.0011401391845265328,-0.005655033331133511,0.002309068376430427
0.0116379,0.00011701423153775896,0.0001875560449657444,0.0026201164884372286,0.000987687429896711,0.0011627293228070239,-0.00543619015019103,0.0023742687834669837
0.0121034,0.00015488748951666498,0.0003031225974357314,0.0026473555464277686,0.0009912326460496494,0.001185231091064804,-0.00521820870490127,0.0024383036414048504
0.012569,0.00019257796820367826,0.000417954910644201,0.002674444777242869,0.0009947637205866122,0.0012076417118737374,-0.005001112349062229,0.002501158446045079
0.0130345,0.00023008108834528864,0.0005320390700906013,0.002701380214918854,0.000998280304935734,0.0012299584387816325,-0.004784924165093772,0.0025628190005727164
0.0135,0.00026739232917797256,0.0006453613672089973,0.002728157928007096,0.001001782060159329,0.001252178557170857,-0.004569666958716304,0.0026232714226082153
0.0139655,0.0003045072297223642,0.0007579083028074242,0.002754774020659127,0.0010052686571827931,0.001274299385101279,-0.004355363253779841,0.0026825021512095846
0.014431,0.0003414213900471154,0.0008696665903985277,0.002781224633692833,0.0010087397770195921,0.0012963182741351992,-0.004142035287243888,0.0027404979538234162
0.0148966,0.00037813047250213417,0.0009806231594208313,0.0028075059456389865,0.0010121951109922018,0.0013182326101439552,-0.003929705004308412,0.0027972459331830003
0.0153621,0.00041463020292089486,0.0010907651583501642,0.0028336141737673767,0.0010156343609488718,0.0013400398140958937,-0.003718394053696125,0.002852733534151791
0.0158276,0.0004509163717915101,0.001200079957700938,0.0028595455750917765,0.0010190572394760875,0.0013617373428254208,-0.003508123783086218,0.002906948550510515
0.0162931,0.0004869848353962578,0.0013085551529170676,0.002885296447352978,0.001022463470106611,0.001383322689782861,-0.003298915234699588,0.002959879131686221
0.0167586,0.0005228315169192552,0.0014161785671523933,0.002910863129979129,0.001025852787522985,0.001404793385764882,-0.003090789141035566,0.0030115137894215797
0.0172241,0.0005584524075219771,0.0015229382539404908,0.002936242005022598,0.0010292249377563964,0.001426146999625269,-0.002883765920760051,0.0030618414043827257
0.0176897,0.000593843567386318,0.0016288224997537601,0.0029614294980725895,0.0010325796783807904,0.0014473811389658496,-0.0026778656747448934,0.0031108512327039095
0.0181552,0.0006290011267249083,0.0017338198264516909,0.002986422079142742,0.0010359167787021468,0.0014684934508073964,-0.0024731081822583255,0.003158532912467219
0.0186207,0.0006639212867584011,0.0018379189936182066,0.003011216263532943,0.0010392360199428347,0.0014894816222403504,-0.0022695128973061773,0.0032048764701155938
0.0190862,0.0006986003206594628,0.001941109000788002,0.0030358086126646188,0.0010425371954209813,0.0015103433810552235,-0.0020670989451235695,0.0032498723267973535
0.0195517,0.0007330345744632193,0.002043379089561818,0.0030601957348887748,0.001045820110724805,0.001531076496352546,-0.0018658851188167339,0.00329351130464042
0.0200172,0.000767220467943947,0.0021447187456106443,0.003084374286266086,0.0010490845838818787,0.0015516787791322374,-0.0016658898761545702,0.0033357846329543973
0.0204828,0.0008011544954578434,0.0022451177005688803,0.003108340971318372,0.0010523304455232984,0.0015721480828622847,-0.00146713133650951,0.003376683954358645
0.0209483,0.0008348332267517609,0.0023445659338165743,0.0031320925437508243,0.0010555575390427548,0.001592482304026617,-0.0012696272779472181,0.0034162013308344577
0.0214138,0.0008682533077378448,0.0024430536741508763,0.0031556258071443752,0.0010587657207505176,0.0016126793826520937,-0.0010733951344646274,0.003454329249699444
0.0218793,0.0009014114612340529,0.0025405714013469107,0.0031789376156176378,0.0010619548600223517,0.0016327373028145523,-0.0008784519933757447,0.0034910606295021824
0.0223448,0.0009343044876705703,0.002637109847608269,0.003202024874457873,0.0010651248394433945,0.0016526540931238929,-0.0006848145928446028,0.003526388825835204
0.0228103,0.0009669292657621514,0.002732659998907368,0.003224884540720481,0.0010682755549470209,0.001672427827188218,-0.0004924993195646422,0.003560307637064346
0.0232759,0.0009992827531464384,0.002827213096215928,0.003247513623796552,0.0010714069159487212,0.0016920566240570803,-0.000301522206583735,0.0035928113099724956
0.0237414,0.0010313619869883228,0.0029207606366258815,0.003269909185948067,0.0010745188454750142,0.001711538648643915,-0.00011189893127398522,0.003623894545315747
0.0242069,0.0010631640845504243,0.00301329437436109,0.0032920683428103877,0.0010776112802874107,0.0017308721121277546,7.635518655462863e-05,0.00365355250328999
0.0246724,0.0010946862437297704,0.0031048063216803754,0.0033139882638617475,0.001080684171001446,0.001750055272334323,0.0002632251863977701,0.003681780808905958
0.0251379,0.0011259257435607608,0.003195288749672495,0.003335666172859523,0.0010837374822007951,0.0017690864340965985,0.00044869646865849694,0.0037085755572707647
0.0256034,0.001156879944684507,0.003284734188943833,0.0033570993482431384,0.0010867711925464899,0.0017879639495949492,0.0006327547961083849,0.0037339333187739842
0.026069,0.001187546289784631,0.0033731354301996916,0.0033782851235035255,0.0010897852948812533,0.0018066862186769247,0.0008153862952092025,0.0037578511441763414
0.0265345,0.0012179223039896086,0.0034604855247201724,0.0033992208875191264,0.0010927797963289677,0.0018252516891568058,0.0009965774572963436,0.003780326569599096
0.027,0.0012480055952417445,0.0035467777847316626,0.003419904084858505,0.0010957547183892914,0.0018436588570950182,0.0011763151396252391,0.0038013576214122125
0.0274655,0.0012777938546328499,0.003632005783675012,0.003440332216049691,0.0010987100970274311,0.0018619062670575265,0.001354586566281996,0.0038209428210194464
0.027931,0.001307284856706698,0.0037161633563714937,0.003460502837816441,0.0011016459827590864,0.0018799925123553379,0.0015313793289595307,0.003839081189538476
0.0283966,0.001336476459728329,0.0037992445990876643,0.0034804135632816396,0.0011045624407305754,0.0018979162352642488,0.0017066813876004988,0.0038557722523742503
0.0288621,0.0013653666059203003,0.0038812438695002304,0.003500062062138124,0.0011074595507941567,0.0019156761272249774,0.0018804810709083589,0.0038710160436837356
0.0293276,0.0013939533216660036,0.003962155786562058,0.003519446060787269,0.0011103374075785634,0.0019332709290238177,0.0020527670767279357,0.003884813110730243
0.0297931,0.0014222347176802365,0.004041975230270465,0.00353856334244574,0.0011131961205547664,0.001950699430953956,0.0022235284722968924,0.0038971645181255375
0.0302586,0.0014502089891472762,0.004120697341338955,0.0035574117472209127,0.0011160358140969871,0.001967960472957591,0.002392754694369543,0.003908071851957908
0.0307241,0.0014778744158267668,0.0041983175207735875,0.0035759891721555085,0.00111885662753899,0.001985052944749004,0.002560435549214469,0.0039175372238043835
0.0311897,0.0015052293621277766,0.004274831429355211,0.0035942935712420542,0.001121658715225686,0.002001975785918726,0.0027265612124874263,0.00392556327462525
0.0316552,0.0015322722771514106,0.004350234987028817,0.003612322955407844,0.0011244422465600844,0.002018727986018939,0.002891122228981059,0.003932153178539013
0.0321207,0.00155900169470239,0.0044245243722013106,0.0036300753924711168,0.0011272074060456301,0.002035308584630247,0.003054109512252939,0.003937310646475942
0.0325862,0.0015854162332700366,0.004497696020949003,0.0036475490070692214,0.0011299543933239557,0.0020517166714099444,0.0032155143441334813,0.00394103992970828
0.0330517,0.0016115145959791305,0.004569746626136157,0.0036647419805595793,0.0011326834232080775,0.002067951386121907,0.0033753283741152925,0.003943345823255271
0.0335172,0.00163729557051112,0.004640673136445959,0.003681652550894291,0.0011353947257110575,0.002084011918648241,0.0035335436186255155,0.003944233669161079
0.0339828,0.001662758028996187,0.004710472755325325,0.003698279012469265,0.0011380885460701554,0.0020998975089828354,0.003690152460182741,0.00394370935964375
0.0344483,0.0016879009278766685,0.004779142939845003,0.003714619715948784,0.0011407651447664906,0.0021156074472069644,0.0038451476464400496,0.003941779340113348
0.0349138,0.0017127233077423422,0.004846681399476477,0.003730673068066446,0.0011434247975402353,0.0021311410734470818,0.003998522289115769,0.00393845061205743
0.0353793,0.001737224293138075,0.0049130860947871995,0.003746437531403441,0.0011460677954013602,0.002146497777814956,0.0041502698628134976,0.003933730735792027
0.0358448,0.001761403092344324,0.004978355236055702,0.0037619116241451394,0.0011486944446359574,0.0021616770003302856,0.0043003842037329714,0.003927627833076362
0.0363103,0.0017852589971309777,0.005042487281808209,0.0037770939198169943,0.0011513050668081673,0.002176678230825939,0.004448859508273294,0.003920150589589545
0.0367759,0.0018087913824850086,0.005105480937278436,0.0037919830470007614,0.0011538999987577283,0.0021915010088359717,0.0045956903315300815,0.003911308257267543
0.0372414,0.0018319997063124028,0.005167335152792397,0.003806577689032059,0.0011564795925931726,0.0022061449234665677,0.004740871585688031,0.003901110656498755
0.0377069,0.0018548835091148138,0.005228049122080128,0.003820876583680304,0.0011590442156806807,0.0022206096132500863,0.0048843985383104195,0.0038895681781765477
0.0381724,0.0018774424136413848,0.005287622280516371,0.00383487852281205,0.001161594250628605,0.002234894765982371,0.005026266810526995,0.003876691785607139
0.0386379,0.001899676124516163,0.005346054303292343,0.003848582352038778,0.0011641300952676737,0.0022490001185434985,0.005166472375121714,0.0038624930162712238
0.0391034,0.001921584427841526,0.005403345103520784,0.003861986970350169,0.001166652162626884,0.002262925456702107,0.005305011554521756,0.0038469839834377457
0.039569,0.0019431671907780368,0.00545949483027653,0.003875091329733904,0.001169160880905102,0.0022766706149034595,0.005441881018689206,0.0038301773776282127
0.0400345,0.001964424361101135,0.00551450386657485,0.003887894434783026,0.0011716566934383893,0.002290235476041361,0.005577077782916785,0.0038120864679299423
0.0405,0.0019853559667350677,0.005568372827289815,0.003900395342291898,0.0011741400586630759,0.002303619971214059,0.005710599205528943,0.0037927251031566016
0.0409655,0.0020059621152644616,0.00562110255701492,0.003912593160841783,0.0011766114500746066,0.0023168240794642454,0.0058424429854896515,0.003772107712854391
0.041431,0.002026242993423924,0.005672694127868169,0.003924487050377052,0.0011790713561821908,0.0023298478275032854,0.005972607159918189,0.0037502493081521832
0.0418966,0.0020461988665660597,0.0057231488372437925,0.003936076221773034,0.0011815202804592825,0.002342691289419811,0.006101090101514296,0.0037271654824539056
0.0423621,0.0020658300781082753,0.005772468205512774,0.003947359936396492,0.0011839587412899248,0.0023553545863728223,0.0062278905158941415,0.0037028724119714516
0.0428276,0.002085137048958739,0.005820653973674331,0.003958337505659697,0.0011863872719109854,0.002367837886269439,0.006353007438838716,0.003677386856096378
0.0432931,0.00210412027692186,0.005867708100960476,0.003969008290569059,0.0011888064203503103,0.0023801414034274435,0.006476440233456467,0.003650726157608644
0.0437586,0.002122780336083635,0.005913632762395746,0.003979371701269238,0.0011912167493608177,0.002392265398222747,0.006598188587262065,0.003622908242720679
0.0442241,0.0021411178761771956,0.005958430346314147,0.003989427196583666,0.0011936188363505424,0.002404210176721906,0.006718252509173337,0.003593951620955079
0.0446897,0.002159133621928877,0.006002103451835345,0.003999174283552348,0.001196013273308648,0.002415976090299806,0.006836632326428319,0.003563875384854262
0.0451552,0.002176828372385112,0.006044654886302034,0.004008612516967807,0.0011984006667274058,0.002427563535242641,0.006953328681424453,0.0035326992095204737
0.0456207,0.002194203000220444,0.006086087662680418,0.0040177414989100045,0.00120078163752015,0.002438972952336321,0.0070683425284818685,0.0035004433519845927
0.0460862,0.002211258451026939,0.006126404996925666,0.004026560878281019,0.0012031568209352017,0.0024502048264404656,0.007181675130532734,0.0034671286504022567
0.0465517,0.0022279957425852676,0.006165610305314195,0.004035070350340257,0.001205526866465769,0.0024612596860481683,0.007293328055738697,0.0034327765230759005
0.0470172,0.002244415964117729,0.006203707201744524,0.00404326965624091,0.0012078924377558263,0.002472138102831738,0.007403303174038477,0.0033974089673013525
0.0474828,0.002260520275523488,0.006240699495008465,0.004051158582568379,0.0012102542125019817,0.002482840691174653,0.007511602653627808,0.003361048558037666
0.0479483,0.002276309906596283,0.006276591186034347,0.004058736960881312,0.001212612882351344,0.002493368107689977,0.0076182289573739495,0.0033237184463988695
0.0484138,0.0022917861562248834,0.006311386465103942,0.004066004667255908,0.0012149691527953918,0.002503721050725487,0.007723184839167071,0.003285442357966322
0.0488793,0.0023069503915765887,0.006345089709044735,0.004072961621834085,0.001217323743059854,0.0025139002598557796,0.007826473340210804,0.003246244590920409
0.0493448,0.002321804047264075,0.006377705478399175,0.004079607788376117,0.0012196773859905945,0.002523906515361602,0.007928097785254246,0.0032061500139903246
0.0498103,0.00233634862449589,0.006409238514572493,0.004085943173818288,0.0012220308279354997,0.002533740637696688,0.008028061778767692,0.003165184064220795
0.0502759,0.0023505856902109276,0.0064396937369606945,0.00409196782783613,0.001224384828622366,0.0025434034869423706,0.008126369201064338,0.003123372744554655
0.0507414,0.0023645168761971744,0.006469076240060279,0.00409768184241376,0.001226740161032785,0.0025528959622502594,0.00822302420437017,0.0030807426212302843
0.0512069,0.002378143878195052,0.006497391290561255,0.004103085351419826,0.0012290976112720245,0.0025622190012732603,0.008318031208844293,0.0030373208209929507
0.0516724,0.0023914684549856467,0.006524644324424966,0.004108178530190548,0.001231457978434905,0.0025713735795852336,0.008411394898551848,0.002993135028119181
0.0521379,0.0024044924274641217,0.006550840943948231,0.0041129615951203385,0.0012338220744676643,0.0025803607100895955,0.008503120217391752,0.002948213481253325
0.0526034,0.0024172176776985858,0.006575986914815304,0.004117434803260448,0.0012361907240258077,0.002589181442417184,0.00859321236498137,0.0029025849700556015
0.053069,0.0024296461479746895,0.0066000881631390965,0.004121598451926099,0.0012385647643279416,0.0025978368623137305,0.008681676792500299,0.0028562788316610225
0.0535345,0.0024417798398262123,0.0066231507724931115,0.0041254528783125095,0.0012409450450055935,0.002606328091017275,0.00876851919849529,0.0028093249469486837
0.054,0.002453620813051904,0.006645180980935519,0.004128998459120257,0.0012433324279490148,0.0026146562846258567,0.008853745524648364,0.0027617537366210108
0.0544655,0.0024651711847188517,0.006666185178026748,0.004132235610190356,0.001245727787148968,0.0026228226334558164,0.008937361951510216,0.0027135961570926015
0.054931,0.002476433128152644,0.006686169901841948,0.004135164786149453,0.001248132008534499,0.0026308283613910356,0.00901937489420097,0.0026648836961883824
0.0553966,0.0024874088719146078,0.006705141835979611,0.004137786480065491,0.0012505459898067002,0.0026386747252234435,0.009099790998080476,0.002615648368650855
0.0558621,0.002498100698766382,0.006723107806567599,0.004140101223114212,0.0012529706402684842,0.002646363013985129,0.00917861713439032,0.0025659227114562845
0.0563276,0.0025085109446221087,0.006740074779267802,0.0041421095842568275,0.001255406880650395,0.0026538945482723914,0.009255860395869783,0.002515739778939766
0.0567931,0.0025186419974885118,0.006756049856280551,0.004143812169929185,0.0012578556429325002,0.0026612706795620905,0.00933152809234793,0.002465133137729229
0.0572586,0.0025284962963931642,0.006771040273349927,0.0041452096237427245,0.001260317870162413,0.002668492789520669,0.009405627746314071,0.0024141368614886013
0.0577241,0.0025380763303012492,0.006785053396771008,0.004146302626197512,0.0012627945162694961,0.0026755622893062446,0.009478167088468784,0.002362785525470499
0.0581897,0.002547384637021138,0.00679809672040011,0.004147091894407611,0.0012652865458753029,0.002682480618864192,0.00954915405325773,0.0023111142008789705
0.0586552,0.0025564238020991266,0.006810177862668979,0.004147578181839033,0.001267794934100305,0.002689249246216655,0.009618596774390496,0.0022591584490429155
0.0591207,0.002565196457703693,0.0068213045636038834,0.0041477622780604975,0.0012703206663669637,0.002695869666746387,0.009686503580346699,0.002206954315400908
0.0595862,0.0025737052814996443,0.006831484681850519,0.00414764500850718,0.001272864738199204,0.0027023434024753567,0.00975288298987164,0.002154538323298181
0.0600517,0.002581952995512548,0.006840726191705581,0.004147227234257639,0.0012754281550183555,0.0027086720013385153,0.00981774370746377,0.0021019474675965507
0.0605172,0.002589942364983853,0.006849037180155834,0.004146509851824058,0.0012780119319356332,0.00271485703645312,0.009881094618856216,0.002049219208098089
0.0609828,0.0025976761972171113,0.006856425843925512,0.004145493792955927,0.0012806170935412355,0.0027209001053840297,0.009942944786494677,0.0019963914627833413
0.0614483,0.002605157340415721,0.0068629004865328296,0.0041441800244572695,0.0012832446736901347,0.00272680282940539,0.010003303445013852,0.0019435026008649318
0.0619138,0.0026123886825126226,0.006868469515356447,0.004142569548017475,0.0012858957152846362,0.0027325668527591446,0.010062179996714578,0.0018905914356573924
0.0623793,0.0026193731499923644,0.006873141438712695,0.004140663400055789,0.0012885712700537776,0.0027381938419108534,0.010119584007043792,0.0018376972172641098
0.0628448,0.0026261137067059726,0.006876924862944348,0.004138462651579475,0.001291272398329633,0.002743685484803258,0.010175525200079343,0.0017848596250822836
0.0633103,0.002632613352679039,0.006879828489521716,0.004135968408055644,0.001294000168820584,0.0027490434901080787,0.010230013454021617,0.0017321187601268258
0.0637759,0.002638875122913471,0.006881861112156787,0.0041331818092967074,0.0012967556583816189,0.002754269586476495,0.010283058796693863,0.0016795151371741365
0.0642414,0.0026449020861833653,0.006883031613931138,0.004130104029359397,0.0012995399517817183,0.0027593655217887443,0.01033467140105305,0.0016270896767267133
0.0647069,0.002650697343825508,0.006883348964438257,0.0041267362764572674,0.0013023541414684007,0.0027643330624032812,0.010384861580712994,0.0015748836967995775
0.0651724,0.0026562640285250332,0.006882822216940926,0.004123079792886559,0.0013051993273295076,0.0027691739924059025,0.010433639785481478,0.0015229389045295508
0.0656379,0.002661605303096794,0.006881460505544279,0.004119135854965291,0.001308076616452324,0.0027738901128592204,0.010481016596912961,0.001471297387608485
0.0661034,0.002666724359262996,0.006879273042385109,0.004114905772985419,0.0013109871228801403,0.0027784832410528565,0.01052700272387847,0.0014200016055416385
0.066569,0.002671624416427654,0.006876269114837986,0.00411039089117788,0.0013139319673663714,0.0027829552097547072,0.010571608998154196,0.001369094380732496
0.0670345,0.0026763087204484037,0.00687245808273869,0.004105592587690303,0.0013169122771263407,0.00278730786646361,0.010614846370030248,0.0013186188893954136
0.0675,0.0026807805424062135,0.00686784937562543,0.004100512274577164,0.0013199291855868428,0.002791543072663737,0.010656725903941004,0.0012686186522975615
0.0679655,0.0026850431773735215,0.006862452489998297,0.004095151397802139,0.0013229838321335908,0.0027956627030810335,0.01069725877411838,0.0012191375253316793
0.068431,0.002689099943181341,0.006856276986597335,0.0040895114372523815,0.0013260773618566566,0.002799668644942034,0.01073645626026939,0.00117021968992121
0.0688966,0.002692954179185856,0.006849332487699586,0.004083593906764431,0.001329210925294016,0.002803562797235402,0.010774329743279314,0.001121909643259419
0.0693621,0.0026966092450350252,0.0068416286744354135,0.00407740035416146,0.0013323856781733093,0.0028073470699765467,0.010810890700941742,0.0010742521883841452
0.0698276,0.0027000685194357,0.006833175284124384,0.00407093236130153,0.0013356027811519257,0.002811023383475679,0.01084615070371678,0.0010272924240898782
0.0702931,0.002703335398921749,0.006823982107630923,0.004064191544136517,0.0013388633995555282,0.0028145936676096696,0.010880121410518695,0.0009810757346789092
0.0707586,0.0027064132966236713,0.00681405898673994,0.004057179552781351,0.0013421687031151266,0.002818059861098057,0.010912814564534174,0.0009356477795533458
0.0712241,0.0027093056410401953,0.006803415811552548,0.0040498980715932015,0.0013455198657028088,0.0028214239107835627,0.010944241989072458,0.0008910544826498194
0.0716897,0.002712015874812334,0.006792062517901989,0.004042348819260216,0.001348918065066236,0.002824687770917458,0.01097441558344849,0.0008473420217187359
0.0721552,0.0027145474535004007,0.006780009084789776,0.004034533548899416,0.0013523644825619975,0.002827853402450117,0.011003347318900255,0.0008045568174499377
0.0726207,0.002716903844364458,0.006767265531842073,0.004026454048163328,0.0013558603028879202,0.0028309227723270986,0.011031049234541426,0.0007627455224466514
0.0730862,0.0027190885251486764,0.00675384191678623,0.004018112139354914,0.0013594067138144187,0.0028338978527910857,0.011057533433350402,0.0007219550100496082
0.0735517,0.0027211049828700646,0.006739748332947384,0.004009509679550359,0.0013630049059149632,0.002836780620690001,0.011082812078196782,0.0006822323630132253
0.0740172,0.0027229567126120023,0.0067249949067649875,0.004000648560729241,0.001366656072295744,0.0028395730567916003,0.011106897387906215,0.0006436248620357481
0.0744828,0.002724647216322994,0.006709591795329092,0.003991530709911588,0.0013703614083246014,0.0028422771451048347,0.011129801633364605,0.0006061799741452666
0.0749483,0.0027261800016210556,0.006693549183936183,0.003982158089301337,0.0013741221113592866,0.0028448948722082494,0.011151537133662534,0.0005699453409435556
0.0754138,0.002727558580604104,0.0066768772836643675,0.003972532696435647,0.0013779393804751218,0.0028474282265856863,0.011172116252280808,0.000534968766709722
0.0758793,0.0027287864686667313,0.006659586328967724,0.00396265656433953,0.0013818144161921182,0.0028498791979695475,0.011191551393317995,0.0005012982063657018
0.0763448,0.002729867183323733,0.00664168657528969,0.003952531761685214,0.0013857484202016025,0.002852249776691858,0.011209854997760844,0.0004689817533056996
0.0768103,0.002730804243040744,0.006623188296695458,0.003942160392955636,0.0013897425950924085,0.002854541953043361,0.011227039539798544,0.0004380676270917172
0.0772759,0.0027316011660723353,0.006604101783523441,0.00393154459861145,0.0013937981440766808,0.00285675771664087,0.011243117523181679,0.00040860416101736407
0.0777414,0.0027322614693079082,0.0065844373400559715,0.003920686555260862,0.0013979162707153337,0.002858899055803065,0.011258101477626773,0.00038063978954218255
0.0782069,0.0027327886671257174,0.006564205282209442,0.003909588475831629,0.0014020981786432172,0.00286096795693493,0.011272003955267184,0.0003542230355987574
0.0786724,0.002733186270255353,0.006543415935244123,0.003898252609744472,0.0014063450712940237,0.0028629664039209897,0.011284837527151127,0.00032940249777492036
0.0791379,0.002733457784649017,0.006522079631493928,0.003886681243087166,0.0014106581516249708,0.0028648963775274997,0.011296614779787441,0.00030622683737340124
0.0796034,0.00273360671036192,0.006500206708116438,0.0038748766987885003,0.0014150386218412887,0.0028667598548137306,0.01130734831173974,0.0002847447653513169
0.080069,0.0027336365404421387,0.006477807504863554,0.00386284133679131,0.0014194876831205294,0.002868558808552469,0.011317050730269573,0.00026500502914192354
0.0805345,0.0027335507598302833,0.006454892361873251,0.003850577554223726,0.0014240065353367136,0.0028702952066598513,0.011325734648029176,0.00024705639936108825
0.081,0.002733352844269299,0.006431471617482919,0.003838087785567792,0.0014285963767843187,0.002871971011634624,0.011333412679804455,0.0002309476564009565
0.0814655,0.0027330462592247647,0.006407555606064852,0.0038253745028245588,0.001433258403902122,0.0028735881800069306,0.011340097439308784,0.00021672757691330727
0.081931,0.002732634458816016,0.0063831546558844815,0.003812440215674765,0.0014379938109968997,0.0028751486617966766,0.011345801536028212,0.00020444492018509974
0.0823966,0.0027321208847584325,0.0063582790869819725,0.003799287471634189,0.0014428037899669882,0.002876654399981529,0.01135053757211859,0.00019414841440872354
0.0828621,0.0027315089653172156,0.006332939209077753,0.0037859188562027473,0.001447689530025712,0.0028781073299745793,0.011354318139355045,0.00018588674284947753
0.0833276,0.002730802114272962,0.006307145319502576,0.0037723369930064104,0.0014526522174246731,0.002879509379111689,0.01135715581613425,0.00017970852991281862
0.0837931,0.0027300037298993497,0.006280907701152654,0.0037585445439309913,0.0014576930351768889,0.00288086246614851,0.011359063164529773,0.00017566232711394285
0.0842586,0.002729117193953219,0.006254236620470356,0.003744544209246867,0.0014628131627797516,0.002882168500767164,0.011360052727400812,0.00017379659895228655
0.0847241,0.002728145870677304,0.006227142325451023,0.003730338727723693,0.0014680137759377717,0.0028834293830925155,0.011360137025554535,0.0001741597086935612
0.0851897,0.0027270931058158815,0.006199635043676337,0.0037159308767341598,0.0014732960462850576,0.0028846470032179807,0.011359328554962198,0.0001767999040619689
0.0856552,0.002725962225643546,0.006171724980374763,0.00370132347234586,0.0014786611411074732,0.0028858232407407668,0.011357639784029224,0.00018176530284528167
0.0861207,0.0027247565360073328,0.00614342231650951,0.0036865193694003277,0.0014841102230644045,0.0028869599643064335,0.011355083150919322,0.00018910387841551378
0.0865862,0.0027234793213823712,0.006114737206894529,0.0036715214615783225,0.0014896444499100537,0.0028880590311626516,0.01135167106093271,0.00019886344516797014
0.0870517,0.0027221338439412483,0.006085679778339064,0.0036563326814504447,0.0014952649742141827,0.0028891222867220272,0.011347415883938455,0.00021109164388151565
0.0875172,0.002720723342637262,0.006056260127821271,0.0036409560005121774,0.0015009729430822117,0.002890151564133843,0.011342329951860882,0.00022583592700297993
0.0879828,0.002719251032301734,0.006026488320691412,0.003625394429202476,0.0015067694978745778,0.0028911486838645627,0.011336425556220017,0.00024314354385868698
0.0884483,0.0027177201027555444,0.005996374388905146,0.0036096510169050322,0.0015126557739252606,0.0028921154532869564,0.011329714945726047,0.0002630615257961753
0.0889138,0.00271613371793506,0.005965928329287356,0.0035937288519313623,0.0015186329002593731,0.0028930536662776928,0.01132221032392765,0.00028563667125924337
0.0893793,0.002714495015032619,0.005935160101826953,0.0035776310614848974,0.001524701999309716,0.002893965102823272,0.011313923846914061,0.00031091553079951864
0.0898448,0.0027128071036517246,0.0059040796280031005,0.003561360811605282,0.0015308641866321896,0.002894851528634159,0.011304867621070677,0.00033894439202780306
0.0903103,0.0027110730649771036,0.005872696789143227,0.003544921307092118,0.0015371205706199544,0.002895714694766987,0.011295053700887852,0.00036976926450849805
0.0907759,0.0027092959509597858,0.00584102142481326,0.003528315791407413,0.001543472252216222,0.0028965563372547075,0.011284494086822569,0.0004034358646004616
0.0912414,0.002707478783517335,0.005809063331240465,0.0035115475465560433,0.0015499203246255482,0.00289737817674453,0.011273200723212511,0.0004399896002476954
0.0917069,0.0027056245537493756,0.005776832259769274,0.0034946198929435798,0.0015564658730235,0.002898181918143514,0.01126118549624206,0.0004794755557233053
0.0921724,0.0027037362211685206,0.005744337915350439,0.003477536189210855,0.0015631099742645525,0.0028989692502716323,0.011248460231959656,0.0005219384763302134
0.0926379,0.0027018167129468024,0.005711589955063853,0.0034602998320447183,0.0015698536965880739,0.0028997418455221466,0.011235036694346001,0.0005674227530621425
0.0931034,0.0026998689231776955,0.005678597986675343,0.003442914255964471,0.001576698099322248,0.0029005013595291003,0.011220926583432466,0.0006159724072284512
0.093569,0.0026978957121538243,0.005645371567227737,0.0034253829330835282,0.0015836442325857878,0.002901249430841735,0.011206141533469084,0.0006676310750464745
0.0940345,0.002695899905660465,0.0056119202016664945,0.0034077093728459187,0.0015906931369872848,0.0029019876806056486,0.011190693111141493,0.0007224419922051091
0.0945,0.002693884294284966,0.005578253341500198,0.0033898971217373084,0.0015978458433220399,0.002902717712250495,0.011174592813836136,0.0007804479784034569
0.0949655,0.0026918516327422435,0.005544380383496178,0.00337194976297028,0.001605103372266206,0.0029034411111840235,0.01115785206795305,0.0008416914218683986
0.095431,0.0026898046392165365,0.0055103106684115805,0.0033538709161436897,0.001612466734068074,0.0029041594444922407,0.011140482227265523,0.0009062142638549951
0.0958966,0.0026877459947196344,0.005476053479760145,0.0033356642368759623,0.0016199369282363313,0.002904874260645495,0.011122494571325907,0.0009740579831336275
0.0963621,0.002685678342465806,0.005441618042614975,0.0033173334164122176,0.001627514943225127,0.0029055870892102467,0.011103900303916867,0.0010452635804677987
0.0968276,0.002683604287263666,0.005407013522447552,0.0032988821812052066,0.001635201756115783,0.0029062994405663046,0.011084710551547274,0.0011198715630865367
0.0972931,0.0026815263949252236,0.005372249024003199,0.003280314292470089,0.0016429983322950091,0.002907012805629302,0.011064936361991948,0.0011979219291553805
0.0977586,0.002679447191692341,0.005337333590213198,0.003261633545713179,0.0016509056251294743,0.0029077286555781743,0.01104458870287442,0.0012794541522499633
0.0982241,0.0026773691636808195,0.005302276201143701,0.003242843770234853,0.0016589245756366052,0.0029084484415874213,0.011023678460291807,0.0013645071658362619
0.0986897,0.0026752947563423264,0.005267085772981552,0.0032239488286068927,0.0016670561121514855,0.0029091735945639273,0.011002216437480844,0.001453119347761612
0.0991552,0.0026732263739443498,0.005231771157057114,0.0032049526161246067,0.001675301149989739,0.00290990552488812,0.01098021335352412,0.001545328504760607
0.0996207,0.0026711663790683704,0.00519634113890417,0.003185859060234153,0.0016836605911062965,0.002910645622159257,0.010957679842095665,0.001641171856980006
0.1000862,0.0026691170921264366,0.005160804437356936,0.0031666721199355378,0.0016921353237499424,0.0029113952549446537,0.010934626450244948,0.0017406860225267727
0.1005517,0.00266708079089632,0.005125169703684205,0.00314739578516183,0.0017007262221135707,0.002912155770532688,0.01091106363721854,0.0018439070020433636
0.1010172,0.0026650597100754117,0.005089445520760582,0.0031280340761351737,0.0017094341459800775,0.0029129284946894725,0.010887001773318658,0.0019508701633143717
0.1014828,0.0026630560408535094,0.005053640402274777,0.003108591042700233,0.001718259940363862,0.002913714731419116,0.010862451138797835,0.0020616102259086336
0.1019483,0.0026610719305046214,0.00501776279197488,0.0030890707636357004,0.0017272044351479227,0.0029145157627275538,0.010837421922788991,0.0021761612458608966
0.1024138,0.0026591094819979153,0.004981821062950524,0.003069477345944534,0.0017362684447165566,0.0029153328483899846,0.010811924222270154,0.0022945566003971423
0.1028793,0.0026571707536278983,0.004945823516951801,0.0030498149241235868,0.001745452767583679,0.0029161672257219887,0.01078596804106324,0.0024168289727076716
0.1033448,0.0026552577586639245,0.0049097783837448,0.0030300876594132908,0.0017547581860167794,0.0029170201093544233,0.010759563288866373,0.0025430103367720634
0.1038103,0.002653372465019098,0.0048736938205035975,0.0030102997390280633,0.0017641854656565551,0.0029178926910122223,0.010732719780319313,0.0026731319422401275
0.1042759,0.0026515167949386384,0.0048375779112385265,0.0029904553753680643,0.0017737353551322717,0.0029187861392972075,0.010705447234101542,0.002807224299372998
0.1047414,0.002649692624707771,0.004801438666260543,0.002970558805212947,0.001783408585672926,0.0029197015994750198,0.010677755272062661,0.0029453171640485267
0.1052069,0.002647901784379202,0.0047652840216814854,0.0029506142888982025,0.0017932058707142973,0.0029206401932662927,0.010649653418384699,0.003087439522835209
0.1056724,0.002646146057520238,0.004729121838950039,0.0029306261094746845,0.0018031279055019688,0.0029216030186421755,0.01062115109877605,0.0032336195781389474
0.1061379,0.002644427180979637,0.0046929599044231995,0.0029105985718518934,0.0018131753666904005,0.0029225911496243233,0.0105922576396968,0.0033838847334270576
0.1066034,0.00264274684467425,0.004656805928973003,0.0028905360019255877,0.0018233489119381312,0.0029236056360894803,0.010562982267615302,0.003538261578534026
0.107069,0.002641106691395538,0.004620667547628288,0.0028704427456902803,0.0018336491794991778,0.0029246475035787567,0.010533334108295937,0.0036967758750536188
0.1075345,0.002639508316636036,0.004584552319251209,0.002850323168337205,0.001844076787810707,0.002925717753111695,0.010503322186117998,0.003859452541822054
0.108,0.002637953268435839,0.004548467726248184,0.0028301816533383246,0.0018546323350770429,0.0029268173610052066,0.01047295542342563,0.004026315640497024
0.1084655,0.002636443047249179,0.004512421174314966,0.002810022601516982,0.0018653163988500688,0.0029279472786974364,0.010442242639908795,0.0041973883612375015
0.108931,0.0026349791058311684,0.004476419992215466,0.0027898504301058003,0.0018761295356060804,0.0029291084325766027,0.010411192552015211,0.004372693008489355
0.1093966,0.0026335628491447544,0.004440471431593929,0.0027696695717924634,0.001887072280319148,0.0029303017238148394,0.010379813772393184,0.004552250986881901
0.1098621,0.00263219563428794,0.004404582666820061,0.0027494844737539974,0.001898145146031049,0.0029315280282070687,0.01034811480936525,0.004736082787240567
0.1103276,0.0026308787704412994,0.004368760794866674,0.002729299596680171,0.0019093486234178464,0.002932788196014926,0.010316104066432484,0.004924207972720881
0.1107931,0.002629613518835806,0.00433301283521938,0.0027091194137866524,0.0019206831803531964,0.0029340830518157345,0.010283789841809362,0.005116645165069009
0.1112586,0.0026284010927409666,0.004297345729817842,0.0026889484098185155,0.0019321492614684888,0.0029354133943565426,0.010251180327989077,0.005313412031014082
0.1117241,0.002627242657473249,0.004261766343028118,0.0026687910800447124,0.0019437472877099518,0.002936779996413242,0.010218283611339161,0.005514525268797545
0.1121897,0.002626139330424781,0.004226281461645561,0.002648651929244092,0.001955477655892871,0.0029381836046547985,0.010185107671727322,0.005720000594844781
0.1126552,0.0026250921811122848,0.00419089779492781,0.002628535470683543,0.001967340738253113,0.0029396249395126878,0.010151660382177342,0.005929852730584274
0.1131207,0.0026241022312462306,0.004155621974657372,0.0026084462250888143,0.001979336881996172,0.002941104695055657,0.010117949508554913,0.006144095389419629
0.1135862,0.00262317045482016,0.0041204605552333405,0.002588388719608563,0.001991466408843976,0.002942623538869989,0.010083982709283287,0.006362741263859836
0.1140517,0.0026222977782201437,0.004085420013791759,0.002568367486772149,0.0020037296145797106,0.002944182111945449,0.010049767535088601,0.006585802012813217
0.1145172,0.0026214850803543133,0.004050506750354154,0.00254838706344169,0.0020161267685909214,0.002945781028567107,0.010015311428774853,0.00681328824905064
0.1149828,0.0026207331928023987,0.00401572708800376,0.0025284519897588714,0.0020286581134111646,0.0029474208762132292,0.009980621725028374,0.007045209526843675
0.1154483,0.002620042899985184,0.0039810872730888895,0.002508566808086986,0.002041323864260468,0.0029491022154593946,0.009945705650251721,0.007281574329783457
0.1159138,0.0026194149393537797,0.0039465934754529365,0.002488736061948664,0.002054124208584875,0.002950825579889003,0.009910570322426752,0.007522390058786084
0.1163793,0.002618850001598597,0.003912251788690412,0.002468964294959735,0.002067059305595353,0.002952591476010308,0.009875222751006689,0.007767663020290398
0.1168448,0.0026183487308778846,0.0038780682304284404,0.0024492560497596455,0.002080129285806393,0.002954400383180094,0.009839669836836887,0.008017398414654061
0.1173103,0.0026179117250656803,0.003844048742633089,0.0024296158669388328,0.0020933342505746575,0.0029562527535341096,0.00980391837210401,0.008271600324753756
0.1177759,0.0026175395360190042,0.003810199191939904,0.0024100482839634445,0.0021066742716380625,0.002958149011924356,0.00976797504031325,0.008530271704795377
0.1182414,0.00261723266986411,0.003776525370007995,0.0023905578340977732,0.0021201493906557066,0.0029600895558633106,0.0097318464162932,0.008793414369340056
0.1187069,0.002616991587301587,0.00374303299389699,0.002371149045324778,0.0021337596187490605,0.0029620747554751784,0.009695538966228106,0.009061028982551837
0.1191724,0.0026168167039301036,0.003709727706466169,0.002351826439265046,0.002147504936044857,0.002964104953454229,0.009659059047717095,0.009333115047672926
0.1196379,0.0026167083905885625,0.003676615076795053,0.002332594530094548,0.0021613852912201292,0.002966180465030292,0.00962241290986015,0.009609670896732361
0.1201034,0.002616666973716445,0.0036437006006247137,0.002313457823461547,0.0021754006010498922,0.0029683015779414725,0.009585606693370545,0.009890693680494021
0.120569,0.002616692735732126,0.00361098970081904,0.0022944208154030226,0.0021895507499579614,0.0029704685524141153,0.009548646430713497,0.010176179358649905
0.1210345,0.0026167859154289583,0.003578487727845171,0.002275487991260974,0.0022038355895714432,0.0029726816211500602,0.009511538046270827,0.010466122690264673
0.1215,0.002616946708388907,0.0035461999602722934,0.0022566638245989866,0.00221825493827941,0.0029749409893212054,0.009474287356531493,0.010760517224477545
0.1219655,0.0026171752674135403,0.0035141316052879875,0.0022379527761194587,0.0022328085807962698,0.0029772468345713693,0.009436900070307844,0.01105935529146772
0.122431,0.0026174717029721377,0.003482287799231281,0.0022193592925818834,0.002247496267730345,0.002979599307025422,0.009399381788977566,0.01136262799368957
0.1228966,0.0026178360836666852,0.003450673608141577,0.0022008878057226057,0.002262317715158149,0.0029819985293056506,0.009361738006751217,0.011670325197383785
0.1233621,0.002618268436713493,0.00341929402832258,0.0021825427311764735,0.002277272604204842,0.002984444596555293,0.00932397411096538,0.01198243552437076
0.1238276,0.002618768748441151,0.003388153986920345,0.0021643284674008126,0.0022923605806313492,0.0029869375764691505,0.009286095382401422,0.012298946344132448
0.1242931,0.002619336964804522,0.0033572583425145307,0.002146249394602174,0.002307581254428612,0.002989477509331211,0.009248106995629935,0.012619843766188937
0.1247586,0.0026199729919144654,0.0033266118857219534,0.0021283098736663074,0.0023229341994194293,0.0029920644080591963,0.009210014019380888,0.012945112632776139
0.1252241,0.0026206766965829738,0.0032962193398114884,0.002110514245091814,0.002338418952868353,0.0029946982582559796,0.009171821416939608,0.013274736511830991
0.1256897,0.0026214479068834007,0.0032660853613293924,0.00209286682792795,0.0023540350151000805,0.0029973790182678526,0.009133534046568683,0.013608697690290682
0.1261552,0.002622286412725467,0.003236214540734116,0.002075371918717041,0.0023697818491267924,0.003000106619249655,0.00909515666195598,0.013946977167712434
0.1266207,0.0026231919664447315,0.0032066114030396757,0.0020580337904419783,0.002385658880284881,0.0030028809652367836,0.009056693912688967,0.014289554650220498
0.1270862,0.0026241642834062264,0.0031772804084666713,0.0020408566914792586,0.002401665495881523,0.003005701933224122,0.009018150344755643,0.014636408544786992
0.1275517,0.0026252030426219247,0.003148225953100042,0.0020238448445580345,0.0024178010448515537,0.00300856937325193,0.008979530401072336,0.014987515953853248
0.1280172,0.0026263078873817237,0.0031194523695526498,0.0020070024457256364,0.0024340648374251207,0.0030114831084987444,0.00894083842203862,0.015342852670298338
0.1284828,0.0026274784258975958,0.0030909639276337757,0.0019903336633200065,0.0024504561448065705,0.0030144429353813613,0.008902078646119591,0.015702393172761408
0.1289483,0.0026287142319605535,0.0030627648350216147,0.0019738426369494827,0.0024669741988650354,0.0030174486236619704,0.008863255210455667,0.016066110621324358
0.1294138,0.002630014845610066,0.0030348592379388487,0.0019575334764803673,0.002483618191837171,0.0030204999165625475,0.008824372151500108,0.016433976853561353
0.1298793,0.0026313797738155655,0.0030072512218303907,0.0019414102610326926,0.002500387276042472,0.0030235965308866145,0.008785433405684401,0.01680596238096154
0.1303448,0.0026328084911696826,0.0029799448120423964,0.0019254770379845936,0.0025172805636115903,0.0030267381571484737,0.008746442810111643,0.01718203638573125
0.1308103,0.00263430044059285,0.0029529439745016434,0.0019097378219856786,0.0025342971262280667,0.0030299244597100164,0.00870740410327797,0.017562166717981827
0.1312759,0.0026358550340489077,0.0029262526163943976,0.0018941965939797793,0.00255143599488387,0.003033155076925193,0.008668320925822126,0.017946319893309092
0.1317414,0.002637471653271339,0.002899874586843873,0.0018788573002374513,0.002568696159649139,0.0030364296212922266,0.008629196821303208,0.018334461090770273
0.1322069,0.002639149650499757,0.002873813677585383,0.0018637238513985726,0.002586076569456494,0.003039747679613649,0.008590035237006709,0.01872655415126413
0.1326724,0.0026408883492262548,0.0028480736236382847,0.001848800121525378,0.002603576131900297,0.0030431088131642483,0.008550839524778916,0.01912256157631989
0.1331379,0.0026426870449512314,0.0028226581039738114,0.001834089947166252,0.002621193713051216,0.003046512557867048,0.00851161294188981,0.01952244452730041
0.1336034,0.0026445450059482865,0.0027975707421778653,0.001819597126430594,0.0026389281372864466,0.003049958424477436,0.008472358651924552,0.01992616282502493
0.134069,0.002646461474037771,0.002772815107107845,0.001805325418075056,0.002656778187135922,0.0030534458987755693,0.008433079725703731,0.020333674949816596
0.1345345,0.0026484356653685703,0.0027483947135425717,0.001791278540601448,0.002674742603144845,0.0030569744417671715,0.008393779142232535,0.020744938041979938
0.135,0.002650466771207675,0.0027243130228243886,0.0017774601713665967,0.002692820083752859,0.0030605434898928405,0.008354459789679036,0.02115990790271322
0.1354655,0.0026525539587370917,0.002700573443492486,0.0017638739457044436,0.00271100928519017,0.0030641524552459842,0.00831512446638177,0.021578538995460576
0.135931,0.002654696371857628,0.002677179331906545,0.0017505234560606633,0.002729308821390941,0.003067800725799491,0.008275775881886787,0.022000784447708727
0.1363966,0.002656893131999066,0.002654133992859764,0.0017374122511400723,0.0027477172639242724,0.003071487665641259,0.00823641665801431,0.022426596053232915
0.1368621,0.0026591433389362403,0.0026314406801803795,0.0017245438350670845,0.0027662331419430787,0.003075212615218702,0.00819704932995517,0.02285592427479664
0.1373276,0.0026614460716105084,0.0026091025973207483,0.0017119216665594718,0.0027848549421511716,0.003078974891592342,0.008157676347397072,0.023288718247309576
0.1377931,0.002663800388956102,0.002587122897933074,0.0016995491581156654,0.0028035811087888394,0.0030827737886986195,0.008118300075680743,0.023724925781448053
0.1382586,0.0026662053307308087,0.0025655046864308476,0.0016874296752158232,0.002822410043637224,0.0030866085776220355,0.008078922796985922,0.024164493367742238
0.1387241,0.002668659918350429,0.00254425101853508,0.0016755665355368855,0.002841340106041756,0.0030904785068767548,0.008039546711547094,0.02460736618113404
0.1391897,0.002671163155726437,0.0025233649018044494,0.0016639630081818255,0.002860369612954918,0.0030943828026977886,0.008000173938898816,0.02505348808600963
0.1396552,0.0026737140301062406,0.00250284929614855,0.0016526223129232924,0.002879496838998582,0.0030983206693418843,0.007960806519150385,0.02550280164171026
0.1401207,0.002676311512915444,0.0024827071143235283,0.0016415476194618437,0.0028987200165461447,0.0031022912893982463,0.007921446414289577,0.025955248108524953
0.1405862,0.00267895456060147,0.0024629412224095168,0.001630742046698944,0.0029180373358246737,0.0031062938241092145,0.007882095509515068,0.026410767454168413
0.1410517,0.0026816421154779303,0.0024435544402693745,0.0016202086620249055,0.0029374469450372557,0.003110327413701026,0.007842755614597127,0.026869298360747335
0.1415172,0.0026843731065690855,0.002424549541988344,0.0016099504806219326,0.0029569469505057273,0.003114391177724777,0.00780342846526607,0.027330778232218144
0.1419828,0.002687146450453739,0.002405929256294292,0.0015999704647824257,0.0029765354168339447,0.0031184842154076743,0.007764115724627924,0.027795143202338907
0.1424483,0.0026899610521078847,0.0023876962669582514,0.0015902715232426954,0.0029962103670917364,0.0031226056060146513,0.007724818984606687,0.028262328143118028
0.1429138,0.0026928158057454164,0.002369853213175034,0.0015808565105322326,0.003015969783019646,0.0031267544092203913,0.007685539767412474,0.028732266673762073
0.1433793,0.00269570959565619,0.002352402689923727,0.0015717282263386734,0.0030358116052545837,0.0031309296654917877,0.007646279527034834,0.02920489117012475
0.1438448,0.002698641297040706,0.0023353472483079616,0.0015628894148886048,0.0030557337335764575,0.003135130396480849,0.0076070396507604025,0.029680132774658984
0.1443103,0.002701609776840665,0.002318689395875862,0.001554342764344347,0.003075734027175852,0.0031393556054280266,0.00756782146071405,0.030157921406873667
0.1447759,0.0027046138945646322,0.0023024315969196155,0.0015460909062168485,0.003095810304942806,0.00314360427757592,0.007528626215422588,0.030638185774296518
0.1452414,0.002707652503108057,0.0022865762727546247,0.00153813641479483,0.00311596034577672,0.003147875380593295,0.007489455111400052,0.031120853383944158
0.1457069,0.0027107244495668636,0.0022711258019782053,0.001530481806590306,0.0031361818889173968,0.0031521678650093315,0.007450309284753566,0.03160585055430047
0.1461724,0.002713828576043868,0.0022560825207078175,0.001523129539800608,0.003156472634297213,0.003156480664657982,0.007411189812808658,0.03209310242780407
0.1466379,0.0027169637204472515,0.002241448722798839,0.0015160820137870398,0.0031768302429143903,0.003160812697132291,0.007372097715752946,0.03258253298384542
0.1471034,0.0027201287172803528,0.0022272266600419028,0.0015093415685702878,0.003197252337227343,0.0031651628642485274,0.007333033958296972,0.03307406505227426
0.147569,0.002723322398422044,0.0022134185423398284,0.0015029104843427186,0.0032177365015700335,0.0031695300525199427,0.007293999451350991,0.03356762032741742
0.1480345,0.0027265435938969673,0.0022000265378641867,0.0014967909809976815,0.003238280282588264,0.0031739131336399546,0.00725499505371642,0.03406311938260731
0.1485,0.002729791132634936,0.0021870527731915365,0.0014909852176759296,0.003258881189696807,0.0031783109649745423,0.007216021573790646,0.03456048168522104
0.1489655,0.002733063843218815,0.002174499333419385,0.0014854952923292696,0.0032795366955572364,0.0031827223900636223,0.007177079771283815,0.03505962561222976
0.149431,0.002736360554620222,0.0021623682622619418,0.001480323241301534,0.0033002442365763275,0.0031871462391311616,0.0071381703589462305,0.03556046846625796
0.1498966,0.0027396800969224024,0.002150661562125763,0.0014754710389269655,0.0033210012134248434,0.003191581329603757,0.007099294004304868,0.03606292649215185
0.1503621,0.002743021302029676,0.002139381194165398,0.0014709405971461051,0.0033418049915765226,0.0031960264666374043,0.0070604513314075626,0.03656691489405592
0.1508276,0.002746383004362865,0.002128529078319182,0.0014667337651392703,0.0033626529018670665,0.003200480443652174,0.007021642922573328,0.03707234785299642
0.1512931,0.0027497640415401585,0.0021181070933253103,0.0014628523289777148,0.003383542241072908,0.0032049420428744836,0.006982869320147291,0.03757913854497007
0.1517586,0.002753163255042875,0.0021081170767183457,0.0014592980112925734,0.003404470272509511,0.0032094100358866606,0.006944131028258657,0.03808719915953611
0.1522241,0.002756579490865597,0.002098560824806289,0.0014560724709616899,0.0034254342266489502,0.0032138831841834613,0.006905428514580152,0.038596440918909555
0.1526897,0.0027600116001501632,0.0020894400926283643,0.00145317730281443,0.0034464313017564976,0.003218360239735202,0.006866762212087347,0.03910677409755299
0.1531552,0.0027634584398029804,0.002080756593893658,0.001450614037354589,0.0034674586645459266,0.0032228399455571446,0.006828132520816262,0.03961810804226418
0.1536207,0.002766918873095139,0.0020725120009007737,0.001448384140501498,0.0034885134508532076,0.0032273210362847625,0.006789539809617632,0.04013035119275625
0.1540862,0.002770391770244809,0.0020647079444386755,0.0014464890133494372,0.0035095927663282623,0.0032318022387545172,0.006750984417906268,0.04064341110272697
0.1545517,0.0027738760089814694,0.002057346013668904,0.0014449299919454804,0.003530693687144414,0.0032362822725897503,0.006712466657403909,0.041157194461413325
0.1550172,0.0027773704750915598,0.002050427755989386,0.0014437083470858752,0.0035518132607251433,0.0032407598507912827,0.006673986813873985,0.04167160711562744
0.1554828,0.002780874062945238,0.0020439546768800955,0.001442825284131071,0.0035729485064877366,0.003245233680332291,0.006635545148846729,0.04218655409226948
0.1559483,0.002784385676004055,0.002037928239730881,0.0014422819428394963,0.0035940964166033874,0.0032497024627570047,0.00659714190133312,0.0427019396213128
0.1564138,0.002787904227309432,0.0020323498656518537,0.0014420793972201816,0.003615253956773294,0.003254164894782773,0.006558777289526185,0.043217667159256415
0.1568793,0.002791428639951968,0.0020272209332667756,0.0014422186554043188,0.003636418067020252,0.003258619668905037,0.006520451512488207,0.04373363941303949
0.1573448,0.002794957847521685,0.0020225427784899405,0.0014427006595358483,0.0036575856624952376,0.003263065474004759,0.006482164751822409,0.04424975836441218
0.1578103,0.0027984907945393903,0.002018316694287078,0.0014435262856811598,0.0036787536342984374,0.0032675009959578748,0.006443917173327648,0.04476592529475689
0.1582759,0.0028020264368694096,0.0020145439304208464,0.0014446963437579853,0.0036999188503141545,0.0032719249182463716,0.006405708928634659,0.045282040810353696
0.1587414,0.0028055637421139507,0.00201122569318152,0.0014462115774835557,0.0037210781560589874,0.003276335922570591,0.00636754015682241,0.045798004868083365
0.1592069,0.002809101689989373,0.002008363145103501,0.0014480726643420806,0.0037422283755426645,0.003280732689462377,0.006329410986013152,0.04631371680156114
0.1596724,0.0028126392726846227,0.00200595740466828,0.0014502802155716011,0.003763366312140886,0.003285113898898665,0.006291321534944937,0.04682907534769405
0.1601379,0.0028161754952020696,0.0020040095459944924,0.0014528347761702612,0.0037844887494794784,0.0032894782309151353,0.0062532719145204614,0.047343978673654315
0.1606034,0.0028197093756809908,0.0020025205985156765,0.0014557368249220222,0.003805592452329185,0.0032938243662195437,0.006215262229331267,0.04785832440426094
0.161069,0.0028232399457038928,0.0020014915466463725,0.0014589867744418475,0.003826674167510364,0.00329815098680432,0.00617729257915639,0.04837200964976143
0.1615345,0.002826766250585878,0.0020009233294371936,0.0014625849712403681,0.003847730624806893,0.003302456776558023,0.0061393630604346175,0.048884931034005215
0.162,0.0028302873496472303,0.0020008168402195123,0.001466531695808035,0.003868758537888561,0.003306740421875238,0.006101473767709519,0.049396984722999804
0.1624655,0.0028338023164693983,0.0020011729262404206,0.0014708271627187563,0.003889754605241222,0.0033110006122644836,0.006063624795046487,0.04990806645384077
0.162931,0.0028373102391345446,0.0020019923882886297,0.001475471520753012,0.003910715511103983,0.003315236040953699,0.006025816237421032,0.05041807156400586
0.1633966,0.002840810220448838,0.002003275980311996,0.0014804648530404429,0.003931637926412681,0.003319445405492891,0.005988048192077631,0.050926895021003574
0.1638621,0.002844301378149662,0.002005024409027361,0.0014858071772219043,0.0039525185097489006,0.0033236274083535125,0.005950320759858412,0.051434431452366244
0.1643276,0.0028477828450969387,0.0020072383335234,0.0014914984456309754,0.003973353908293784,0.003327780757524137,0.00591263404650099,0.05194057517597719
0.1647931,0.002851253769448776,0.002009918364857179,0.0014975385454949108,0.003994140758785875,0.0033319041671020077,0.0058749881639047,0.05244522023072148
0.1652586,0.0028547133148216575,0.002013065065645104,0.001503927299155013,0.00401487568848227,0.003335996357880014,0.005837383231364474,0.05294826040744961
0.1657241,0.002858160660435415,0.002016678949648966,0.001510664464306401,0.004035555316122348,0.003340056057928627,0.0057998193767715605,0.05344958928024309
0.1661897,0.002861595001243249,0.002020760481357766,0.001517749734257135,0.004056176252893362,0.0033440820031723187,0.005762296737780223,0.05394910023797069
0.1666552,0.0028650155480471062,0.0020253100755660094,0.0015251827382066587,0.0040767351033971855,0.00334807293795999,0.0057248154629395785,0.05444668651612398
0.1671207,0.0028684215275987346,0.0020303280969491523,0.0015329630415435002,0.004097228466617462,0.0033520276156288986,0.005687375712789649,0.05494224122892007
0.1675862,0.0028718121826867963,0.0020358148596368807,0.0015410901461621724,0.004117652936886455,0.0033559447990616016,0.005649977660920752,0.05543565740165961
0.1680517,0.002875186772210431,0.002041770626784889,0.0015495634907992002,0.004138005104850843,0.00335982326123543,0.005612621494995328,0.05592682800332734
0.1685172,0.002878544571239692,0.002048195610145826,0.001558382451388195,0.004158281558435746,0.0033636617857640237,0.005575307417731481,0.05641564597942298
0.1689828,0.0028818848710632813,0.0020550899696400796,0.0015675463414338883,0.004178478883806254,0.0033674591674304464,0.005538035647847602,0.05690200428500983
0.1694483,0.002885206979224028,0.0020624538129270643,0.0015770544124050268,0.004198593666325725,0.0033712142127114327,0.005500806420967627,0.057385795917968926
0.1699138,0.002888510219542556,0.002070287194977686,0.001586905854146011,0.004218622491510173,0.0033749257402923213,0.005463619990486664,0.05786691395244693
0.1703793,0.002891793932129596,0.0020785901176486434,0.0015970997953071663,0.004238561945978039,0.0033785925815722176,0.005426476628396945,0.05834525157248615
0.1708448,0.00289505747338737,0.0020873625292592225,0.0016076353037935201,0.004258408618394752,0.0033822135811589237,0.005389376626074255,0.05882070210582516
0.1713103,0.002898300216000482,0.0020966043241712213,0.0016185113872319555,0.004278159100411541,0.0033857875973531655,0.005352320295025286,0.059293159057858584
0.1717759,0.0029015215489167066,0.0021063153423726247,0.0016297269934566075,0.004297809987598078,0.0033893135026216194,0.005315307967596522,0.05976251614574439
0.1722414,0.002904720877318063,0.0021164953690656434,0.0016412810110123682,0.004317357880368661,0.003392790184058243,0.005278339997645386,0.06022866733264663
0.1727069,0.0029078976225825537,0.002127144134259707,0.0016531722696763508,0.0043367993849017196,0.0033962165438334107,0.005241416761174411,0.06069150686210143
0.1731724,0.0029110512222369103,0.0021382613123699973,0.0016653995409971678,0.004356131114052547,0.003399591499630373,0.005204538656929184,0.06115092929249309
0.1736379,0.002914181129900698,0.002149846521822092,0.0016779615388518567,0.004375349688259261,0.003402913985068573,0.005167706106960806,0.06160682953162737
0.1741034,0.0029172868152220793,0.0021618993246632985,0.0016908569200202869,0.004394451736442078,0.003406182950113332,0.00513091955715361,0.06205910287138831
0.174569,0.0029203677638055506,0.0021744192261812217,0.0017040842847768634,0.004413433896896026,0.003409397361471428,0.005094179477718855,0.06250764502246493
0.1750345,0.0029234234771319135,0.0021874056745301252,0.0017176421774993491,0.004432292818177254,0.003412556202972105,0.00505748636365512,0.06295235214913408
0.1755,0.0029264534724707464,0.0022008580603656287,0.0017315290872946098,0.004451025159983114,0.003415658475933052,0.005020840735176156,0.06339312090408543
0.1759655,0.002929457282785626,0.002214775716488253,0.0017457434486411,0.004469627594026151,0.0034187031995109394,0.004984243138106998,0.06382984846327466
0.176431,0.0029324344566323533,0.0022291579174963426,0.001760283642047895,0.004488096804902158,0.003421689411036144,0.004947694144249238,0.06426243256079063
0.1768966,0.002935384558050451,0.002244003879448872,0.0017751479947300819,0.004506429490952417,0.0034246161663313433,0.004911194351716396,0.06469077152372195
0.1773621,0.002938307166448199,0.002259312759538642,0.0017903347813003185,0.004524622365120254,0.003427482540013722,0.004874744385240418,0.06511476430700842
0.1778276,0.002941201876481522,0.002275083655776386,0.0018058422244763633,0.004542672155802053,0.003430287625780547,0.004838344896450282,0.06553431052826235
0.1782931,0.0029440682979270435,0.0022913156066862875,0.0018216684958043835,0.0045605756076928594,0.003433030536677926,0.004801996564123698,0.0659493105025449
0.1787586,0.00294690605554965,0.0023080075910134,0.0018378117163978423,0.004578329482626758,0.003435710405352608,0.004765700094412856,0.06635966527708265
0.1792241,0.0029497147889649203,0.00232515852744345,0.001854269957691767,0.004595930560412189,0.0034383263842867468,0.004729456221045155,0.06676527666590952
0.1796897,0.0029524941524967686,0.002342767274335496,0.0018710412422121966,0.004613375639662369,0.0034408776460156257,0.0046932657054997665,0.06716604728442027
0.1801552,0.0029552438150306512,0.0023608326294679034,0.0018881235443606128,0.004630661538620989,0.003443363383328374,0.004657129337160894,0.06756188058382134
0.1806207,0.0029579634598626606,0.0023793533297980806,0.001905514791213153,0.004647785095983316,0.0034457828094517336,0.004621047933448523,0.06795268088546591
0.1810862,0.0029606527845448026,0.00239832805123643,0.0019232128633344015,0.00466474317171283,0.0034481351582169397,0.004585022339927412,0.0683383534150605
0.1815517,0.0029633115007267523,0.0024177554084349458,0.0019412155956055586,0.004681532647853519,0.0034504196842097953,0.004549053430395061,0.06871880433673073
0.1820172,0.0029659393339943572,0.002437633954590886,0.0019595207780667774,0.004698150429337922,0.0034526356629040254,0.0045131421069493265,0.06909394078693397
0.1824828,0.002968536023705146,0.0024579621812659304,0.0019781261567734638,0.00471459344479105,0.0034547823907780245,0.004477289300036333,0.06946367090820671
0.1829483,0.0029711013228210987,0.002478738518221222,0.001997029434666333,0.004730858647330237,0.003456859185415168,0.004441495968479272,0.06982790388273438
0.1834138,0.002973634997738905,0.0024999613332686863,0.0020162282724550075,0.004746943015361007,0.003458865385587899,0.004405763099488661,0.07018654996573052
0.1838793,0.002976136828117941,0.002521628932138997,0.00203572028951494,0.004762843553368983,0.0034608003513258993,0.0043700917086546024,0.0705395205186122
0.1843448,0.00297860660670618,0.0025437395583665567,0.002055503064797427,0.004778557292707853,0.0034626634639687115,0.004334482839921518,0.07088672804195802
0.1848103,0.0029810441391642565,0.0025662913931918576,0.0020755741377524828,0.004794081292383352,0.0034644541262032593,0.004298937565545847,0.0712280862082346
0.1852759,0.0029834492438878873,0.0025892825554815996,0.0020959310092643277,0.0048094126398332,0.0034661717620867558,0.0042634569860371205,0.07156350989427701
0.1857414,0.0029858217518288458,0.002612711101666932,0.00211657114259924,0.004824548451702912,0.0034678158170555334,0.004228042230082841,0.07189291521350805
0.1862069,0.002988161506314665,0.0026365750257002028,0.0021374919643655102,0.004839485874617353,0.0034693857579203083,0.004192694454457533,0.07221621954788117
0.1866724,0.0029904683628672506,0.0026608722590305933,0.0021586908654852334,0.0048542220859479025,0.003470881072848417,0.004157414843916321,0.07253334157953083
0.1871379,0.002992742189020544,0.0026856006705990075,0.0021801652021776834,0.004868754294575051,0.003472301271333514,0.00412220461107339,0.07284420132211392
0.1876034,0.0029949828641373834,0.002710758066852578,0.0022019122969539917,0.004883079741646236,0.003473645884153228,0.004087064996265603,0.07314872015182525
0.188069,0.00299719027922568,0.002736342191779157,0.002223929439622868,0.00489719570132867,0.0034749144633152746,0.00405199726740161,0.07344682083806973
0.1885345,0.0029993643367540192,0.002762350726962137,0.00224621388830709,0.004911099481556926,0.0034761065819925115,0.0040170027197966975,0.07373842757377334
0.189,0.003001504950466771,0.0027887812916559855,0.0022687628704704957,0.0049247884247749785,0.003477221834447433,0.0039820826759936435,0.07402346600531443
0.1894655,0.003003612045198786,0.0028156314428828344,0.002291573583955201,0.00493825990867241,0.0034782598359465694,0.00394723848556983,0.0743018632620568
0.189931,0.0030056855566897144,0.0028428986755504914,0.0023146431980287678,0.004951511346914477,0.0034792202226652676,0.003912471524930822,0.07457354798546514
0.1903966,0.003007725431397982,0.002870580422592226,0.0023379688544410363,0.004964540189865708,0.003480102651583286,0.0038777831970906256,0.07483845035778335
0.1908621,0.0030097316263144147,0.002898674055128647,0.0023615476684903185,0.004977343925306732,0.003480906800371633,0.003843174931438813,0.0750965021302558
0.1913276,0.0030117041087755056,0.0029271768826519854,0.0023853767300986537,0.0049899200791440204,0.003481632367271056,0.003808648183494678,0.07534763665087178
0.1917931,0.003013642856276313,0.002956086153233079,0.002409453104895795,0.005002266216112294,0.003482279070962583,0.003774204434648578,0.07559178889161274
0.1922586,0.003015547856282979,0.002985399053751336,0.0024337738353115883,0.005014379940469332,0.003482846650430489,0.003739845191890611,0.0758288954751816
0.1927241,0.0030174191060448716,0.0030151127101479534,0.0024583359416763826,0.0050262588966830096,0.0034833348648180555,0.003705571987526788,0.07605889470119381
0.1931897,0.003019256612406357,0.003045224187702655,0.0024831364233291,0.005037900770110354,0.0034837434932764636,0.0036713863788828843,0.0762817265718091
0.1936552,0.003021060391618224,0.003075730491334171,0.0025081722597325978,0.005049303287668457,0.0034840723348071446,0.003637289947996146,0.07649733281678368
0.1941207,0.0030228304691487674,0.0031066285659246884,0.0025334404115959315,0.005060464218497093,0.003484321208097928,0.003603284301295054,0.07670565691792391
0.1945862,0.003024566879494534,0.003137915296668475,0.0025589378220031525,0.005071381374612853,0.003484489951353318,0.0035693710692672963,0.07690664413292325
0.1950517,0.00302626966599071,0.0031695875094448446,0.0025846614175482592,0.00508205261155464,0.0034845784221192396,0.003535551906116124,0.07710024151856648
0.1955172,0.003027938880621142,0.0032016419712156277,0.0026106081094759283,0.005092475829020317,0.003484586497102586,0.003501828489405234,0.07728639795328633
0.1959828,0.003029574583827989,0.0032340753904472955,0.0026367747948276414,0.005102648971494309,0.0034845140719859304,0.0034682025196923387,0.07746506415905896
0.1964483,0.003031176844321027,0.0032668844175578467,0.002663158357592811,0.005112570028865963,0.00348436106123776,0.0034346757201515945,0.07763619272262523
0.1969138,0.0030327457388866644,0.0033000656453885755,0.0026897556698644988,0.005122237037038461,0.003484127397918591,0.0034012498361850807,0.07779973811602492
0.1973793,0.0030342813521967655,0.003333615609700808,0.002716563592999293,0.0051316480785281605,0.0034838130334833226,0.0033679266350235184,0.07795565671643069
0.1978448,0.003035783776617379,0.0033675307896977023,0.0027435789787809083,0.005140801283054225,0.003483417937580178,0.00333470790531642,0.07810390682526842
0.1983103,0.0030372531120174723,0.003401807608571205,0.002770798670587052,0.005149694828118475,0.0034829420978465474,0.0033015954567118576,0.07824444868661039
0.1987759,0.0030386894655777714,0.003436442434074252,0.002798219504559064,0.005158326939575374,0.0034823855197020533,0.0032685911194260384,0.0783772445048276
0.1992414,0.0030400929515997845,0.0034714315791183107,0.002825838310773848,0.005166695892192114,0.0034817482261391094,0.0032356967438028797,0.07850225846148749
0.1997069,0.003041463691315083,0.0035067713023963602,0.0028536519144175803,0.005174800010198707,0.0034810302575112493,0.003202914199863792,0.07861945673148399
0.2001724,0.0030428018126949057,0.0035424578090313937,0.0028816571369606955,0.005182637667828001,0.0034802316713194595,0.003170245376847899,0.07872880749838697
0.2006379,0.0030441074502601515,0.003578487251250529,0.002909850797333627,0.005190207289845526,0.0034793525419967424,0.0031376921827429415,0.07883028096899947
0.2011034,0.0030453807448918135,0.0036148557290847953,0.0029382297131027883,0.005197507352069001,0.003478392960691114,0.0031052565438071202,0.07892384938711158
0.201569,0.0030466218436419022,0.003651559291094646,0.002966790701646261,0.005204536381877385,0.0034773530350471994,0.0030729404040821923,0.0790094870464414
0.2020345,0.0030478308995448983,0.0036885939351212413,0.002995530581328661,0.005211292958709258,0.0034762328889865837,0.003040745724898153,0.07908717030275413
0.2025,0.0030490080714297664,0.0037259556090634936,0.003024446172674662,0.005217775714550374,0.0034750326624870343,0.0030086744843699337,0.07915687758515173
0.2029655,0.0030501535237325607,0.003763640211680891,0.003053534299540636,0.005223983334410135,0.0034737525113606926,0.002976728676886601,0.07921858940652574
0.203431,0.0030512674263096394,0.0038016435934220376,0.00308279179028387,0.00522991455678678,0.0034723926070313435,0.002944910312593578,0.07927228837316591
0.2038966,0.0030523499542515074,0.003839961557278841,0.0031122154789288035,0.005235568174121045,0.0034709531363108555,0.0029132214168684414,0.07931795919351785
0.2043621,0.003053401287697292,0.0038785898596662453,0.0031418022063297267,0.005240943033238096,0.0034694343011749213,0.0028816640297908355,0.07935558868608146
0.2048276,0.003054421611649848,0.003917524211327373,0.0031715488213293697,0.0052460380357775525,0.0034678363185382203,0.0028502402056070388,0.07938516578644245
0.2052931,0.0030554111157914906,0.0039567602782639,0.003201452181912817,0.0052508521386114455,0.003466159420029177,0.002818952012189699,0.07940668155342819
0.2057586,0.0030563699943003493,0.003996293682691482,0.003231509156356185,0.005255384354249963,0.003464403851764493,0.00278780153049324,0.0794201291743795
0.2062241,0.0030572984456673376,0.004036120004019999,0.003261716624369504,0.005259633751234862,0.0034625698741236406,0.002756790854005425,0.07942550396953023
0.2066897,0.003058196672513734,0.0040762347798583625,0.003292071478233248,0.00526359945452043,0.0034606577615235025,0.0027259220881955338,0.0794228033954874
0.2071552,0.0030590648814093906,0.004116633507043594,0.0033225706239279466,0.005267280645841859,0.003458667802193336,0.0026951973499596007,0.07941202704780666
0.2076207,0.003059903282691597,0.004157311642693867,0.003353210982256301,0.005270676564070922,0.0034566002979502237,0.002664618767063134,0.07939317666265885
0.2080862,0.0030607120902846575,0.0041982646052851486,0.003383989489957198,0.005273786505558794,0.003454455563975176,0.002634188477581734,0.07936625611758613
0.2085517,0.003061491521520265,0.004239487775751064,0.0034149031008110175,0.0052766098244658765,0.0034522339285900506,0.002603908629340008,0.07933127143134704
0.2090172,0.0030622417969587597,0.0042809764986055775,0.0034459487867355833,0.005279145933078436,0.003449935733035423,0.0025737813793491747,0.07928823076285162
0.2094828,0.0030629631402113856,0.004322726083088015,0.003477123538872103,0.005281394302111892,0.003447561331249548,0.002543808893243723,0.07923714440918757
0.2099483,0.0030636557777636514,0.004364731804329954,0.003508424368660411,0.005283354461000529,0.0034451110896485137,0.002513993344717493,0.07917802480273892
0.2104138,0.003064319938799896,0.004406988904543476,0.0035398483089028165,0.005285025998173444,0.0034425853869076727,0.002484336914959533,0.07911088650739907
0.2108793,0.003064955855029158,0.0044494925942302225,0.003571392414815843,0.0052864085613164875,0.0034399846137443944,0.0024548417920900803,0.07903574621388015
0.2113448,0.0030655637605124706,0.004492238053410704,0.003603053765069096,0.005287501857619986,0.003437309172702164,0.0024255101705969928,0.07895262273412089
0.2118103,0.003066143891491728,0.0045352204328732776,0.003634829462810496,0.0052883056540119966,0.0034345594779360243,0.0023963442507729557,0.07886153699479596
0.2122759,0.0030666964862202987,0.004578434855442192,0.003666716636677098,0.005288819777376833,0.003431735954999337,0.0023673462381537764,0.07876251202992998
0.2127414,0.003067221784795595,0.004621876417264086,0.003698712441790662,0.005289044114758571,0.0034288390406318264,0.002338518342958063,0.0786555729726193
0.2132069,0.0030677200289938125,0.004665540189112284,0.0037308140607371434,0.005288978613549174,0.003425869182548885,0.002309862779528572,0.0785407470458653
0.2136724,0.0030681914621070575,0.004709421217708214,0.0037630187045292417,0.0052886232816608866,0.0034228268392321286,0.0022813817657754954,0.07841806355252272
0.2141379,0.003068636328783079,0.004753514527059217,0.0037953236135511203,0.005287978187682488,0.0034197124797212437,0.0022530775226219392,0.07828755386436667
0.2146034,0.0030690548748677983,0.004797815119811994,0.0038277260584843953,0.005287043461018979,0.0034165265834072028,0.0022249522734518307,0.07814925141028237
0.215069,0.0030694473472508373,0.004842317978620899,0.0038602233412144624,0.005285819292014223,0.003413269639826966,0.0021970082435604707,0.07800319166358138
0.2155345,0.0030698139937141975,0.004887018067530222,0.0038928127957162206,0.005284305932056069,0.0034099421484598286,0.0021692476596079347,0.07784941212844952
0.216,0.0030701550627842645,0.004931910333369614,0.003925491788918219,0.005282503693663445,0.0034065446185255546,0.0021416727490755,0.07768795232553172
0.2164655,0.0030704708035872745,0.004976989707161743,0.003958257721544248,0.005280412950554921,0.0034030775687844865,0.002114285739725271,0.07751885377666085
0.216931,0.0030707614657083685,0.005022251105541229,0.0039911080289313896,0.005278034137698241,0.003399541527339792,0.0020870888590631504,0.07734215998873833
0.2173966,0.003071027299054343,0.005067689432183888,0.004024040181823509,0.0052753677513403706,0.003395937031442033,0.0020600843338053044,0.0771579164367753
0.2178621,0.0030712685537201945,0.005113299579245265,0.0040570516871391874,0.005272414349017618,0.0033922646272962083,0.0020332743893482544,0.0769661705461035
0.2183276,0.003071485479859539,0.005159076428807401,0.0040901400887130785,0.005269174549545406,0.00338852486987143,0.0020066612492427188,0.07676697167376585
0.2187931,0.0030716783275589587,0.00520501485433277,0.004123302968009671,0.0052656490329873375,0.003384718322713354,0.0019802471346713297,0.07656037108909608
0.2192586,0.003071847346716345,0.005251109722124243,0.0041565379448084624,0.00526183854060319,0.0033808455577594766,0.001954034263930333,0.07634642195349672
0.2197241,0.003071992786923252,0.005297355892789966,0.0041898426778595255,0.00525774387477549,0.00337690715515737,0.0019280248519153846,0.07612517929942515
0.2201897,0.003072114897351278,0.005343748222711958,0.004223214865508487,0.0052533658989143235,0.0033729037030859133,0.0019022211096115463,0.07589670000859709
0.2206552,0.003072213926642481,0.005390281565517186,0.004256652246289934,0.005248705537340046,0.0033688357975795533,0.001876625243587595,0.07566104278941722
0.2211207,0.003072290122803856,0.005436950773549887,0.004290152599488275,0.005243763775143532,0.0033647040423556225,0.0018512394554947337,0.07541826815364698
0.2215862,0.003072343733105887,0.00548375069934382,0.0043237137456650695,0.005238541658023593,0.0033605090486447295,0.0018260659415698106,0.07516843839231963
0.2220517,0.0030723750039852366,0.0055306761970931595,0.00435733354715186,0.005233040292101208,0.0033562514350242404,0.0018011068921431395,0.0749116175509144
0.2225172,0.003072384180951653,0.005577722124120702,0.004391009908507519,0.0052272608437102025,0.0033519318272548773,0.0017763644911510073,0.07464787140380313
0.2229828,0.0030723715084991876,0.005624883342342033,0.004424740776939139,0.00522120453916404,0.003347550858120452,0.001751840915652953,0.07437726742798534
0.2234483,0.0030723372300218207,0.005672154719724302,0.004458524142685498,0.005214872664498428,0.003343109167270745,0.0017275383353538992,0.07409987477613021
0.2239138,0.003072281587733598,0.005719531131738184,0.004492358039362139,0.00520826656518949,0.0033386074010675303,0.0017034589121312066,0.07381576424894687
0.2243793,0.0030722048225933557,0.005767007462801579,0.004526240544267121,0.005201387645847247,0.0033340462124336985,0.0016796047995667079,0.07352500826690563
0.2248448,0.0030721071742341294,0.0058145786077136,0.004560169778646572,0.005194237369884189,0.0033294262607054346,0.001655978142483773,0.0732276808413346
0.2253103,0.003071988880897323,0.005862239473077298,0.00459414390791913,0.005186817259158702,0.003324748211487377,0.0016325810764894432,0.07292385754491623
0.2257759,0.003071850179371732,0.005909984978709581,0.004628161141858427,0.00517912889359311,0.0033200127365106765,0.0016094157275216537,0.07261361548160812
0.2262414,0.003071691304937509,0.00595781005903674,0.004662219734732755,0.005171173910766134,0.0033152205134938813,0.0015864842114015618,0.07229703325601233
0.2267069,0.0030715124913151502,0.0060057096644739886,0.004696317985401074,0.005162954005479576,0.003310372226006576,0.0015637886333909788,0.0719741909422166
0.2271724,0.0030713139706195617,0.006053678762787457,0.0047304542373645675,0.005154470929299092,0.0033054685633356973,0.0015413310877548949,0.0716451700521305
0.2276379,0.0030710959733192527,0.006101712340437071,0.0047646268787729495,0.00514572649006895,0.0033005102203544547,0.0015191136573290821,0.07131005350333909
0.2281034,0.003070858728200677,0.006149805403898837,0.004798834342384795,0.005136722551400733,0.0032954978973937857,0.0014971384130927478,0.07096892558649615
0.228569,0.003070602462337728,0.006197952980965088,0.004833075105481227,0.005127461032135976,0.0032904323001162576,0.001475407413746219,0.07062187193227847
0.2290345,0.0030703274010663835,0.006246150122021407,0.004867347689732333,0.005117943905782766,0.0032853141393923437,0.001453922705293621,0.07026897947792236
0.2295,0.003070033767964481,0.006294391901298917,0.004901650661015781,0.005108173199926368,0.0032801441311789874,0.0014326863206305252,0.06991033643336295
0.2299655,0.003069721784836592,0.006342673418100887,0.004935982629187194,0.005098150995613943,0.0032749229964003698,0.0014117002791365245,0.06954603224699657
0.230431,0.0030693916717039514,0.006390989798002665,0.00497034224780188,0.005087879426713459,0.0032696514608307956,0.0013909665862727107,0.069176157571086
0.2308966,0.0030690436467993797,0.006439336194024127,0.005004728213787596,0.00507736067924686,0.003264330254979599,0.0013704872331840154,0.0688008042268278
0.2313621,0.0030686779265671794,0.006487707787773906,0.005039139267068059,0.005066596990697606,0.003258960113977954,0.0013502641963063808,0.06842006516910135
0.2318276,0.003068294725667943,0.006536099790564773,0.0050735741901369695,0.005055590649292711,0.003253541777467459,0.0013302994369787271,0.06803403445091899
0.2322931,0.0030678942569882686,0.006584507444499568,0.005108031807582385,0.005044343993259448,0.0032480759894903594,0.0013105949010596791,0.0676428071875972
0.2327586,0.0030674767316553582,0.006632926023527113,0.005142510985561363,0.0050328594100569725,0.0032425634983812733,0.0012911525185490132,0.06724647952066916
0.2332241,0.003067042359056496,0.006681350834467619,0.005177010631224844,0.00502113933558321,0.0032370050566602995,0.001271974203213785,0.06684514858155997
0.2336897,0.0030665913468634343,0.006729777218007144,0.005211529692092828,0.00500918625335752,0.0032314014209273907,0.0012530618522190885,0.06643891245504596
0.2341552,0.0030661239010616836,0.006778200549660779,0.005246067155379938,0.004997002693679843,0.0032257533517578854,0.0012344173457633969,0.06602787014251962
0.2346207,0.00306564022598473,0.006826616240704396,0.005280622047271559,0.00498459123276717,0.0032200616135990793,0.001216042546718421,0.06561212152508235
0.2350862,0.0030651405243531725,0.006875019739074862,0.005315193432150749,0.004971954491868358,0.0032143269746677094,0.0011979393002734208,0.06519176732648665
0.2355517,0.0030646249973187564,0.006923406530238855,0.00534978041177624,0.00495909513635837,0.0032085502068482452,0.0011801094335838892,0.06476690907595002
0.2360172,0.0030640938445132535,0.006971772138030502,0.005384382124411849,0.004946015874813031,0.0032027320855918763,0.0011625547554245217,0.06433764907086147
0.2364828,0.00306354726410211,0.007020112125458176,0.005418997743907727,0.004932719458065394,0.0031968733898161124,0.0011452770558463784,0.06390409033940232
0.2369483,0.003062985452842773,0.007068422095480939,0.005453626478733894,0.0049192086782447715,0.0031909749018049216,0.0011282781058381422,0.06346633660310194
0.2374138,0.0030624086061475674,0.007116697691755155,0.005488267570966567,0.004905486367799466,0.00318503740710935,0.0011115596569913704,0.0630244922393485
0.2378793,0.003061816918150991,0.007164934599351901,0.00552292029522789,0.004891555398504223,0.0031790616944486145,0.001095123441169639,0.06257866224387507
0.2383448,0.0030612105817812516,0.0072131285454458596,0.005557583957579672,0.004877418680453412,0.0031730485556117063,0.001078971170181474,0.0621289521932406
0.2388103,0.0030605897888358433,0.007261275299976452,0.005592257894371862,0.004863079161040944,0.0031669987853595698,0.0010631045354569737,0.0616754682073251
0.2392759,0.003059954730060962,0.007309370676282079,0.0056269414710464725,0.004848539823927925,0.003160913181327959,0.0010475252077280217,0.061218316911857876
0.2397414,0.0030593055952345145,0.007357410531708355,0.005661634080897821,0.004833803687999046,0.003154792543931095,0.0010322348367119976,0.060757605400997367
0.2402069,0.003058642573252488,0.007405390768191285,0.005696335143789951,0.004818873806308666,0.0031486376762662597,0.0010172350507988955,0.060293441199980764
0.2406724,0.0030579658522184383,0.007453307332816319,0.005731044104832172,0.0048037532650175435,0.0031424493840194467,0.0010025274567417664,0.059825932227861374
0.2411379,0.003057275619535885,0.007501156218354217,0.005765760433013764,0.004788445182321116,0.0031362284753721987,0.0009881136393503998,0.05935518676035108
0.2416034,0.0030565720620034176,0.007548933463774625,0.005800483619798914,0.004772952707370226,0.003129975760909729,0.0009739951611881703,0.05888131339278501
0.242069,0.0030558553659123383,0.007596635154738192,0.005835213177683044,0.00475727901918515,0.0031236920535304383,0.0009601735622719766,0.05840442100322544
0.2425345,0.003055125717146699,0.007644257424068044,0.0058699486387117665,0.004741427325563777,0.0031173781683569036,0.000946650359775196,0.057924618715721236
0.243,0.003054383301285598,0.007691796452201367,0.005904689552963777,0.004725400861984737,0.0031110349226484315,0.0009334270477335899,0.057442015863739246
0.2434655,0.0030536283037076407,0.007739248467621793,0.005939435486999059,0.004709202890506243,0.0031046631357152673,0.0009205050967540874,0.056956721953783464
0.243931,0.0030528609096974494,0.007786609747273276,0.0059741860222738445,0.004692836698661403,0.0030982636288345725,0.0009078859537263752,0.0564688466292177
0.2443966,0.0030520813045541426,0.007833876616956111,0.006008940753523807,0.004676305598350703,0.003091837225168294,0.0008955710415372149,0.05597849963430686
0.2448621,0.0030512896737016912,0.007881045451705789,0.006043699287117044,0.0046596129247323615,0.0030853847496830466,0.0008835617587874126,0.05548579077849183
0.2453276,0.0030504862028010696,0.007928112676155457,0.006078461239378447,0.004642762035111206,0.0030789070290721263,0.0008718594795113484,0.054990829900912766
0.2457931,0.0030496710778641295,0.00797507476488291,0.006113226234887116,0.004625756307826717,0.00307240489167976,0.0008604655528989767,0.05449372683519474
0.2462586,0.0030488444853691158,0.008021928242743117,0.006147993904748574,0.00460859914114082,0.0030658791674276725,0.0008493813030202024,0.05399459137450944
0.2467241,0.0030480066123777594,0.008068669685187525,0.006182763884843587,0.004591293952126045,0.003059330687744048,0.0008386080285515312,0.053493533236926336
0.2471897,0.003047157646653868,0.008115295718571456,0.00621753581405548,0.0045738441755546234,0.0030527602854949357,0.0008281470025048958,0.05299066203106608
0.2476552,0.0030462977767833064,0.008161803020451039,0.006252309332477871,0.004556253262789091,0.00304616879491814,0.0008179994719585611,0.05248608722206864
0.2481207,0.0030454271922952802,0.008208188319871199,0.006287084079604846,0.004538524680674978,0.0030395570515596377,0.0008081666577900133,0.051979918097887934
0.2485862,0.0030445460837848102,0.008254448397646198,0.006321859692505581,0.004520661910436141,0.0030329258922125253,0.0007986497544107423,0.05147226373592463
0.2490517,0.003043654643036305,0.008300580086634236,0.006356635803985472,0.004502668446573323,0.0030262761548585223,0.0007894499295028345,0.05096323297000803
0.2495172,0.0030427530631481716,0.008346580272007543,0.006391412040735851,0.004484547795766489,0.003019608678612033,0.0007805683237572987,0.050452934357737754
0.2499828,0.0030418415386584343,0.008392445891519372,0.006426188021474367,0.004466303475781519,0.0030129243036667716,0.0007720060506140543,0.04994147614819543
0.2504483,0.0030409202656713993,0.008438173935769218,0.006460963355078122,0.0044479390143818,0.0030062238712449414,0.0007637641960035207,0.04942896625003613
0.2509138,0.003039989441985429,0.008483761448467545,0.006495737638711671,0.004429457948245269,0.0029995082235489603,0.0007558438180897548,0.04891551219996919
0.2513793,0.0030390492672219206,0.008529205526701234,0.006530510455951985,0.0044108638218874445,0.0029927782037157203,0.0007482459470150899,0.04840122113163745
0.2518448,0.0030380999429555845,0.008574503321200883,0.006565281374912496,0.004392160186590965,0.0029860346557733677,0.0007409715846462357,0.04788619974490369
0.2523103,0.0030371416728461257,0.008619652036611095,0.0066000499463683025,0.00437335059934215,0.0029792784246005957,0.0007340217043218075,0.04737055427555265
0.2527759,0.0030361746627714167,0.008664648931764723,0.006634815701884637,0.004354438621775067,0.002972510355888425,0.0007273972506012561,0.04685439046541686
0.2532414,0.00303519912096224,0.00870949131996206,0.006669578151950658,0.004335427819123544,0.00296573129610443,0.0007210991390151744,0.04633781353293404
0.2537069,0.0030342152581386544,0.008754176569255884,0.006704336784120623,0.004316321759181612,0.002958942092459367,0.0007151282558169578,0.045820928144143444
0.2541724,0.0030332232876480398,0.008798702102743245,0.006739091061164464,0.0042971240112727425,0.0029521435928761197,0.0007094854577357956,0.04530383838412839
0.2546379,0.0030322234256048406,0.008843065398864848,0.006773840419229774,0.004277838145228296,0.002945336645960883,0.0007041715717309707,0.04478664772891175
0.2551034,0.003031215891032012,0.008887263991712855,0.006808584266017202,0.004258467730375539,0.0029385221009764683,0.0006991873947474384,0.04426945901781091
0.255569,0.0030302009060041647,0.008931295471347873,0.00684332197897124,0.0042390163345355815,0.002931700807817592,0.0006945336934726539,0.04375237442625826
0.2560345,0.003029178695792365,0.008975157484125817,0.00687805290348837,0.0042194875230315895,0.0029248736169879956,0.0006902112040946145,0.043235495439093254
0.2565,0.003028149489010538,0.009018847733035342,0.006912776351144541,0.004199884857707592,0.0029180413795792206,0.0006862206320610778,0.042718922824331304
0.2569655,0.003027113517763408,0.009062363978046372,0.006947491597943921,0.004180211895958199,0.0029112049472508677,0.0006825626518399206,0.042202756607414904
0.257431,0.0030260710177958754,0.009105704036470263,0.006982197882590836,0.004160472189769502,0.0029043651722121485,0.0006792379066806044,0.041687096045951666
0.2578966,0.0030250222286437294,0.00914886578333208,0.007016894404786821,0.004140669284771423,0.00289752290720455,0.000676247008376714,0.0411720396049437
0.2583621,0.0030239673937855795,0.009191847151755387,0.007051580323554634,0.0041208067193017174,0.00289067900548543,0.0006735905370295447,0.04065768493251267
0.2588276,0.003022906760795847,0.009234646133359947,0.007086254755591056,0.004100888023481854,0.002883834320812349,0.000671269040812716,0.04014412883612424
0.2592931,0.0030218405814986618,0.00927726077867267,0.007120916773650253,0.004080916718304921,0.0028769897074279404,0.0006692830357378051,0.03963146725931538
0.2597586,0.003020769112122476,0.009319689197552106,0.007155565404959374,0.004060896314735722,0.0028701460200450993,0.0006676330054209938,0.03911979525892768
0.2602241,0.0030196926134551877,0.009361929559626739,0.007190199629668079,0.004040830312823215,0.00286330411383227,0.000666319400850737,0.038609206982849496
0.2606897,0.003018611350999535,0.009403980094747312,0.0072248183793335325,0.004020722200825402,0.002856464844398582,0.0006653426401564677,0.03809979564826942
0.2611552,0.003017525595128518,0.00944583909345332,0.007259420535442437,0.004000575454346823,0.002849629067778582,0.0006647031083783636,0.037591653520443316
0.2616207,0.003016435621240584,0.009487504907453795,0.007294004927971565,0.003980393535488751,0.002842797640416305,0.0006644011572382072,0.0370848718919769
0.2620862,0.0030153417099142796,0.009528975950122419,0.007328570333988231,0.0039601798920122,0.0028359714191483884,0.0006644371049113832,0.03657954106262577
0.2625517,0.0030142441470620554,0.009570250697006948,0.007363115476292056,0.003939937956513839,0.0028291512611859798,0.0006648112358000589,0.03607575031961432
0.2630172,0.003013143224082908,0.009611327686352863,0.007397639022099344,0.003919671145614881,0.002822338024095145,0.0006655238003076019,0.03557358791847497
0.2634828,0.003012039238013509,0.009652205519641065,0.007432139581771313,0.0038993828591630296,0.0028155325657755145,0.0006665750146142913,0.03507314106440912
0.2639483,0.0030109324916774804,0.009692882862139374,0.007466615707587393,0.0038790764794475845,0.002808735744436896,0.0006679650604543827,0.034574495894170665
0.2644138,0.003009823293832456,0.009733358443467519,0.007501065892564724,0.003858755370427804,0.0028019484185736053,0.0006696940848945843,0.03407773745847335
0.2648793,0.0030087119593145625,0.009773631058175226,0.0075354885693249725,0.003838422876974659,0.002795171446936277,0.0006717622001140029,0.03358294970492252
0.2653448,0.0030075988091799516,0.009813699566332929,0.007569882109009568,0.00381808232412612,0.0027884056885009315,0.0006741694831856123,0.03309021546147205
0.2658103,0.003006484170843019,0.009853562894134568,0.00760424482024438,0.0037977370163561055,0.0027816520024350868,0.0006769159758592944,0.0325996164204072
0.2662759,0.003005368378210904,0.009893220034511927,0.0076385749481548805,0.0037773902368572173,0.0027749112480607075,0.000680001684346502,0.03211123312285369
0.2667414,0.00300425177181388,0.00993267004775981,0.007672870673432807,0.003757045246837369,0.0027681842848137714,0.0006834265791065898,0.031625144943813584
0.2672069,0.0030031346989312087,0.009971912062171342,0.007707130111455283,0.0037367052848303905,0.002761471972200259,0.0006871905946348646,0.031141430077728235
0.2676724,0.0030020175137120404,0.010010945274682638,0.007741351311457377,0.0037163735660206794,0.002754775169748356,0.0006912936292524024,0.030660165524568413
0.2681379,0.003000900577290956,0.010049768951525947,0.007775532255759017,0.0036960532815819573,0.0027480947369566684,0.0006957355448976936,0.030181427076451647
0.2686034,0.002999784257897741,0.010088382428890385,0.007809670859047182,0.003675747598030165,0.002741431533238213,0.0007005161669201763,0.02970528930478648
0.269069,0.002998668930961014,0.01012678511358924,0.007843764967714245,0.003655459656590512,0.0027347864178599653,0.0007056352838757289,0.029231825547943336
0.2695345,0.0029975549792053266,0.010164976483732883,0.00787781235925336,0.003635192572578684,0.002728160249877726,0.0007110926473242013,0.02876110789945142
0.27,0.0029964427927413736,0.010202956089406292,0.007911810741711675,0.0036149494347962035,0.00272155388806607,0.0007168879716290712,0.02829320719672092
0.2704655,0.002995332769148923,0.010240723553350265,0.007945757753202184,0.0035947333049399337,0.0027149681908431476,0.0007230209337593238,0.02782819301028961
0.270931,0.0029942253135520716,0.010278278571645474,0.007979650961474882,0.003574547217025696,0.002708404016190123,0.0007294911730936607,0.02736613363359275
0.2713966,0.0029931208386864343,0.010315620914398561,0.008013487863547894,0.0035543941768259894,0.0027018622215650443,0.0007362982912271523,0.02690709607325491
0.2718621,0.002992019764957837,0.010352750426429474,0.008047265885399179,0.003534277161321761,0.002695343663810923,0.000743441851780457,0.026451146039902205
0.2723276,0.002990922520492103,0.010389667027959277,0.008080982381719344,0.0035141991181681896,0.002688849199057807,0.0007509213802117358,0.025998347939493124
0.2727931,0.002989829541175527,0.010426370715297657,0.008114634635726084,0.003494162965174423,0.0026823796826186247,0.0007587363636313982,0.025548764865166
0.2732586,0.002988741270685665,0.010462861561529395,0.00814821985904069,0.0034741715897971983,0.002675935968878583,0.0007668862506198185,0.025102458589600786
0.2737241,0.0029876581605120986,0.010499139717199114,0.00818173519162704,0.0034542278486482825,0.0026695189111778745,0.0007753704510481639,0.024659489557892766
0.2741897,0.002986580669966869,0.010535205410993636,0.008215177701793424,0.0034343345670156604,0.002663129361687476,0.0007841883359024754,0.024219916880935503
0.2746552,0.002985509266184288,0.01057105895042128,0.008248544386257474,0.0034144945383984154,0.0026567681712778347,0.0007933392371111379,0.023783798329310133
0.2751207,0.002984444424109878,0.010606700722487471,0.00828183217027446,0.0033947105240552267,0.002650436189380229,0.000802822447375875,0.02335119032767801
0.2755862,0.0029833866264781577,0.01064213119436598,0.008315037907829125,0.003374985252566393,0.0026441342638406167,0.0008126372200064007,0.022922147949673562
0.2760517,0.0029823363637790255,0.010677350914065176,0.008348158381891168,0.0033553214194092977,0.0026378632407657865,0.0008227827687588543,0.022496724913293912
0.2765172,0.0029812941342124886,0.010712360511088564,0.008381190304734493,0.0033357216865471744,0.002631623964361647,0.0008332582676781425,0.022074973576781842
0.2769828,0.0029802604436315228,0.010747160697088939,0.008414130318320306,0.0033161886820310365,0.002625417276763499,0.0008440628509443151,0.021656944934998455
0.2774483,0.002979235805472898,0.010781752266515371,0.008446974994744047,0.003296724999614584,0.002619244017858159,0.0008551956127230967,0.021242688616281823
0.2779138,0.0029782207406758797,0.010816136097252235,0.008479720836746146,0.0032773331983818915,0.002613105025097843,0.0008666556070207067,0.02083225287978779
0.2783793,0.0029772157775888337,0.010850313151249397,0.008512364278286567,0.003258015802387655,0.0026070011333057595,0.0008784418475431034,0.020425684613308896
0.2788448,0.0029762214518638122,0.010884284475142706,0.008544901685183012,0.003238775300309746,0.0026009331744734246,0.000890553307559791,0.02002302933156734
0.2793103,0.002975238306339308,0.010918051200863818,0.00857732935581264,0.0032196141451138367,0.002594901977549759,0.0009029889197723395,0.01962433117497774
0.2797759,0.002974266890911395,0.010951614546238397,0.008609643521877094,0.0032005347537298738,0.0025889083682220726,0.0009157475761877744,0.0192296329088753
0.2802414,0.0029733077623935013,0.010984975815571695,0.008641840349230562,0.0031815395067402406,0.0025829531686890864,0.0009288281279970002,0.018838975923204833
0.2807069,0.0029723614843650383,0.011018136400220448,0.008673915938770541,0.0031626307480794942,0.002577037197426197,0.0009422293854584319,0.018452400232665814
0.2811724,0.002971428627009133,0.01105109777915001,0.008705866327390878,0.003143810784745624,0.00257116126894322,0.0009559501177870152,0.018069944477308704
0.2816379,0.0029705097669396907,0.011083861519475486,0.008737687488996636,0.0031250818865228053,0.00256532619353488,0.0009699890530488244,0.01769164592357743
0.2821034,0.0029696054870180224,0.011116429276985655,0.00876937533558022,0.0031064462857156435,0.0025595327770243084,0.0009843448780614346,0.01731754046579282
0.282569,0.0029687163761592645,0.011148802796648363,0.008800925718358126,0.003087906176894873,0.002553781820499824,0.0009990162383002642,0.016947662628071708
0.2830345,0.002967843029128842,0.011180983913096031,0.008832334428967668,0.003069463716654486,0.0025480741200452767,0.001014001737811095,0.016582045566676203
0.2835,0.0029669860463292213,0.011212974551089975,0.008863597200722873,0.0030511210233802374,0.0025424104664642584,0.0010292999391289716,0.016220721072787617
0.2839655,0.0029661460335772263,0.011244776725962172,0.008894709709928734,0.0030328801770294683,0.0025367916449985104,0.0010449093632036823,0.015863719575699327
0.284431,0.002965323601872184,0.011276392544033266,0.008925667577252903,0.003014743218922196,0.0025312184350408822,0.0010608284893320202,0.01551107014642281
0.2848966,0.0029645193671551883,0.011307824203005542,0.008956466369153837,0.002996712151543422,0.002525691609843228,0.0010770557550970233,0.015162800501700912
0.2853621,0.002963733950059764,0.011339073992329711,0.008987101599364396,0.0029787889383566155,0.0025202119362196466,0.0010935895563143761,0.01481893700842234
0.2858276,0.002962967975654209,0.011370144293544332,0.009017568730429741,0.0029609755036283276,0.0025147801742454873,0.0011104282469861588,0.014479504688431226
0.2862931,0.0029622220731758764,0.0114010375805867,0.009047863175298414,0.0029432737322638756,0.0025093970769525555,0.0011275701392621173,0.014144527223725514
0.2867586,0.002961496875757661,0.011431756420073965,0.009077980298965317,0.0029256854696540617,0.0025040633900209443,0.0011450135034086308,0.013814026962037831
0.2872241,0.0029607930201469112,0.011462303471553264,0.009107915420165301,0.0029082125215328693,0.0024987798514679205,0.0011627565677855515,0.013488024922792361
0.2876897,0.00296011114641699,0.011492681487719593,0.009137663813116008,0.0028908566538461107,0.0024935471913342814,0.001180797518831087,0.01316654080343122
0.2881552,0.0029594518976716797,0.011522893314600113,0.009167220709308517,0.002873619592631003,0.0024883661313685897,0.0011991345010549058,0.012849592986103662
0.2886207,0.002958815919742629,0.011552941891703528,0.009196581299344319,0.002856503023906657,0.002483237384709688,0.0012177656170396446,0.012537198544711428
0.2890862,0.002958203860880035,0.011582830252133226,0.009225740734817044,0.002839508593575516,0.0024781616555678725,0.0012366889274510063,0.012229373252303404
0.2895517,0.0029576163714367973,0.01161256152266283,0.009254694130237376,0.0028226379073357597,0.002473139638905111,0.001255902451056642,0.01192613158881266
0.2900172,0.0029570541035463978,0.01164213892377294,0.009283436564999498,0.0028058925306047268,0.002468172020114655,0.0012754041647540168,0.011627486749128849
0.2904828,0.0029565177107948393,0.011671565769647977,0.00931196308538738,0.0027892739884534073,0.002463259474700382,0.0012951920036074675,0.011333450651498827
0.2909483,0.002956007847886976,0.011700845468132179,0.009340268706619203,0.0027727837655520463,0.002458402667956203,0.001315263860894666,0.011044033946248292
0.2914138,0.002955525170307613,0.011729981520643829,0.009368348414928162,0.0027564233061269034,0.0024536022546458383,0.0013356175881627092,0.010759246024817109
0.2918793,0.0029550703339777306,0.011758977522046993,0.009396197169677918,0.0027401940139281985,0.002448858878683257,0.0013562509952940612,0.01047909502910094
0.2923448,0.002954643994906193,0.011787837160480014,0.00942380990551093,0.002724097252209271,0.0024441731728140573,0.001377161850582577,0.01020358786109164
0.2928103,0.002954246808837291,0.011816564217140085,0.009451181534527883,0.0027081343437169864,0.002439545758298042,0.001398347880819843,0.009932730192808947
0.2932759,0.0029538794308944546,0.011845162566023183,0.00947830694849642,0.002692306570693432,0.0024349772445932333,0.0014198067713920644,0.009666526476515842
0.2937414,0.0029535425152204526,0.011873636173618604,0.009505181021087382,0.0026766151748889152,0.002430468229041546,0.0014415361663877313,0.009404979955210033
0.2942069,0.0029532367146144043,0.011901989098557383,0.009531798610136763,0.002661061357586292,0.002426019296556332,0.0014635336687162902,0.009148092673383991
0.2946724,0.0029529626801659157,0.01193022549121383,0.009558154559931586,0.0026456462796366305,0.002421631019311983,0.0014857968402380414,0.008895865488046046
0.2951379,0.002952721060886656,0.011958349593259466,0.009584243703517924,0.0026303710615062045,0.002417303956435773,0.0015083232019054752,0.008648298079995115
0.2956034,0.002952512503339692,0.011986365737168695,0.00961006086502928,0.0026152367833348045,0.002413038653702104,0.0015311102339162438,0.008405388965341662
0.296069,0.00295233765126689,0.012014278345675452,0.00963560086203356,0.002600244485005327,0.002408835643229302,0.0015541553758779687,0.008167135507267609
0.2965345,0.0029521971452146955,0.012042091931180112,0.009660858507896837,0.0025853951662245934,0.0024046954431790994,0.0015774560269850577,0.007933533928017952
0.297,0.0029520916221586055,0.012069811095105904,0.009685828614162152,0.002570689786615329,0.00240061855745891,0.0016010095462077162,0.007704579321116925
0.2974655,0.0029520217151266384,0.012097440527204113,0.009710505992941544,0.0025561292658192163,0.00239660547542701,0.001624813252493321,0.007480265663801565
0.297931,0.002951988052822095,0.012124985004807385,0.009734885459319512,0.002541714483610927,0.002392656671600715,0.0016488644249803288,0.007260585829665615
0.2983966,0.0029519912592458983,0.012152449392030504,0.009758961833766084,0.0025274462800230044,0.002388772605367655,0.0016731603032248824,0.007045531601506713
0.2988621,0.0029520319533187915,0.012179838638917997,0.009782729944557665,0.0025133254554814614,0.002384953720700243,0.001697698087440288,0.0068350936843698355
0.2993276,0.002952110748503653,0.012207157780537917,0.00980618463020386,0.002499352770951943,0.0023812004458734722,0.0017224749387495274,0.00662926171877999
0.2997931,0.00295222825242822,0.012234411936021185,0.009829320741878497,0.002485528948096291,0.0023775131931861554,0.0017474879794509848,0.006428024294157174
0.3002586,0.002952385066508468,0.012261606307545764,0.009852133145853112,0.0024718546694393363,0.0023738923586857506,0.001772734293297552,0.006231368962406612
0.3007241,0.0029525817855729337,0.012288746179264889,0.009874616725931259,0.0024583305785457602,0.002370338321896897,0.0017982109257892991,0.006039282251677308
0.3011897,0.002952818997488233,0.012315836916178529,0.009896766385881963,0.0024449572802068566,0.0023668514455537724,0.001823914884479881,0.005851749680281907
0.3016552,0.002953097282786039,0.012342883962947228,0.00991857705187071,0.002431735340637038,0.002363432075336376,0.0018498431392968634,0.005668755770770833
0.3021207,0.002953417214291782,0.01236989284264744,0.009940043674886436,0.002418665287679939,0.002360080539610834,0.0018759926228761445,0.005490284064153652
0.3025862,0.0029537793567553207,0.012396869155467425,0.00996116123316295,0.0024057476110239564,0.0023567971491738,0.001902360230910651,0.0053163171342606175
0.3030517,0.00295418426648386,0.012423818577342977,0.009981924734593337,0.0023929827624270855,0.002353582197001018,0.0019289428225134839,0.0051468366022373885
0.3035172,0.0029546324909774076,0.012450746858532232,0.010002329219135837,0.0023803711559508764,0.002350435958000113,0.0019557372205956797,0.004981823151166024
0.3039828,0.0029551245685670562,0.012477659822129044,0.010022369761209782,0.0023679131682033455,0.002347358688767673,0.001982740212258748,0.004821256540805472
0.3044483,0.002955661028056408,0.0125045633625145,0.010042041472080198,0.00235560913859066,0.0023443506273506842,0.0020099485492021383,0.004665115622444953
0.3049138,0.002956242388366455,0.012531463443746359,0.010061339502229686,0.002343459369577399,0.00234141199301241,0.002037358948145771,0.004513378353863865
0.3053793,0.0029568691581842504,0.012558366097886324,0.01008025904371624,0.002331464126955181,0.002338542986002793,0.0020649680912677567,0.004366021814392064
0.3058448,0.002957541835615695,0.012585277423265283,0.01009879533251567,0.0023196236401194317,0.0023357437873335013,0.0020927726266574097,0.004223022220064619
0.3063103,0.0029582609078427718,0.012612203582686693,0.010116943650847325,0.0023079381023540626,0.002333014558557738,0.002120769168783653,0.0040843549388653476
0.3067759,0.0029590268507855458,0.012639150801568409,0.010134699329481838,0.0022964076711238226,0.002330355441554971,0.0021489542989788974,0.003949994506053589
0.3072414,0.0029598401287692275,0.012666125366023358,0.010152057750029612,0.0022850324683740876,0.0023277665583207197,0.0021773245659384654,0.0038199146395688295
0.3077069,0.0029607011941966033,0.012693133620879402,0.010169014347208806,0.0022738125808378553,0.0023252480107615477,0.0022058764862356267,0.0036940882555078092
0.3081724,0.0029616104872260992,0.012720181967638888,0.010185564611091583,0.002262748060349735,0.002322799880495422,0.002234606544852296,0.003572487483668759
0.3086379,0.002962568435455746,0.012747276862378375,0.010201704089327404,0.002251838924166715,0.002320422228657595,0.002263511195725453,0.0034550836831574307
0.3091034,0.0029635754536132784,0.012774424813589159,0.010217428389342134,0.002241085155295516,0.002318115095712179,0.002292586862309323,0.0033418474580495508
0.309569,0.0029646319432526046,0.012801632379959299,0.010232733180511763,0.0022304867028263486,0.0023158785012696147,0.0023218299381533728,0.003232748673104305
0.3100345,0.0029657382924568854,0.012828906168097997,0.010247614196309526,0.002220043482272902,0.0023137124439102253,0.002351236787496153,0.003127756469523435
0.3105,0.0029668948755484387,0.012856252830203222,0.010262067236425235,0.002209755375918412,0.0023116169010140688,0.002380803745875031,0.003026839280750527
0.3109655,0.0029681020528057275,0.012883679061673703,0.010276088168855606,0.00219962223316767,0.0023095918285973016,0.0024105271207518443,0.0029299648483050293
0.311431,0.0029693601701876807,0.012911191598666336,0.01028967293196439,0.0021896438709048532,0.002307637161155271,0.00244040319215451,0.002837100237645549
0.3118966,0.002970669559065613,0.012938797215600208,0.010302817536511084,0.002179820073857082,0.0023057528115125537,0.002470428213334605,0.0027482118540569623
0.3123621,0.002972030535963019,0.012966502722608396,0.010315518067646972,0.0021701505949636123,0.0023039386706801657,0.002500598411440941,0.0026632654585558692
0.3128276,0.0029734434023035165,0.01299431496293874,0.01032777068687735,0.0021606351557505615,0.002302194607720159,0.0025309099882091404,0.00258222618380895
0.3132931,0.0029749084441672074,0.013022240810304815,0.010339571633988735,0.0021512734467110817,0.002300520469617852,0.002561359120667204,0.0025050585500588194
0.3137586,0.0029764259320557247,0.013050287166188397,0.010350917228940014,0.002142065127690865,0.0022989160811619285,0.0025919419618570553,0.002431726481052025
0.3142241,0.002977996120666223,0.013078460957094805,0.010361803873716489,0.002133009828278865,0.00229738124483267,0.0026226546415720254,0.002362193319963894
0.3146897,0.002979619248674577,0.01310676913176261,0.010372228054145845,0.0021241071482031005,0.002295915740698582,0.0026534932671102235,0.0022964218453150236
0.3151552,0.002981295538528036,0.013135218658329235,0.01038218634167515,0.002115356657731399,0.0022945193263216868,0.0026844539240437177,0.0022343742868742825
0.3156207,0.0029830251962475614,0.013163816521454047,0.010391675395108022,0.0021067578980769244,0.002293191736671741,0.002715532677003432,0.0021760123415433016
0.3160862,0.002984808411240095,0.013192569719400518,0.010400691962301195,0.002098310381808324,0.0022919326840496234,0.0027467255704796555,0.0021212971892175287
0.3165517,0.002986645356120952,0.013221485261079012,0.010409232881819741,0.002090013593264322,0.0022907418580201443,0.0027780286296380198,0.0020701895086190536
0.3170172,0.0029885361865465304,0.013250570163051735,0.01041729508455027,0.0020818669889725964,0.002289618925354521,0.002809437861150827,0.002022649493096534
0.3174828,0.002990481041057507,0.013279831446501444,0.010424875595271468,0.002073869998072768,0.0022885635299827473,0.0028409492540435607,0.00197863686638767
0.3179483,0.0029924800409326653,0.013309276134165451,0.01043197153418139,0.0020660220227433305,0.0022875752929560943,0.002872558780556427,0.001938110898339793
0.3184138,0.0029945332900534784,0.013338911247236565,0.01043858011838097,0.002058322438632331,0.00228665381241995,0.002904262397020764,0.0019010304205842102
0.3188793,0.0029966408747795475,0.01336874380223254,0.010444698663313252,0.0020507705952916124,0.002285798663597201,0.0029360560447501426,0.0018673538421600166
0.3193448,0.00299880286383499,0.013398780807835645,0.010450324584157915,0.0020433658166144316,0.0022850093987823363,0.002967935650945981,0.0018370391650831181
0.3198103,0.0030010193082058447,0.013429029261703885,0.010455455397180638,0.002036107401276243,0.0022842855473464477,0.002999897129617491,0.0018100439998562346
0.3202759,0.0030032902410485583,0.01345949614725543,0.010460088721036986,0.0020289946231784517,0.0022836266157532903,0.0030319363825157867,0.0017863255809156763
0.3207414,0.0030056156776096313,0.013490188430427926,0.01046422227803047,0.002022026731894942,0.0022830320875865616,0.0030640493000819507,0.0017658407820107334
0.3212069,0.0030079956151564512,0.013521113056414475,0.010467853895324493,0.0020152029531211907,0.002282501423588539,0.003096231762408871,0.001748546131511603
0.3216724,0.0030104300329193783,0.013552276946378259,0.010470981506107934,0.002008522489125803,0.002282034061710214,0.0031284796402166535,0.0017343978276419105
0.3221379,0.003012918892045102,0.013583686994147942,0.010473603150714236,0.0020019845192043107,0.0022816294171730477,0.0031607887958414074,0.001723351753632053
0.3226034,0.0030154621355612814,0.013615350062896023,0.01047571697769382,0.0019955882001351003,0.002281286882542464,0.0031931550842371793,0.0017153634927897915
0.323069,0.003018059688352461,0.013647272981802364,0.010477321244839773,0.001989332666637342,0.002281005827813187,0.00322557435399082,0.0017103883434847328
0.3235345,0.003020711457147228,0.013679462542705165,0.010478414320166765,0.001983217031830826,0.0022807856005065317,0.003258042448349541,0.0017083813340435215
0.324,0.0030234173305165564,0.013711925496741639,0.010478994682843194,0.001977240387697606,0.0022806255257797462,0.0032905552062609095,0.001709297237552722
0.3244655,0.0030261771788832725,0.013744668550980712,0.010479060924076607,0.0019714018055453724,0.0022805249065474846,0.003323108463424997,0.0017130905865664883
0.324931,0.0030289908545425835,0.01377769836505021,0.010478611747952463,0.001965700336472469,0.0022804830236154926,0.003355698053358394,0.0017197156877162237
0.3253966,0.003031858191693596,0.01381102154776089,0.010477645972226272,0.001960135011834478,0.0022804991358265636,0.003388319808469765,0.0017291266362195272
0.3258621,0.0030347790064817804,0.013844644653729725,0.010476162529069202,0.0019547048437122843,0.0022805724802188085,0.0034209695611465926,0.0017412773302857936
0.3263276,0.00303775309705233,0.013878574180004759,0.01047416046576716,0.0019494088253815434,0.002280702272196271,0.0034536431448527337,0.0017561214854159267
0.3267931,0.0030407802436143876,0.013912816562693773,0.010471638945373462,0.001944245931783465,0.002280887705711906,0.0034863363952363975,0.001773612648593664
0.3272586,0.0030438602085161135,0.013947378173598875,0.010468597247315192,0.0019392151199968367,0.002281127953462933,0.00351904515124812,0.0017937042123660533
0.3277241,0.0030469927363305453,0.013982265316859048,0.010465034767953416,0.0019343153297112132,0.00228142216709857,0.003551765256268297,0.0018163494288106342
0.3281897,0.0030501775539522207,0.014017484225602658,0.01046095102109738,0.0019295454837012164,0.002281769477440138,0.003584492559243819,0.0018415014233868997
0.3286552,0.0030534143707044983,0.014053041058611805,0.010456345638472924,0.0019249044883019016,0.0022821689947135136,0.0036172229158333426,0.0018691132086696418
0.3291207,0.0030567028784574974,0.014088941897000386,0.010451218370145291,0.0019203912338851665,0.0022826198087938948,0.0036499521895607115,0.001899137697961826
0.3295862,0.0030600427517565617,0.014125192740907656,0.01044556908489662,0.0019160045953372038,0.002283120989462827,0.0036826762529760374,0.0019315277187846776
0.3300517,0.0030634336479611174,0.014161799506209025,0.010439397770558405,0.0019117434325370188,0.002283671586677426,0.0037153909888239254,0.001966236026242718
0.3305172,0.003066875207393794,0.01419876802124566,0.010432704534299233,0.0019076065908360453,0.0022842706308517286,0.003748092291218334,0.002003215316261547
0.3309828,0.0030703670534996505,0.014236104023574413,0.010425489602868123,0.0019035929015389027,0.002284917133150083,0.0037807760668235415,0.0020424182386962024
0.3314483,0.0030739087930153294,0.014273813156739498,0.010417753322793863,0.0018997011823853472,0.002285610085792498,0.0038134382360406837,0.0020837974103080086
0.3319138,0.003077500016147954,0.014311900967067241,0.010409496160540738,0.0018959302380334587,0.0022863484623718423,0.003846074734199298,0.002127305427607864
0.3323793,0.003081140296763557,0.01435037290048506,0.010400718702621112,0.0018922788605441102,0.0022871312181827787,0.0038786815127533213,0.002172894879564028
0.3328448,0.0030848291925848178,0.014389234299365856,0.01039142165566535,0.0018887458298667524,0.002287957290562324,0.003911254540480958,0.0022205183601725527
0.3333103,0.0030885662453978644,0.014428490399398879,0.010381605846449574,0.0018853299143265481,0.002288825599241895,0.003943789804687823,0.0022701284808886476
0.3337759,0.0030923509812678775,0.014468146326488077,0.010371272221881826,0.0018820298711128807,0.0022897350467107024,0.003976283312412742,0.0023216778829173836
0.3342414,0.0030961829107632095,0.014508207093678865,0.010360421848947204,0.0018788444467692552,0.002290684518590337,0.004008731091635577,0.002375119249362288
0.3347069,0.0031000615291877235,0.01454867759811412,0.010349055914612644,0.0018757723776846066,0.0022916728840203723,0.004041129192486407,0.002430405317230478
0.3351724,0.003103986316821048,0.014589562618020278,0.010337175725692007,0.0018728123905860136,0.002292698996054784,0.004073473688455384,0.0024874888892930476
0.3356379,0.0031079567391664393,0.014630866809724294,0.010324782708672224,0.001869963203032807,0.0022937616920689873,0.004105760677602541,0.0025463228457994636
0.3361034,0.003111972247205943,0.014672594704702382,0.010311878409501263,0.0018672235239120577,0.0022948597941772624,0.004137986283766802,0.00260686015604474
0.336569,0.0031160322776625864,0.014714750706661452,0.010298464493338759,0.001864592053935411,0.002295992109660334,0.004170146657773422,0.0026690538897881522
0.3370345,0.0031201362532692913,0.014757339088654215,0.010284542744270191,0.0018620674861372349,0.002297157431402857,0.004202237978639016,0.002732857228522267
0.3375,0.0031242835830442217,0.014800363990228988,0.01027011506498557,0.0018596485063740325,0.0022983545383405504,0.0042342564547733575,0.002798223476591071
0.3379655,0.003128473662572266,0.014843829414615177,0.01025518347642363,0.001857333793825064,0.002299582195916693,0.004266198325177047,0.0028651060721559983
0.338431,0.003132705874292314,0.014887739225945475,0.01023975011738257,0.0018551220214941067,0.002300839156547701,0.004298059860634171,0.0029334585980086833
0.3388966,0.003136979587789992,0.01493209714651571,0.0102238172440984,0.001853011856712281,0.0023021241600974744,0.004329837364899015,0.0030032347922292948
0.3393621,0.0031412941600954918,0.014976906754083285,0.010207387229791974,0.0018510019616418453,0.002303435934360222,0.004361527175875941,0.003074388558689285
0.3398276,0.003145648935986126,0.015022171479205098,0.010190462564185704,0.00184909099378085,0.0023047731955514465,0.004393125666791481,0.0031468739773974114
0.3402931,0.003150043248293215,0.015067894602615692,0.010173045852991098,0.0018472776064685373,0.002306134648806787,0.004424629247357738,0.00322064531468785
0.3407586,0.0031544764182129346,0.015114079252646377,0.01015513981736808,0.0018455604493913492,0.0023075189886884095,0.004456034364926162,0.003295657033249223
0.3412241,0.0031589477556207522,0.015160728402685899,0.0101367472933572,0.0018439381690893981,0.002308924899698629,0.00448733750563078,0.0033718638019933577
0.3416897,0.0031634565593890995,0.015207844868683247,0.010117871231285734,0.0018424094094632436,0.0023103510568004563,0.0045185351955199776,0.003449220505762591
0.3421552,0.0031680021177079498,0.0152554313066932,0.010098514695148664,0.0018409728122808007,0.0023117961259447608,0.004549624001675932,0.0035276822548744365
0.3426207,0.0031725837084080003,0.015303490210465185,0.010078680861965443,0.001839627017684193,0.0023132587646037444,0.004580600533320782,0.0036072043945024382
0.3430862,0.0031772005992861735,0.015352023909076116,0.01005837302111344,0.0018383706646963554,0.0023147376223104123,0.004611461442908624,0.0036877425138920157
0.3435517,0.003181852048433159,0.015401034564608123,0.010037594573638817,0.001837202391727174,0.002316231341203731,0.004642203427202413,0.0037692524554101053
0.3440172,0.0031865373045627293,0.015450524169872285,0.010016349031545605,0.001836120837078936,0.00231773855657915,0.004672823228334852,0.003851690323427381
0.3444828,0.0031912556073425548,0.015500494546179858,0.009994640017063596,0.0018351246394508521,0.0023192578974441736,0.004703317634852352,0.003935012493031842
0.3449483,0.003196006187726255,0.0155509473411628,0.009972471261895703,0.0018342124384423963,0.002320787987078651,0.004733683482741206,0.004019175618572528
0.3454138,0.003200788268286416,0.015601884026645597,0.009949846606445347,0.0018333828750552034,0.002322327443599478,0.004763917656435149,0.004104136642032105
0.3458793,0.003205601063548317,0.01565330589657062,0.009926769999024343,0.0018326345921932635,0.0023238748805293682,0.004794017089803524,0.004189852801227051
0.3463448,0.0032104437803241095,0.015705214064979177,0.009903245495041778,0.0018319662351611657,0.0023254289073693602,0.0048239787671193425,0.004276281637834152
0.3468103,0.0032153156180472118,0.01575760946405052,0.009879277256174306,0.0018313764521601613,0.0023269881301747073,0.004853799724006546,0.004363381005242033
0.3472759,0.0032202157691066787,0.015810492842200912,0.009854869549518181,0.0018308638947818435,0.0023285511521337937,0.004883477048365911,0.004451109076226486
0.3477414,0.0032251434191813287,0.01586386476224483,0.009830026746723368,0.0018304272184992555,0.0023301165741497105,0.004913007881279023,0.004539424350448424
0.3482069,0.003230097747573409,0.015917725599620236,0.009804753323109983,0.0018300650831552634,0.002331682995424125,0.004942389417889842,0.004628285661773364
0.3486724,0.0032350779275415673,0.01597207554067969,0.00977905385676728,0.001829776153448035,0.002333249014043076,0.004971618908263338,0.004717652185411461
0.3491379,0.0032400831266328877,0.016026914581049084,0.009752933027635328,0.001829559099413471,0.002334813227564334,0.005000693658220781,0.004807483444877178
0.3496034,0.003245112507013747,0.016082242524055483,0.00972639561656951,0.0018294125969044353,0.0023363742336059675,0.005029611030151197,0.004897739318767805
0.350069,0.0032501652257992224,0.01613805897922568,0.009699446504387872,0.001829335328066634,0.0023379306304357602,0.005058368443798615,0.004988380047360077
