Time,Rectus Femoris right,Rectus Femoris left,Hamstrings right,Hamstrings left,TibilaisÂ Anterior right,TibilaisÂ Anterior left,Gastrocnemius right,Gastrocnemius left
0.0,0.01396328675826576,0.006168845596662875,0.009503401774504932,-0.0015525947322124311,-0.01894298901576442,0.0075466444889840875,-0.049156256481324,0.002169133082864293
0.0004655,0.014472648954798934,0.006294223057628154,0.00977210127140321,-0.0014970797892736032,-0.018531913007201153,0.008181901432213132,-0.047776186859638844,0.002238464278250771
0.000931,0.014980611775870508,0.006420368621631353,0.010041695469525703,-0.001441052524287533,-0.018121488181378965,0.008819091372872118,-0.04639981367308515,0.002307998877637307
0.0013966,0.015487092839353653,0.006547272853616107,0.010312169029054371,-0.0013845135884087095,-0.017711755020982337,0.009458144305659036,-0.04502732954355561,0.002377728384404922
0.0018621,0.01599200999765946,0.006674926179123434,0.010583506711319851,-0.0013274636973923475,-0.01730275349742657,0.010098989762176836,-0.04365892618148552,0.002447644243561378
0.0023276,0.016495281365461075,0.006803318886623714,0.010855693386132022,-0.001269903631936716,-0.016894523054013146,0.01074155682912056,-0.04229479432672934,0.002517737844067105
0.0027931,0.01699682534732412,0.006932441129892234,0.011128714039007588,-0.0012118342380285434,-0.016487102589368082,0.011385774166558425,-0.04093512368991221,0.002588000521168149
0.0032586,0.01749656066521906,0.007062282930426754,0.011402553778284402,-0.0011532564272916962,-0.016080530441179366,0.012031570026291839,-0.03958010289429035,0.002658423558733007
0.0037241,0.017994406385892156,0.007192834179905554,0.01167719784211238,-0.0010941711773393157,-0.015674844370249137,0.012678872270279922,-0.038229919418153666,0.002728998191590334
0.0041897,0.018490281948072614,0.007324084642684414,0.011952631605311247,-0.0010345795321295855,-0.015270081544875724,0.0133276083891149,-0.036884759537803166,0.0027997156078646444
0.0046552,0.018984107189494732,0.0074560239583309484,0.012228840586085745,-0.0009744826023252858,-0.014866278525579991,0.013977705520535387,-0.035544808271135535,0.0028705669513073885
0.0051207,0.01947580237371485,0.007588641644194683,0.012505810452589576,-0.000913881565657276,-0.014463471250189692,0.014629090467965565,-0.03421024932186645,0.0029415433236210918
0.0055862,0.019965288216704277,0.007721927098011228,0.012783527029330046,-0.0008527776672920313,-0.014061695019294721,0.01528168971906886,-0.032881265024423414,0.003012635786774597
0.0060517,0.020452485913200452,0.007855869600538903,0.013061976303406074,-0.0007911722202033396,-0.013660984482085293,0.015935429464305578,-0.031558036289538204,0.0030838353653077455
0.0065172,0.02093731716279991,0.007990458318226095,0.013341144430572705,-0.0007290666055482335,-0.013261373622584146,0.01659023561548463,-0.030240742550567967,0.003155133048624116
0.0069828,0.021419704195777572,0.008125682305907628,0.013621017741125611,-0.0006664622730472022,-0.012862895746282807,0.017246033824300223,-0.028929561710573398,0.0032265197932706347
0.0074483,0.02189956979861789,0.008261530509528322,0.013901582745599274,-0.0006033607413686942,-0.012465583467190976,0.017902749500845135,-0.027624670090181366,0.0032979865252030383
0.0079138,0.022376837339243987,0.008397991768891916,0.014182826140272567,-0.0005397635985178837,-0.012069468695307017,0.018560307832092785,-0.026326242376258538,0.0033695241420362717
0.0083793,0.022851430791931474,0.008535054820433433,0.014464734812475604,-0.0004756725022296238,-0.011674582624516707,0.01921863380034068,-0.025034451571420934,0.0034411235152789726
0.0088448,0.02332327476189386,0.008672708300013057,0.014747295845691876,-0.000411089180365475,-0.011280955720926586,0.01987765220160827,-0.023749468944402614,0.003512775492551208
0.0093103,0.023792294509526486,0.00881094074572952,0.015030496524450019,-0.00034601543131463985,-0.010888617711637648,0.020537287663982422,-0.022471463981304746,0.003584470899784655
0.0097759,0.024258415974296087,0.008949740600751011,0.015314324338999877,-0.00028045312439859327,-0.010497597573964618,0.021197464665904213,-0.02120060433774428,0.003656200543404414
0.0102414,0.024721565798263,0.009089096216161675,0.015598766989767936,-0.00021440420027915067,-0.010107923525105644,0.021858107554390663,-0.019937055791920014,0.003727955212491672
0.0107069,0.02518167134922325,0.009228995853821769,0.015883812391587458,-0.00014787067136968045,-0.00971962301226693,0.022519140563185384,-0.018680982198612722,0.0037997256809264865
0.0111724,0.025638660743458073,0.009369427689239701,0.016169448677698876,-8.085462224913869e-05,-0.009332722703246461,0.02318048783083183,-0.017432545444135,0.003871502709509988
0.0116379,0.026092462868078443,0.009510379814454214,0.016455664203516268,-1.3358210078583196e-05,-0.008947248477480602,0.023842073418663134,-0.01619190540224573,0.003943277048065357
0.0121034,0.026543007402952793,0.009651840240924976,0.016742447550155956,5.461633498018791e-05,-0.00856322541755699,0.024503821328702324,-0.014959219891043025,0.004015039437516944
0.012569,0.026990224842206402,0.00979379690242991,0.017029787527723637,0.0001230667093442376,-0.00818067780119681,0.025165655521467028,-0.013734644630848713,0.004086780611946943
0.0130345,0.02743404651528137,0.00993623765796745,0.017317673178356703,0.00019199053558770413,-0.007799629093709321,0.02582749993367264,-0.012518333203096327,0.004158491300629051
0.0135,0.027874404607546838,0.010079150294661944,0.017606093779018724,0.00026138536201900943,-0.007420101940921244,0.026489278495828064,-0.011310437010233763,0.004230162230038583
0.0139655,0.028311232180449668,0.010222522530670342,0.017895038844043164,0.00033124866225745197,-0.0070421181625833565,0.027150915149717944,-0.010111105236650849,0.004301784125838486
0.014431,0.028744463191196546,0.010366342018088212,0.01818449812742368,0.0004015778348095859,-0.006665698746256511,0.02781233386576529,-0.008920484810641612,0.004373347714840702
0.0148966,0.029174032511959075,0.010510596345853128,0.018474461624848455,0.0004723702026458009,-0.006290863841679027,0.028473458660268236,-0.00773872036741046,0.004444843726942342
0.0153621,0.02959987594859423,0.010655273042643378,0.018764919575476477,0.0005436230127775387,-0.005917632755617179,0.029134213612504574,-0.006565954213130981,0.004516262897036086
0.0158276,0.03002193025887314,0.0108003595797699,0.01905586246345422,0.0006153334358356009,-0.005546023947200123,0.0297945228816979,-0.005402326290065379,0.004587595966894244
0.0162931,0.030440133170212158,0.010945843374059232,0.01934728101917198,0.0006874985656500211,-0.005176055023740256,0.030454310723838904,-0.00424797414275141,0.004658833687025892
0.0167586,0.03085442339690082,0.01109171179072527,0.019639166220259706,0.0007601154188319821,-0.004807742737039661,0.031113501508355405,-0.0031030328852624622,0.004729966818506539
0.0172241,0.031264740656822054,0.011237952146227527,0.01993150929232274,0.0008331809343582654,-0.004441102980182948,0.03177201973462464,-0.001967635169545095,0.004800986134779768
0.0176897,0.03167102568766032,0.0113845517111137,0.020224301709418285,0.0009066919731587174,-0.004076150784816594,0.03242979004832133,-0.0008419111548372588,0.004871882423430343
0.0181552,0.032073220262593745,0.011531497712844377,0.020517535194273875,0.0009806453177072232,-0.003712900318914636,0.033086737257595256,0.0002740115218307451,0.004942646487928238
0.0186207,0.03247126720546639,0.01167877733859782,0.020811201718249742,0.0010550376716166765,-0.0033513648850303688,0.03374278634907227,0.0013800077740516628,0.005013269149343117
0.0190862,0.03286511040543734,0.011826377738052929,0.021105293501047572,0.0011298656592384445,-0.002991556919033517,0.03439786250367308,0.002475955093373423,0.005083741248028742
0.0195517,0.03325469483110338,0.011974286026148495,0.021399803010168555,0.0012051258252668304,-0.0026334879893321495,0.03505189111224435,0.0035617335755495504,0.00515405364527684
0.0200172,0.03363996654409298,0.012122489285816935,0.02169472296012389,0.0012808146343490467,-0.002277168796578456,0.03570479779099716,0.004637225945710323,0.005224197224939959
0.0204828,0.034020872712129606,0.012270974570690782,0.02199004631140092,0.0013569284707012136,-0.0019226091738573053,0.036356508396747984,0.00570231758245781,0.005294162895022921
0.0209483,0.034397361621563365,0.012419728907780361,0.02228576626918814,0.0014334636377308903,-0.0015698180873563118,0.03700694904195823,0.00675689654088842,0.00536394158924257
0.0214138,0.03476938268937054,0.012568739300121246,0.022581876281862107,0.0015104163576666436,-0.0012188036375159646,0.03765604610956987,0.0078008535745468744,0.005433524268555626
0.0218793,0.03513688647462193,0.012717992729390292,0.022878370039239527,0.0015877827711951497,-0.0008695730606581968,0.03830372626763564,0.008834082156315813,0.0055029019226545935
0.0223448,0.035499824689421325,0.012867476158489212,0.023175241470597806,0.0016655589371063087,-0.0005221327310915712,0.0389499164837438,0.009856478498245225,0.00557206557143182
0.0228103,0.03585815020931686,0.013017176534094862,0.023472484742468002,0.0017437408319468447,-0.00017648816369101515,0.039594544039238525,0.01086794157032604,0.0056410062664118766
0.0232759,0.03621181708318844,0.013167080789175428,0.023770094256204452,0.0018223243496828612,0.0001673559830502318,0.040237536543237355,0.011868373118212145,0.005709715092152549
0.0237414,0.03656078054261521,0.013317175845471754,0.024068064645335733,0.0019013053013718082,0.0005093959034990749,0.040878821946447756,0.012857677679895116,0.005778183167614718
0.0242069,0.03690499701072725,0.013467448615943081,0.024366390772701804,0.001980679414844314,0.0008496286408943067,0.041518328554784406,0.013835762601336017,0.0058464016475014546
0.0246724,0.03724442411054593,0.013617886007176347,0.02466506772738231,0.0020604423343963314,0.0011880520828947362,0.04215598504278886,0.014802538051058575,0.0059143617235666345
0.0251379,0.037579020672817126,0.013768474921758232,0.02496409082142078,0.002140589620492045,0.0015246649566669833,0.042791720466853,0.015757917033707994,0.005982054625893415
0.0256034,0.03790874674334138,0.013919202260609088,0.025263455586349494,0.0022211167494779905,0.0018594668235163499,0.043425464278247394,0.016701815402579662,0.006049471624142973
0.026069,0.03823356358980521,0.014070054925277943,0.025563157769519552,0.0023020191133088577,0.0021924580730642946,0.044057146335955394,0.017634151871121884,0.006116604028773949
0.0265345,0.03855343370811727,0.014221019820197866,0.025863193330240584,0.0023832920192854642,0.0025236399169761767,0.04468669691931371,0.018554848023416785,0.006183443192233072
0.027,0.03886832082825356,0.014372083854901185,0.026163558435734386,0.0024649306898054026,0.0028530143822431313,0.045314046740460266,0.019463828323643607,0.006249980510117511
0.0274655,0.03917818991961596,0.014523233946194225,0.026464249456906723,0.0025469302621268786,0.0031805843040221943,0.045939126956590075,0.020361020124528544,0.006316207422309482
0.027931,0.0394830071959089,0.014674457020291319,0.0267652629639415,0.0026292857881462825,0.0035063533180390728,0.04656186918202064,0.02124635367478539,0.006382115414083621
0.0283966,0.039782740119539216,0.014825740014907992,0.027066595721721435,0.002711992234190048,0.0038303258525582296,0.04718220550006848,0.02211976212555126,0.006447696017187639
0.0288621,0.04007735740554501,0.014977069881313226,0.02736824468507937,0.0027950444808213615,0.004152507119925159,0.04780006847473885,0.02298118153582177,0.006512940810896733
0.0293276,0.040366829025059364,0.015128433586340808,0.027670206993884526,0.0028784373226623146,0.004472903107685903,0.04841539116223085,0.023830550876890205,0.006577841423042208
0.0297931,0.04065112620831508,0.015279818114359767,0.027972479967967763,0.0029621654682321016,0.00479152056928903,0.04902810712225995,0.024667812035795607,0.006642389531014774
0.0302586,0.04093022144719688,0.015431210469204057,0.028275061101890254,0.003046223539801904,0.0051083670143755,0.04963815042919997,0.025492909817784723,0.006706576862742949
0.0307241,0.04120408849734737,0.015582597676061651,0.028577948059559714,0.0031306060732671104,0.005423450698662112,0.05024545568304674,0.026305791947793634,0.006770395197647031
0.0311897,0.04147270237983334,0.01573396678332323,0.028881138668698292,0.003215307518037569,0.005736780613424517,0.05084995802020503,0.02710640907095521,0.006833836367569126
0.0316552,0.041736039382378576,0.015885304864390642,0.02918463091516622,0.00330032223694657,0.006048366474586081,0.05145159312410101,0.02789471475213955,0.006896892257679722
0.0321207,0.04199407706016969,0.016036599019445267,0.029488422937145143,0.0033856445061793074,0.0063582187114191195,0.05205029723562155,0.02867066547453552,0.006959554807361319
0.0325862,0.04224679423624101,0.016187836377176378,0.029792513019184997,0.0034712685152215594,0.0066663484548653,0.052646007163381726,0.02943422063728239,0.007021816011069654
0.0330517,0.04249417100144471,0.016339004096469652,0.030096899586118494,0.0035571883668293557,0.006972767525482344,0.05323866029382163,0.030185342552161293,0.007083667919173076
0.0335172,0.04273618871401256,0.016490089368055995,0.03040158119684744,0.0036433980770203744,0.007277488421024486,0.05382819460113296,0.0309239964393567,0.007145102638770673
0.0339828,0.04297282999871565,0.01664107941612092,0.030706556538005428,0.0037298915750878284,0.007580524303664438,0.05441454865701579,0.031650150422298594,0.007206112334489805
0.0344483,0.04320407874562864,0.016791961499874632,0.031011824417501468,0.0038166627036375867,0.007881888986864868,0.054997661640265295,0.032363775521596395,0.007266689229263755
0.0349138,0.04342992010850521,0.016942722915083003,0.03131738375794945,0.003903705218649263,0.008181596921907605,0.055577473346187976,0.03306484564807631,0.007326825605090249
0.0353793,0.043650340502771265,0.01709335099555947,0.031623233589988156,0.003991012789562008,0.008479663184088987,0.056153924195846375,0.03375333759493449,0.0073865138037716846
0.0358448,0.043865327603142254,0.017243833114617867,0.03192937304549663,0.00407857899938573,0.008776103458589844,0.0567269552451311,0.03442923102901873,0.007445746227637957
0.0363103,0.044074870340870966,0.017394156686486,0.03223580135070958,0.004166397344838458,0.009070934026028744,0.057296508193658245,0.03509250848125178,0.0075045153402527945
0.0367759,0.04427895890063172,0.017544309167679704,0.0325425178192374,0.0042544612365105665,0.009364171747707234,0.05786252539349004,0.035743155336209274,0.007562813667104569
0.0372414,0.04447758471704703,0.01769427805833695,0.0328495218449954,0.0043427639990565444,0.009655834050555786,0.05842494985767619,0.036381159820865205,0.007620633796282518
0.0377069,0.044670740470862204,0.017844050903511516,0.033156812895046454,0.004431298871414992,0.009945938911789272,0.058983725268613466,0.037006512992517754,0.00767796837913936
0.0381724,0.04485842008477315,0.017993615294425516,0.033464390502361406,0.004520059007057558,0.010234504843280706,0.05953879598622091,0.03761920872590817,0.0077348101309413
0.0386379,0.04504061871891235,0.018142958869680006,0.03377225425850138,0.0046090374742675045,0.010521550875661983,0.06009010705592884,0.03821924369954533,0.007791151831506359
0.0391034,0.04521733276599776,0.01829206931642273,0.034080403806226185,0.004698227256448666,0.0108070965421603,0.06063760421648058,0.03880661738124859,0.007846986325831968
0.039569,0.045388559846148986,0.018440934371472085,0.0343888388320328,0.0047876212524655855,0.011091161862178912,0.061181233907546706,0.039381332012921426,0.007902306524712724
0.0400345,0.0455542988013752,0.01858954182239622,0.03469755905862818,0.004877212277015626,0.011373767324630895,0.06172094327715275,0.03994339259456847,0.007957105405349142
0.0405,0.045714549689738565,0.018737879508546204,0.03500656423734016,0.004966993061033891,0.011654933871034504,0.06225668018892133,0.04049280686756825,0.008011376011948226
0.0409655,0.04586931377919707,0.01888593532204232,0.03531585414047045,0.00505695625213175,0.011934682878378814,0.06278839322912995,0.04102958529721424,0.008065111456316642
0.041431,0.04601859354113047,0.01903369720871263,0.035625428553593755,0.005147094415069792,0.012213036141768413,0.06331603171358545,0.041553741054536596,0.00811830491844719
0.0418966,0.04616239264355265,0.019181153168982997,0.03593528726780698,0.005237400032266,0.01249001585685598,0.0638395456943156,0.04206528999741703,0.008170949647099282
0.0423621,0.046300715944013804,0.01932829125871805,0.03624543007193267,0.00532786550433996,0.012765644602071741,0.06435888596607806,0.04256425065100913,0.008223038960374088
0.0428276,0.04643356948219576,0.019475099590012573,0.03655585674468104,0.005418483150693948,0.013039945320658781,0.0648740040726865,0.04305064418747652,0.008274566246284887
0.0432931,0.04656096047220374,0.019621566331932818,0.03686656704677486,0.005509245210131765,0.013312941302523185,0.06538485231315366,0.04352449440506094,0.008325524963323234
0.0437586,0.0466828972945574,0.019767679711207242,0.03717756071304175,0.005600143841516223,0.013584656165908057,0.06589138374765074,0.04398582770649257,0.00837590864102142
0.0442241,0.04679938948788428,0.01991342801286609,0.037488837444478,0.005691171124466216,0.013855113838900437,0.06639355220328258,0.044434673076754416,0.008425710880511706
0.0446897,0.04691044774031831,0.0200587995808294,0.0378003969002885,0.005782319060094313,0.014124338540780242,0.06689131227967779,0.04487106206021284,0.00847492535508276
0.0451552,0.04701608388060607,0.020203782818443098,0.03811223868990688,0.005873579571785848,0.014392354763220462,0.06738461935439304,0.04529502873712629,0.008523545810733647
0.0456207,0.04711631086892374,0.02034836618896313,0.038424362365000436,0.0059649445060204675,0.014659187251347868,0.06787342958813039,0.04570660969954428,0.008571566066725773
0.0460862,0.047211142787407685,0.020492538215987826,0.03873676741146462,0.0060564056332370955,0.01492486098467344,0.06835769992976627,0.04610584402660877,0.008618980016132996
0.0465517,0.04730059483040179,0.02063628748383908,0.03904945324141194,0.00614795464874325,0.01518940115790168,0.0688373881211908,0.046492773259270474,0.0086657816263902
0.0470172,0.04738468329442527,0.020779602637893163,0.039362419185160404,0.006239583173669639,0.015452833161627905,0.06931245270195592,0.046867441374432765,0.00871196493984048
0.0474828,0.04746342556786451,0.020922472384862216,0.03967566448322648,0.006331282755970902,0.015715182562932598,0.06978285301373048,0.047229894758536374,0.008757524074281067
0.0479483,0.0475368401203929,0.02106488549302748,0.0399891882783276,0.00642304487147334,0.015976475085881844,0.07024854920456121,0.04758018218059822,0.00880245322350804
0.0484138,0.04760494649212279,0.021206830792425323,0.040302989607398865,0.006514860924970467,0.01623673659194283,0.07070950223293769,0.047918354764718354,0.008846746657859832
0.0488793,0.0476677652824937,0.021348297174987027,0.04061706739362862,0.006606722251367163,0.016495993060323354,0.07116567387165988,0.04824446596206847,0.008890398724759477
0.0493448,0.04772531813890124,0.021489273594633228,0.040931420438517455,0.00669862011687317,0.01675427056824425,0.07161702671150683,0.048558571522376276,0.008933403849255565
0.0498103,0.047777627745070946,0.021629749067323897,0.04124604741396484,0.006790545720246667,0.0170115952711536,0.07206352416470521,0.04886072946491956,0.008975756534561804
0.0502759,0.047824717809181294,0.021769712671064763,0.04156094685438778,0.00688249019408857,0.017267993382891665,0.07250513046819672,0.04915100004904372,0.009017451362595175
0.0507414,0.04786661305173977,0.02190915354587126,0.041876117148875444,0.0069744446061881914,0.017523491155815404,0.07294181068670387,0.04942944574421671,0.00905848299451266
0.0512069,0.047903339193215926,0.022048060893691122,0.042191556533384106,0.00706639996092087,0.017778114860891658,0.0733735307155941,0.04969613119963441,0.009098846171246565
0.0516724,0.0479349229414353,0.022186423978286893,0.042507263082976414,0.00715834720069809,0.018031890767767872,0.07380025728354225,0.04995112321338997,0.009138535714038498
0.0521379,0.04796139197873823,0.02232423212507968,0.04282323470410959,0.0072502772074706165,0.01828484512482946,0.07422195795499184,0.05019449070121988,0.00917754652497201
0.0526034,0.0479827749489079,0.022461474720955475,0.043139469126976936,0.007342180804285085,0.0185370041392528,0.07463860113241534,0.05042630466483977,0.00921587358750393
0.053069,0.04799910144387207,0.022598141214035337,0.043455963897907034,0.007434048756894479,0.018788393957063047,0.07505015605837304,0.05064663815988277,0.009253511966994324
0.0535345,0.04801040199018334,0.02273422111341074,0.043772716371825005,0.007525871775422866,0.01903904064320593,0.07545659281737019,0.05085556626345315,0.009290456811234988
0.054,0.04801670803528328,0.022869703988845635,0.04408972370477992,0.007617640516084676,0.019288970161642792,0.07585788233751149,0.05105316604130786,0.009326703350976372
0.0544655,0.04801805193355576,0.023004579470446783,0.04440698284654251,0.007709345582958826,0.019538208355478037,0.07625399639195164,0.05123951651467786,0.009362246900452745
0.054931,0.048014466932175155,0.023138837248304275,0.044724490533277164,0.007800977529817876,0.01978678092712805,0.07664490760014085,0.05141469862674129,0.00939708285790548
0.0553966,0.048005987156755636,0.02327246707210422,0.04504224328029219,0.007892526862012418,0.02003471341854054,0.07703058942886433,0.05157879520875967,0.009431206706104292
0.0558621,0.04799264759680752,0.023405458750715678,0.04536023737487203,0.007983984038410823,0.0202820311914732,0.07741101619307451,0.05173189094588803,0.00946461401286627
0.0563276,0.04797448409100703,0.023537802151753804,0.04567846886919567,0.008075339473394427,0.02052875940784046,0.07778616305651515,0.051874072342669574,0.009497300431572535
0.0567931,0.04795153331228622,0.02366948720112116,0.04599693357334529,0.008166583538908206,0.020774923010137225,0.07815600603213607,0.05200542768822517,0.00952926170168225
0.0572586,0.04792383275274954,0.023800503882528846,0.04631562704841022,0.00825770656656688,0.021020546701948514,0.07852052198229795,0.0521260470211476,0.009560493649243785
0.0577241,0.04789142070842421,0.02393084223699909,0.04663454459969134,0.00834869884981642,0.021265654928554072,0.0788796886187655,0.052236022094110456,0.00959099218740274
0.0581897,0.04785433626385098,0.02406049236235064,0.04695368127001187,0.008439550646150805,0.02151027185763732,0.07923348450248814,0.05233544633820151,0.009620753316906575
0.0586552,0.047812619276522056,0.02418944441266832,0.04727303183314042,0.008530252179383907,0.02175442136010807,0.07958188904316611,0.052424414826990465,0.009649773126605605
0.0591207,0.04776631036117291,0.024317688597758094,0.04759259078733217,0.008620793641976262,0.021998126991048722,0.07992488249859986,0.05250302424034173,0.009678047793950149
0.0595862,0.04771545087393439,0.024445215182588895,0.0479123523489942,0.008711165197416488,0.022241411970793715,0.0802624459738199,0.052571372827983236,0.009705573585483608
0.0600517,0.04766008289635152,0.024572014486722693,0.048232310446480194,0.008801356982657032,0.022484299166152074,0.0805945614199936,0.05262956037284288,0.009732346857331287
0.0605172,0.04760024921927575,0.024698076883734207,0.04855245871401971,0.008891359110603871,0.0227268110717827,0.0809212116331051,0.052677688154164314,0.009758364055684775
0.0609828,0.04753599332663691,0.024823392800621787,0.04887279048578692,0.008981161672659778,0.022968969791732234,0.0812423802524045,0.052715858910413756,0.009783621717281697
0.0614483,0.04746735937910143,0.024947952717210797,0.049193298790113284,0.009070754741320703,0.023210797021145143,0.08155805175862275,0.05274417680198982,0.00980811646988066
0.0619138,0.047394392197623016,0.025071747165550825,0.04951397634384843,0.009160128372824794,0.02345231402815578,0.0818682114719497,0.05276274737374839,0.009831845032731226
0.0623793,0.04731713724689229,0.02519476672930787,0.04983481554687292,0.009249272609853552,0.02369354163597218,0.08217284554977348,0.052771677517355266,0.009854804217038705
0.0628448,0.047235640618691094,0.025317002043152508,0.05015580847676673,0.009338177484284558,0.023934500205161312,0.08247194098418151,0.052771075433479656,0.009876990926423577
0.0633103,0.04714994901515753,0.025438443792145122,0.0504769468836363,0.009426833019995164,0.024175209616145617,0.08276548559922424,0.052761050593842104,0.009898402157375329
0.0637759,0.04706010973196712,0.02555908271111923,0.05079822218510305,0.009515229235716561,0.024415689251920874,0.08305346804794499,0.05274171370313019,0.00991903499970046
0.0642414,0.04696617064143519,0.025678909584063877,0.05111962546145598,0.009603356147937581,0.024655957981005536,0.08333587780917952,0.052713176660795516,0.009938886636964498
0.0647069,0.04686818017554557,0.025797915243506248,0.051441147450970386,0.009691203773857649,0.02489603414063182,0.08361270518413023,0.05267555252274525,0.009957954346927901
0.0651724,0.0467661873089105,0.02591609056989559,0.05176277854539457,0.009778762134388296,0.025135935520188904,0.08388394129272055,0.05262895546294173,0.009976235501975846
0.0656379,0.046660241541666335,0.026033426490989667,0.05208450878560602,0.009866021257202729,0.025375679344928594,0.0841495780697356,0.05257350073492398,0.009993727569542098
0.0661034,0.04655039288230943,0.026149913981244888,0.052406327857437915,0.009952971179832985,0.025615282259943663,0.08440960826075723,0.05250930463326505,0.010010428112527241
0.066569,0.046436691830476884,0.026265544061211163,0.05272822508767673,0.010039601952814198,0.0258547603144292,0.0846640254179021,0.05243648445497946,0.010026334789711693
0.0670345,0.046319189359676424,0.026380307796932595,0.0530501894402309,0.010125903642875547,0.026094128946237135,0.08491282389537289,0.05235515846089528,0.010041445356164018
0.0675,0.04619793689997009,0.02649419629935503,0.05337220951247042,0.010211866336177426,0.026333402966734237,0.08515599884483345,0.052265445837005466,0.010055757663645056
0.0679655,0.04607298632061607,0.02660720072374146,0.05369427353173655,0.01029748014159433,0.02657259654597361,0.08539354621061883,0.05216746665581385,0.010069269661008446
0.068431,0.04594438991267319,0.026719312269096077,0.05401636935202056,0.01038273519404294,0.026811723198189766,0.08562546272479056,0.052061341837691066,0.010081979394598067
0.0688966,0.04581220037157266,0.026830522177597682,0.05433848445081014,0.01046762165785486,0.02705079576762714,0.08585174590204805,0.05194719311225636,0.010093885008643017
0.0693621,0.04567647077966137,0.02694082173404292,0.05466060592610177,0.01055212973019338,0.027289826414711782,0.08607239403450613,0.05182514297980127,0.010104984745650799
0.0698276,0.04553725458872093,0.02705020226529987,0.05498272049357695,0.010636249644513603,0.02752882660257583,0.08628740618634818,0.05169531467277125,0.010115276946799411
0.0702931,0.0453946056024666,0.027158655139772416,0.05530481448393997,0.010719971674065262,0.027767807083944246,0.08649678218836454,0.05155783211732129,0.010124760052329146
0.0707586,0.04524857795903046,0.027266171766875798,0.05562687384041473,0.010803286135437505,0.02800677788839306,0.08670052263238495,0.051412819894961596,0.010133432601934922
0.0712241,0.04509922611343349,0.027372743596523766,0.05594888411639738,0.010886183392144868,0.028245748309988102,0.08689862886561397,0.05126040320430913,0.01014129323515993
0.0716897,0.044946604820051535,0.027478362118627857,0.05627083047326162,0.010968653858253592,0.02848472689531308,0.08709110298487789,0.05110070782296061,0.01014834069179142
0.0721552,0.044790769115080814,0.027583018862609124,0.05659269767831282,0.011050688002047488,0.028723721431895548,0.08727794783079247,0.05093386006950224,0.010154573812259355
0.0726207,0.044631774299008976,0.02768670539692283,0.05691447010288691,0.011132276349732394,0.02896273893703919,0.08745916698186115,0.05075998676567118,0.010159991538038765
0.0730862,0.04446967591909772,0.027789413328596555,0.057236131720589764,0.01121340948917829,0.029201785647070586,0.08763476474851332,0.05057921519868331,0.010164592912056557
0.0735517,0.04430452975188341,0.027891134302782155,0.057557666105672776,0.01129407807369807,0.029440867007008452,0.0878047461670933,0.05039167308374152,0.010168377079103667
0.0740172,0.04413639178570159,0.02799186000232211,0.05787905643154053,0.011374272825861845,0.02967998766066307,0.08796911699380974,0.05019748852673817,0.010171343286253432
0.0744828,0.043965318203241316,0.028091582147330752,0.05820028546938706,0.01145398454134565,0.029919151441173412,0.08812788369865521,0.04999678998716517,0.010173490883287109
0.0749483,0.0437913653641348,0.02819029249479093,0.05852133558695801,0.011533204092813231,0.03015836136198924,0.0882810534593048,0.04978970624124445,0.010174819323127395
0.0754138,0.04361458978758766,0.028287982838166584,0.05884218874743677,0.01161192243382966,0.030397619608305167,0.08842863415500207,0.049576366345291695,0.010175328162280834
0.0758793,0.04343504813505481,0.028384645007031584,0.059162826508453094,0.011690130602805293,0.03063692752895346,0.08857063436043976,0.04935689959932515,0.010175017061289982
0.0763448,0.04325279719296689,0.028480270866715115,0.059483230021213696,0.011767819726968727,0.03087628562876211,0.08870706333964225,0.04913143551093171,0.010173885785196186
0.0768103,0.04306789385551207,0.02857485231796368,0.05980338002975407,0.011844981026367309,0.031115693561384508,0.08883793103985639,0.048900103759401604,0.010171934204013825
0.0772759,0.04288039510747824,0.028668381296619843,0.06012325687031144,0.011921605817893803,0.03135515012260679,0.08896324808545672,0.048663034160143066,0.010169162293216833
0.0777414,0.04269035800716035,0.028760849773318102,0.060442840470819194,0.011997685519337793,0.03159465324413892,0.08908302577187045,0.0484203566293883,0.010165570134238347
0.0782069,0.0424978396693376,0.028852249753198653,0.06076211035052369,0.01207321165346037,0.03183419998789502,0.08919727605952714,0.04817220114920147,0.010161157914984212
0.0786724,0.042302897248325214,0.028942573275640163,0.06108104561972475,0.012148175852090708,0.03207378654076872,0.08930601156783745,0.047918697732799304,0.010155925930361057
0.0791379,0.042105587921105116,0.029031812414013456,0.06139962497964135,0.012222569860243036,0.03231340820990868,0.08940924556920446,0.0476599763901949,0.010149874582819551
0.0796034,0.041905968870540086,0.02911995927545835,0.06171782672240399,0.012296385540252497,0.03255305941849945,0.08950699198307054,0.04739616709417461,0.010143004382913443
0.080069,0.04170409726867611,0.029207006000686302,0.062035628731175185,0.012369614875928333,0.032792733702052365,0.08959926537000229,0.04712739974661806,0.010135315949874853
0.0805345,0.04150003026013764,0.02929294476381176,0.06235300848039869,0.012442249976722802,0.03303242370521098,0.0896860809258156,0.04685380414517079,0.010126810012206276
0.081,0.041293824945620804,0.029377767772215135,0.06266994303617801,0.012514283081914128,0.03327212117907533,0.08976745447574255,0.04657550995027907,0.010117487408289702
0.0814655,0.04108553836548988,0.02946146726644023,0.06298640905678428,0.012585706564801725,0.03351181697904894,0.08984340246864223,0.04629264665259575,0.010107349087013178
0.081931,0.040875227483482386,0.02954403552012923,0.06330238279329296,0.012656512936911953,0.03375150106321219,0.08991394197125763,0.04600534354076619,0.010096396108415095
0.0823966,0.04066294917052837,0.029625464839998186,0.06361784009034878,0.012726694852212499,0.03399116249122568,0.08997909066252062,0.04571372966960267,0.010084629644346447
0.0828621,0.04044876018868957,0.029705747565856155,0.06393275638705742,0.012796245111333497,0.03423078942376645,0.09003886682790715,0.04541793382865538,0.010072050979151252
0.0833276,0.04023271717522399,0.02978487607067132,0.06424710671800313,0.012865156665793387,0.034470369122500094,0.09009328935384538,0.045118084511188115,0.01005866151036534
0.0837931,0.04001487662678135,0.02986284276068739,0.06456086571439051,0.012933422622227492,0.034709887950591205,0.09014237772217887,0.0448143098835658,0.010044462749433684
0.0842586,0.039795294883734594,0.029939640075593504,0.06487400760530967,0.01300103624661722,0.034949331373754666,0.09018615200468753,0.04450673775506139,0.010029456322446503
0.0847241,0.039574028114652465,0.030015260488751014,0.0651865062191235,0.013067990968517733,0.035188683961849675,0.09022463285766906,0.044195495548088964,0.010013643970894413
0.0851897,0.03935113230091765,0.03008969650748014,0.06549833498497636,0.013134280385281872,0.035427929391018284,0.09025784151658395,0.043880710268869486,0.009997027552442925
0.0856552,0.03912666322149522,0.030162940673409383,0.06580946693442326,0.013199898266278102,0.035667050446369974,0.0902857997907673,0.043562508478535704,0.00997960904172661
0.0861207,0.038900676437855525,0.030234985562890428,0.0661198747031788,0.013264838557100155,0.035906029025213476,0.09030853005820999,0.043241016264682096,0.0099613905311632
0.0865862,0.03867322727905609,0.03030582378748104,0.06642953053298527,0.013329095383766037,0.03614484614083677,0.09032605526041135,0.04291635921336567,0.009942374231787916
0.0870517,0.038444370826986735,0.030375447994498234,0.06673840627359993,0.013392663056903979,0.03638348192683601,0.09033839889730477,0.042588662381563044,0.009922562474108238
0.0875172,0.038214161901782374,0.03044385086764381,0.06704647338490236,0.013455536075922904,0.03662191564199365,0.09034558502225712,0.042258050270088936,0.009901957708979395
0.0879828,0.03798265504740813,0.030511025127704334,0.0673537029391229,0.01351770913316503,0.03686012567570585,0.09034763823714227,0.04192464679698092,0.009880562508500829
0.0884483,0.03774990451742154,0.03057696353332722,0.06766006562319532,0.01357917711803814,0.03709808955395899,0.09034458368748914,0.041588575271355184,0.009858379566933927
0.0889138,0.0375159642609167,0.030641658881874617,0.06796553174123586,0.013639935121125022,0.037335783945854635,0.0903364470577042,0.041249958367737344,0.009835411701641341
0.0893793,0.03728088790865576,0.030705104010356504,0.06827007121715262,0.01369997843826769,0.03757318467068224,0.09032325456636842,0.04090891810087225,0.00981166185404811
0.0898448,0.03704472875939312,0.030767291796444194,0.06857365359738841,0.013759302574623856,0.03781026670553839,0.09030503296160834,0.04056557580101646,0.009787133090624815
0.0903103,0.03680753976639783,0.030828215159565336,0.06887624805380071,0.01381790324869326,0.03804700419349122,0.09028180951654122,0.040220052089716615,0.00976182860389288
0.0907759,0.03656937352418004,0.03088786706208125,0.0691778233866819,0.013875776396311242,0.038283370452288516,0.09025361202479318,0.039872466856076885,0.009735751713452088
0.0912414,0.036330282255427115,0.030946240510547195,0.06947834802792349,0.013932918174607054,0.0385193379836076,0.09022046879608975,0.03952293923351813,0.00970890586703033
0.0917069,0.03609031779815509,0.031003328557056033,0.06977779004432752,0.013989324965924265,0.03875487848284498,0.09018240865191741,0.039171587577031375,0.009681294641555526
0.0921724,0.0358495315930813,0.031059124300665514,0.07007611714106847,0.014044993381700519,0.03898996284944345,0.0901394609212549,0.038818529440927854,0.009652921744249632
0.0926379,0.03560797467122378,0.031113620888909246,0.0703732966653091,0.014099920266303785,0.03922456119775398,0.09009165543637271,0.0384638815570876,0.009623791013744614
0.0931034,0.03536569764173292,0.031166811519391206,0.07066929560997345,0.014154102700822206,0.03945864286842942,0.09003902252869941,0.0381077598137083,0.009593906421220197
0.093569,0.035122750679961054,0.031218689441463412,0.07096408061768059,0.014207538006804514,0.039692176440346824,0.08998159302475361,0.037750279234555956,0.009563272071563147
0.0940345,0.03487918351577496,0.03126924795798622,0.07125761798484327,0.014260223749947946,0.039925129743054545,0.08991939824214025,0.037391553958718377,0.009531892204547827
0.0945,0.03463504542211641,0.03131848042717049,0.07154987366593712,0.014312157743730528,0.040157469869740364,0.08985246998560968,0.03703169722086273,0.009499771196037671
0.0949655,0.0343903852038155,0.031366380264500664,0.07184081327794667,0.014363338052984556,0.04038916319071621,0.08978084054317823,0.03667082133199786,0.009466913559207292
0.095431,0.03414525118666128,0.03141294094473767,0.07213040210499601,0.014413762997408139,0.04062017536741496,0.08970454268230875,0.036309037660741936,0.009433323945784862
0.0958966,0.033899691206733806,0.03145815600400041,0.07241860510317237,0.014463431155011598,0.040850471366894285,0.08962360964615013,0.0359464566150961,0.009399007147314443
0.0963621,0.03365375260000176,0.031502019041924414,0.07270538690555083,0.014512341365495665,0.04108001547684231,0.089538075149834,0.035583187624724226,0.009363968096437887
0.0968276,0.033407482192189066,0.03154452372389605,0.07299071182742839,0.014560492733558444,0.04130877132107945,0.0894479733768274,0.035219339123739,0.009328211868195933
0.0972931,0.03316092628891426,0.031585663783360605,0.07327454387177507,0.014607884632128207,0.04153670187555062,0.08935333897533958,0.034855018533994114,0.009291743681347992
0.0977586,0.03291413066610568,0.03162543302420221,0.07355684673490902,0.014654516705519285,0.04176376948480181,0.08925420705478095,0.03449033224888211,0.009254568899710096
0.0982241,0.0326671405606955,0.03166382532319367,0.07383758381240242,0.014700388872508442,0.04198993587893448,0.08915061318227226,0.034125385617637255,0.00921669303351038
0.0986897,0.032420000661595436,0.031700834632513976,0.07411671820522416,0.014745501329329358,0.04221516219103133,0.0890425933792017,0.03376028293014251,0.009178121740761411
0.0991552,0.03217275510095644,0.03173645498233126,0.07439421272612469,0.014789854552582946,0.042439408975046625,0.08893018411782767,0.03339512740223926,0.009138860828648608
0.0996207,0.031925447445714766,0.03177068048344903,0.07467002990626792,0.014833449302061458,0.0426626362241542,0.08881342231792495,0.03303002116153841,0.009098916254933916
0.1000862,0.031678120689426235,0.0318035053300134,0.07494413200211457,0.014876286623484442,0.04288480338954582,0.08869234534347159,0.032665065233730924,0.009058294129373833
0.1005517,0.031430817244390494,0.03183492380227943,0.07521648100256076,0.014918367851144736,0.04310586939967244,0.08856699099937389,0.032300359529395944,0.009017000715150781
0.1010172,0.031183578934066595,0.031864930269434884,0.07548703863633525,0.014959694610462823,0.043325792679920656,0.08843739752822624,0.031936002831303906,0.00897504243031681
0.1014828,0.03093644698578121,0.03189351919247981,0.07575576637965804,0.01500026882044787,0.04354453117271626,0.08830360360710288,0.03157209278221224,0.008932425849248455
0.1019483,0.030689462023730473,0.031920685127160515,0.07602262546416268,0.015040092696063895,0.04376204235804643,0.08816564834437769,0.031208725873150895,0.00888915770411157
0.1024138,0.030442664062276317,0.03194642272695639,0.0762875768850841,0.015079168750499498,0.043978283274391815,0.08802357127656822,0.030845997432194693,0.008845244886334869
0.1028793,0.030196092499538002,0.03197072674611833,0.07655058140971338,0.01511749979733954,0.04419321054005956,0.0878774123651995,0.030484001613719478,0.00880069444809083
0.1033448,0.029949786111279644,0.03199359204275726,0.07681159958612033,0.01515508895263712,0.044406780374907764,0.08772721199368351,0.030122831388138666,0.008755513603782544
0.1038103,0.0297037830450943,0.03201501358198168,0.07707059175214423,0.015191939636884108,0.04461894862245163,0.08757301096420997,0.02976257853211662,0.008709709731535063
0.1042759,0.029458120814885295,0.03203498643908321,0.07732751804465304,0.015228055576878388,0.04482967077234143,0.08741485049464445,0.02940333361925509,0.008663290374689691
0.1047414,0.029212836295645504,0.03205350580276912,0.07758233840907057,0.015263440807485842,0.04503890198320163,0.08725277221543028,0.029045186011248694,0.008616263243299649
0.1052069,0.028967965718535202,0.032070566978441115,0.07783501260917063,0.015298099673295044,0.045246597105820546,0.08708681816649073,0.02868822384950521,0.008568636215625423
0.1056724,0.02872354466625922,0.03208616539151944,0.07808550023713709,0.015332036830162524,0.04545271070667938,0.08691703079412809,0.02833253404722644,0.008520417339628085
0.1061379,0.028479608068744017,0.03210029659081129,0.07833376072388826,0.01536525724664641,0.045657197091809265,0.08674345294791572,0.027978202281945204,0.008471614834458805
0.1066034,0.028236190199115385,0.03211295625192257,0.07857975334966343,0.015397766205326196,0.045860010330964714,0.08656612787757897,0.027625312988513975,0.008422237091942739
0.107069,0.027993324669977365,0.03212414018071193,0.07882343725486916,0.015429569304006473,0.046061104282101924,0.0863850992298599,0.027273949352540416,0.008372292678055433
0.1075345,0.02775104442999279,0.032133844316785794,0.07906477145118244,0.015460672456802433,0.04626043261614955,0.08620041104535997,0.026924193304265043,0.008321790334389874
0.108,0.027509381760765835,0.032142064737033196,0.07930371483290741,0.015491081895104902,0.046457948842059824,0.0860121077553553,0.026576125512876022,0.00827073897961232
0.1084655,0.027268368274026636,0.03214879765919904,0.07954022618858199,0.01552080416842288,0.04665360633212722,0.08582023417857816,0.026229825381255827,0.00821914771090502
0.108931,0.027028034909117937,0.032154039445494616,0.07977426421283049,0.015549846145101496,0.04684735834756195,0.08562483551795876,0.025885371041154428,0.00816702580539392
0.1093966,0.026788411930783445,0.03215778660624392,0.08000578751845795,0.015578215012913406,0.04703915806430504,0.08542595735732136,0.02554283934878344,0.008114382721559408
0.1098621,0.02654952892725727,0.03216003580356445,0.08023475464878226,0.015605918279521772,0.04722895859907157,0.08522364565802959,0.02520230588082561,0.00806122810062818
0.1103276,0.02631141480865388,0.032160783855080935,0.08046112409019945,0.01563296377281302,0.047416713035608384,0.08501794675557432,0.02486384493085394,0.008007571767944213
0.1107931,0.026074097805657694,0.03216002773767016,0.08068485428497774,0.01565935964109773,0.047602374451152084,0.08480890735609896,0.024527529506154905,0.007953423734316916
0.1112586,0.02583760546851149,0.032157764591235,0.08090590364427495,0.015685114353178094,0.047785895943073156,0.08459657453285567,0.024193431324950353,0.0078987941973444
0.1117241,0.025601964666302875,0.03215399172250528,0.0811242305613739,0.015710236698280578,0.047967230655691216,0.08438099572258739,0.02386162081401254,0.007843693542709881
0.1121897,0.02536720158654804,0.03214870660886312,0.08133979342512924,0.01573473578585257,0.0481463318072466,0.08416221872183133,0.02353216710666717,0.00778813234544909
0.1126552,0.025133341735071923,0.03214190690219001,0.08155255063361942,0.01575862104522183,0.0483231527170127,0.0839402916831401,0.023205138041179112,0.0077321213711866255
0.1131207,0.024900409936183972,0.032133590432732895,0.08176246060799582,0.015781902225117782,0.04849764683253348,0.08371526311121777,0.022880600159515603,0.007675671577339059
0.1135862,0.02466843033314845,0.03212375521298656,0.08196948180652168,0.015804589393053695,0.048669767756970114,0.0834871818589677,0.02255861870648162,0.0076187941142826275
0.1140517,0.02443742638894819,0.032112399441589765,0.08217357273879289,0.01582669293456899,0.04883946927654053,0.08325609712344931,0.022239257629222256,0.0075615003264833626
0.1145172,0.02420742088734051,0.0320995215072326,0.08237469198013236,0.015848223552330943,0.049006705388034984,0.08302205844174128,0.021922579577086824,0.007503801753587536
0.1149828,0.023978435934203773,0.03208511999257276,0.0825727981861497,0.01586919226509506,0.04917143032639061,0.0827851156867088,0.021608645901849338,0.007445710131470446
0.1154483,0.023750492959173072,0.03206919367815814,0.0827678501074574,0.015889610406523685,0.04933359859230738,0.08254531906267389,0.021297516658280037,0.007387237393241666
0.1159138,0.023523612717563414,0.0320517415463533,0.0829598066045349,0.015909489623862204,0.049493164979887636,0.08230271910098906,0.020989250605062394,0.007328395670205003
0.1163793,0.02329781529257862,0.03203276278526722,0.08314862666273103,0.015928841876472442,0.04965008460428107,0.0820573666555154,0.020683905206049853,0.007269197292771484
0.1168448,0.023073120097804236,0.032012256792679494,0.08333426940739527,0.015947679434222733,0.04980431292931672,0.08180931289800702,0.020381536631856583,0.007209654791323736
0.1173103,0.022849545879982548,0.03199022317996254,0.08351669411912797,0.015966014875734152,0.04995580579510315,0.08155860931340406,0.0200821997617762,0.007149780897030118
0.1177759,0.022627110722067818,0.03196666177599722,0.08369586024913891,0.01598386108648227,0.050104519445577964,0.0813053076950358,0.019785948186022403,0.007089588542606972
0.1182414,0.022405832046559774,0.03194157263107937,0.08387172743470336,0.01600123125675376,0.05025041055598759,0.08104946013973598,0.019492834208285344,0.007029090863027362
0.1187069,0.022185726619113225,0.03191495602081506,0.08404425551470417,0.016018138879457015,0.050393436260278014,0.08079111904287115,0.01920290884859751,0.006968301196174754
0.1191724,0.02196681055242166,0.03188681245000185,0.08421340454524781,0.016034597747785893,0.05053355417837694,0.08053033709328347,0.018916221846502868,0.006907233083440152
0.1196379,0.021749099310372545,0.03185714265649361,0.08437913481534202,0.016050621952735447,0.0506707224433478,0.08026716726814868,0.018632821664522882,0.006845900270261333
0.1201034,0.021532607712471938,0.03182594761504604,0.08454140686262186,0.016066225880468632,0.05080489972839562,0.08000166282775022,0.01835275549191299,0.006784316706602873
0.120569,0.021317349938535988,0.031793228541140146,0.08470018148911092,0.01608142420953277,0.05093604527370452,0.07973387731017052,0.018076069248703145,0.006722496547375759
0.1210345,0.02110333953364669,0.03175898689478068,0.08485541977700446,0.016096231907924537,0.05106411891308633,0.07946386452590004,0.01780280759001608,0.006660454152795422
0.1215,0.020890589413369215,0.03172322438426684,0.08500708310446105,0.016110664230002292,0.051189081100419545,0.07919167855236399,0.017533013910656994,0.006598204088676993
0.1219655,0.02067911186922785,0.031685942969932455,0.08515513316138967,0.016124736713244558,0.051310892935857506,0.07891737372836687,0.01726673034996853,0.006535761126666627
0.122431,0.02046891857443757,0.03164714486785335,0.08529953196521989,0.016138465174853497,0.05142951619178473,0.07864100464845405,0.017003997796945152,0.006473140244407683
0.1228966,0.020260020589888066,0.03160683255351935,0.08544024187664216,0.01615186570820225,0.051544913338499976,0.07836262615718972,0.01674485589560118,0.00641035662564048
0.1233621,0.0200524283703768,0.031565008765468784,0.08557722561530616,0.01616495467912512,0.051657047569604826,0.07808229334334929,0.016489343050586924,0.006347425660234379
0.1238276,0.01984615177108767,0.03152167650888307,0.08571044627546408,0.01617774872204958,0.051765882827076955,0.07780006153402526,0.016237496433047328,0.006284362944150832
0.1242931,0.019641200054311653,0.03147683905913942,0.08583986734154578,0.0161902647359693,0.05187138382600809,0.07751598628864395,0.015989351986717568,0.006221184279336056
0.1247586,0.019437581896405706,0.03143049996531944,0.08596545270365336,0.01620251988025732,0.05197351607898738,0.0772301233928912,0.015744944434250143,0.006157905673541929
0.1252241,0.019235305394986097,0.031382663053671656,0.08608716667296278,0.016214531570318734,0.05207224592011179,0.07694252885254459,0.015504307283767933,0.0060945433400737044
0.1256897,0.01903437807635232,0.031333332431025804,0.08620497399702129,0.016226317473082234,0.05216754052860538,0.07665325888720999,0.015267472835637794,0.006031113697463149
0.1261552,0.01883480690313757,0.03128251248815693,0.08631883987493022,0.016237895502330037,0.05225936795203,0.07636236992396009,0.015034472189459303,0.005967633369065697
0.1266207,0.018636598282181838,0.03123020790309709,0.0864287299724032,0.016249283813865745,0.05234769712906965,0.0760699185908725,0.014805335251263176,0.005904119182580266
0.1270862,0.01843975807262359,0.031176423644392805,0.08653461043669061,0.0162605008005198,0.052432497911871496,0.07577596171046454,0.014580090740913971,0.005840588169490395
0.1275517,0.01824429159420601,0.03112116497430622,0.08663644791136031,0.016271565086992325,0.052513741087926925,0.07548055629302144,0.014358766199711513,0.005777057564425376
0.1280172,0.018050203635793752,0.031064437451958006,0.0867342095509252,0.016282495524533126,0.052591398401476745,0.07518375952981467,0.014141387998185564,0.005713544804440077
0.1284828,0.017857498464096244,0.031006246936409958,0.0868278630353075,0.016293311185458837,0.052665442574424806,0.07488562878620614,0.013927981344078204,0.005650067528212141
0.1289483,0.017666179832593495,0.03094659958968499,0.08691737658413026,0.01630403135750718,0.05273584732674494,0.07458622159463461,0.01371857029050846,0.00558664357515533
0.1294138,0.01747625099066041,0.03088550187972233,0.08700271897082648,0.016314675538028425,0.0528025873963657,0.07428559564747991,0.013513177744313752,0.0055232909844479304
0.1298793,0.017287714692885602,0.0308229605832655,0.08708385953655604,0.016325263428014172,0.05286563855851728,0.07398380878980047,0.013311825474562748,0.005460027993975213
0.1303448,0.017100573208580737,0.03075898278868077,0.08716076820392146,0.016335814925963723,0.05292497764452485,0.07368091901193975,0.01311453412123434,0.0053968730391851525
0.1308103,0.0169148283314764,0.03069357589870374,0.08723341549047284,0.016346350121588294,0.052980582560032505,0.07337698444199697,0.012921323204057486,0.005333844751856717
0.1312759,0.016730481389600437,0.030626747633111566,0.08730177252199207,0.016356889289353516,0.05303243230264211,0.07307206333815787,0.01273221113150671,0.005270961958780109
0.1317414,0.016547533255334753,0.030558506031318478,0.08736581104554782,0.01636745288186061,0.053080506978951905,0.07276621408088131,0.012547215209948033,0.005208243680348372
0.1322069,0.016365984355646557,0.030488859454892176,0.0874255034423114,0.016378061523066857,0.05312478782098018,0.07245949516493849,0.012366351652930159,0.005145709129059839
0.1326724,0.01618583468248988,0.030417816589988707,0.08748082274012516,0.01638873600134597,0.053165257201960345,0.07215196519130276,0.01218963559061579,0.005083377707930943
0.1331379,0.01600708380337319,0.030345386449703683,0.08753174262581526,0.01639949726238914,0.05320189865149419,0.07184368285888902,0.012017081079348008,0.005021269008818938
0.1336034,0.01582973087208881,0.030271578376337538,0.08757823745724089,0.01641036640194762,0.05323469687005096,0.07153470695614322,0.011848701111346756,0.004959402810654169
0.134069,0.015653774639599785,0.030196402043572677,0.0876202822750724,0.016421364658417766,0.05326363774280048,0.07122509635248318,0.011684507624530518,0.004897799077581521
0.1345345,0.015479213465079706,0.030119867458560278,0.0876578528142905,0.01643251340526959,0.05328870835276928,0.07091490998959225,0.011524511512458308,0.004836477957010712
0.135,0.015306045327101052,0.030041984963914574,0.08769092551539902,0.016443834143319888,0.05330989699331017,0.07060420687256833,0.011368722634387035,0.004775459777575106
0.1354655,0.015134267834967454,0.029962765239612433,0.08771947753534302,0.016455348492851008,0.05332719317987793,0.07029304606093106,0.011217149825439343,0.004714765046998731
0.135931,0.014963878240185392,0.02988221930479619,0.08774348675812434,0.01646707818557648,0.053340587661105866,0.06998148665949067,0.011069800906876918,0.0046544144498711915
0.1363966,0.014794873448070721,0.029800358519477994,0.08776293180510586,0.016479045056454658,0.05335007242918039,0.06966958780908224,0.010926682696474285,0.004594428845330186
0.1368621,0.014627250029485476,0.02971719458614401,0.08777779204499725,0.016491271035351703,0.053355640729511766,0.06935740867717011,0.01078780101898798,0.004534829264651361
0.1373276,0.014461004232700417,0.02963273955125689,0.08778804760351547,0.01650377813855545,0.053357287069700214,0.06904500844832642,0.010653160716716093,0.004475636908745253
0.1377931,0.01429613199537877,0.02954700580665513,0.0877936793727162,0.016516588460142066,0.05335500722779718,0.06873244631458904,0.010522765660143017,0.00441687314556112
0.1382586,0.014132628956676678,0.02946000609084803,0.08779466901999484,0.01652972416319812,0.053348798259862336,0.06841978146570371,0.010396618758664284,0.004358559507397489
0.1387241,0.013970490469455919,0.02937175349020487,0.08779099899675821,0.016543207470901402,0.05333865850681737,0.06810707307925577,0.010274721971386295,0.0043007176881192846
0.1391897,0.013809711612604395,0.02928226144003687,0.08778265254676991,0.01655706065746468,0.05332458760059822,0.0677943803106963,0.010157076317995634,0.004243369540281448
0.1396552,0.013650287203459833,0.02919154372557051,0.08776961371417398,0.01657130603894716,0.05330658646960759,0.06748176228326815,0.01004368188969267,0.004186537072159013
0.1401207,0.013492211810332113,0.0290996144828108,0.08775186735120225,0.01658596596393912,0.05328465734346975,0.06716927807783712,0.009934537860184082,0.004130242444683645
0.1405862,0.013335479765119552,0.02900648819929309,0.08772939912557136,0.016601062804125585,0.05325880375709,0.06685698672263457,0.009829642496729,0.004074507968286716
0.1410517,0.013180085176014374,0.028912179714722347,0.08770219552757665,0.016616618944735304,0.053229030554021735,0.06654494718291698,0.009728993171233494,0.0040193560996489965
0.1415172,0.013026021940292601,0.028816704221498964,0.08767024387689072,0.016632656774881772,0.05319534388914421,0.06623321835054953,0.009632586371388219,0.00396480943835714
0.1419828,0.012873283757183484,0.028720077265130282,0.08763353232907495,0.016649198677803106,0.05315775123065486,0.06592185903351945,0.00954041771184414,0.0039108907234672325
0.1424483,0.012721864140813622,0.028622314744527137,0.08759204988181223,0.016666267021007857,0.05311626136138004,0.06561092794538541,0.009452481945421455,0.0038576228299757364
0.1429138,0.012571756433220907,0.02852343291218475,0.08754578638086981,0.016683884146334007,0.05307088437940846,0.06530048369466863,0.009368772974346979,0.0038050287651983216
0.1433793,0.012422953817433283,0.028423448374247245,0.08749473252580033,0.016702072359928346,0.05302163169805169,0.06499058477419073,0.009289283861515554,0.00375313166505711
0.1438448,0.012275449330607351,0.028322378090455066,0.08743887987538874,0.01672085392215344,0.052968516045136006,0.06468128955036327,0.009214006841771209,0.0037019547902769298
0.1443103,0.012129235877221707,0.02822023937397436,0.08737822085285278,0.016740251037429446,0.0529115514616301,0.06437265625243366,0.009142933333203939,0.0036515215224912096
0.1447759,0.011984306242319867,0.028117049891107585,0.08731274875080335,0.016760285844017807,0.05285075329961396,0.06406474296169164,0.00907605394845809,0.0036018553602581663
0.1452414,0.011840653104797642,0.028012827660884677,0.08724245773597139,0.016780980403753837,0.05278613821959421,0.06375760760064116,0.009013358506048386,0.003552979914987965
0.1457069,0.011698269050729699,0.02790759105453421,0.08716734285370727,0.016802356691735097,0.0527177241871721,0.06345130792214171,0.008954836041679622,0.0035049189067815375
0.1461724,0.01155714658673012,0.02780135879483423,0.08708740003225805,0.016824436585972352,0.052645530469070535,0.06314590149852364,0.00890047481956612,0.003457696160181755
0.1466379,0.011417278153341745,0.02769414995534245,0.08700262608682824,0.016847241857009837,0.0525695776285269,0.0628414457106817,0.008850262343747074,0.0034113355998376485
0.1471034,0.011278656138448993,0.027585983959505365,0.0869130187234287,0.016870794157521553,0.0524898875200584,0.0625379977371511,0.008804185369393935,0.0033658612460823797
0.147569,0.011141272890708983,0.027476880579646038,0.08681857654251844,0.016895115011890307,0.05240648328360721,0.06223561454317064,0.008762229914106044,0.0033212972104256794
0.1480345,0.011005120732995654,0.0273668599358299,0.08671929904244322,0.01692022580577624,0.0523193893380731,0.06193435286973808,0.008724381269190685,0.0032776676909615056
0.1485,0.01087019197585171,0.027255942494608172,0.08661518662267491,0.01694614777568159,0.05222863137424143,0.0616342692226633,0.008690624010923702,0.0032349969676917184
0.1489655,0.010736478930943158,0.027144149067638214,0.08650624058685501,0.016972901998518523,0.05213423634711492,0.061335419861625336,0.00866094201178682,0.0031933093977666036
0.149431,0.010603973924511212,0.027031500810180124,0.08639246314564594,0.017000509381186937,0.05203623246765717,0.06103786078923925,0.008635318451677738,0.003152629410643127
0.1498966,0.010472669310816364,0.026918019219469066,0.08627385741939476,0.017028990650169117,0.051934649193956454,0.06074164774013864,0.008613735829089022,0.0031129815031618515
0.1503621,0.010342557485569406,0.026803726132962922,0.08615042744061292,0.017058366341148275,0.05182951722181867,0.06044683617007904,0.008596175972251796,0.0030743902345434742
0.1508276,0.010213630899344116,0.026688643726465074,0.08602217815627616,0.01708865678865796,0.05172086847479878,0.060153481245067336,0.008582620050240257,0.0030368802213059454
0.1512931,0.0100858820709664,0.02657279451212211,0.08588911542994897,0.017119882115769543,0.05160873609368061,0.05986163783052177,0.00857304858403313,0.003000476132103167
0.1517586,0.009959303600874549,0.026456201336296354,0.08575124604373756,0.017152062223824847,0.051493154425415244,0.05957136048046655,0.008567441457528371,0.002965202682486244
0.1522241,0.009833888184445298,0.026338887377313273,0.0856085777000754,0.017185216782221152,0.05137415901152843,0.05928270342676541,0.008565777928507724,0.002931084629588284
0.1526897,0.009709628625280254,0.026220876143083865,0.08546111902334509,0.017219365218255754,0.05125178657600716,0.058995720568397955,0.008568036639548122,0.00289814676673375
0.1531552,0.009586517848447202,0.026102191468602595,0.08530887956134037,0.01725452670703732,0.05112607501267589,0.05871046546078286,0.008574195628877276,0.0028664139179733587
0.1536207,0.00946454891367077,0.025982857513321553,0.08515186978657123,0.01729072016147131,0.05099706337207321,0.05842699130515156,0.008584232341171118,0.0028359109325455573
0.1540862,0.009343715028466813,0.0258628987584018,0.08499010109741517,0.017327964222326707,0.05086479184784057,0.05814535093797617,0.008598123638291082,0.0028066626792656165
0.1545517,0.009224009561214882,0.02574234000384304,0.0848235858191174,0.01736627724839127,0.05072930176263575,0.05786559682045495,0.008615845809959456,0.0027786940408433846
0.1550172,0.009105426054163136,0.02562120636549282,0.08465233720464257,0.01740567730672248,0.05059063555358468,0.057587781028058664,0.00863737458437122,0.002752029908130776
0.1554828,0.008987958236360056,0.025499523271936404,0.08447636943538052,0.017446182163001287,0.05044883675728548,0.05731195524014093,0.008662685138740979,0.0027266951743000574
0.1559483,0.008871600036507384,0.025377316461268572,0.08429569762170816,0.017487809271995752,0.05030394999437889,0.0570381707296162,0.008691752109783684,0.0027027147289540063
0.1564138,0.008756345595728797,0.025254611977748552,0.08411033780340908,0.017530575768141536,0.050156020953699615,0.056766478352708184,0.008724549604127958,0.002680113452168995
0.1568793,0.008642189280248874,0.025131436168339405,0.08392030694995242,0.017574498456246215,0.05000509637602309,0.056496928538772036,0.008761051208660884,0.0026589162084720767
0.1573448,0.008529125693977067,0.02500781567913324,0.0837256229606316,0.017619593802324304,0.049851224037422426,0.05622957128019294,0.008801230000803227,0.002639147840753146
0.1578103,0.008417149690991365,0.024883777451663765,0.08352630466456329,0.017665877924569796,0.04969445273225067,0.055964456122363636,0.008845058558714055,0.002620833164113278
0.1582759,0.008306256387916567,0.024759348719107687,0.08332237182054618,0.017713366584472912,0.04953483225576343,0.055701632153743456,0.008892508971423857,0.0026039969596503517
0.1587414,0.00819644117619206,0.02463455700237642,0.08311384511677865,0.017762075178087772,0.049372413386397446,0.0554411479960012,0.008943552848895246,0.002588663968183097
0.1592069,0.00808769973422413,0.02450943010609953,0.08290074617043382,0.017812018727457506,0.04920724786772071,0.05518305179424427,0.00899816133201036,0.0025748588839147163
0.1596724,0.007980028039417952,0.024383996114501236,0.08268309752708979,0.01786321187220324,0.04903938839007001,0.05492739120733593,0.009056305102484057,0.002562606348037246
0.1601379,0.007873422380084457,0.024258283387171124,0.08246092266001226,0.017915668861283252,0.04886888857189149,0.0546742133983026,0.00911795439270215,0.0025519309422778287
0.1606034,0.007767879367217342,0.024132320554730077,0.08223424596928607,0.01796940354492841,0.0486958029408003,0.0544235650248328,0.009183078995483918,0.002542857182388075
0.161069,0.007663395946135532,0.02400613651439237,0.08200309278079157,0.01802442936675992,0.04852018691437433,0.05417549222986948,0.00925164827376833,0.0025354095115776827
0.1615345,0.007559969407986422,0.02387976042542476,0.08176748934502144,0.018080759356095297,0.04834209678069746,0.053930040632297394,0.009323631170223482,0.0025296122938934973
0.162,0.0074575974011051975,0.023753221704503464,0.08152746283573274,0.01813840612044817,0.048161589678667106,0.05368725531772768,0.009398996216778827,0.002525489807545208
0.1624655,0.00735627794222553,0.023626550020969743,0.08128304134842898,0.018197381838227496,0.04797872357808116,0.05344718082938205,0.009477711544079824,0.0025230662381788608
0.162931,0.007256009427536879,0.02349977529198478,0.08103425389866664,0.01825769825164151,0.047793557259518574,0.053209861159079,0.009559744890864696,0.002522365672099385
0.1633966,0.007156790643583639,0.023372927677584296,0.08078113042018015,0.01831936665981169,0.04760615029402809,0.05297533973832449,0.009645063613263068,0.002523412089443307
0.1638621,0.007058620778001376,0.023246037575633458,0.08052370176281899,0.018382397912101753,0.047416563022639295,0.05274365942950983,0.00973363469401629,0.0025262293573028354
0.1643276,0.0069614994300854,0.02311913561668232,0.08026199969029052,0.01844680240166655,0.04722485653570966,0.0525148625172194,0.009825424751619391,0.002530841222802524
0.1647931,0.006865426621186976,0.02299225265872191,0.07999605687770163,0.018512590059225703,0.047031092652121194,0.052288990699651317,0.009920400049384619,0.002537271306129734
0.1652586,0.006770402804932537,0.022865419781840993,0.07972590690889274,0.018579770347066454,0.04683533389833962,0.05206608508015466,0.010018526504426585,0.0025455430935201946
0.1657241,0.0066764288772613355,0.022738668282783245,0.07945158427355707,0.018648352253280202,0.04663764348734891,0.05184618615888744,0.010119769696569022,0.0025556799302000337
0.1661897,0.006583506186277053,0.022612029669404683,0.07917312436413836,0.01871834428623704,0.04643808529747357,0.05162933382459936,0.010224094877173276,0.0025677050132857614
0.1666552,0.006491636541908978,0.022485535655030787,0.07889056347249973,0.018789754469302374,0.046236723851100406,0.05141556734654354,0.01033146697788882,0.0025816413846437994
0.1671207,0.0064008222253784846,0.022359218152713144,0.07860393878635633,0.018862590335799633,0.04603362429331164,0.05120492536652111,0.010441850619326202,0.002597511923711253
0.1675862,0.006311065998466601,0.022233109269385397,0.0783132883854636,0.01893685892422287,0.045828852370440445,0.05099744589106217,0.010555210119653038,0.002615339340279733
0.1680517,0.006222371112578631,0.022107241299918513,0.07801865123755325,0.01901256677370292,0.04562247440855975,0.050793166283746395,0.010671509503113746,0.002635146167244087
0.1685172,0.006134741317601858,0.021981646721075658,0.07772006719400805,0.01908971991973066,0.045414557291914855,0.05059212325766677,0.010790712508473901,0.002656954753317983
0.1689828,0.006048180870552499,0.021856358185367172,0.07741757698526723,0.01916832389014077,0.04520516844130982,0.0503943528680397,0.010912782597390052,0.0026807872557183133
0.1694483,0.005962694544008147,0.021731408514806382,0.07711122221595378,0.019248383701359225,0.04499437579245755,0.05019989050496528,0.011037682962705835,0.002706665632820428
0.1699138,0.00587828763432205,0.02160683069456719,0.07680104535971509,0.019329903854917653,0.04478224777430279,0.050008770886341466,0.011165376536675231,0.0027346116367862276
0.1703793,0.005794965969615678,0.02148265786654443,0.0764870897537685,0.019412888334237578,0.04456885328732718,0.049821028050935884,0.011295825999113678,0.0027646468061671855
0.1708448,0.0057127359175460374,0.021358923322818055,0.0761693995931427,0.019497340601687358,0.04435426168184518,0.04963669535161919,0.011428993785477744,0.002796792458484373
0.1713103,0.005631604392844302,0.021235660499022167,0.07584801992460566,0.019583263595914523,0.044138542736299316,0.04945580544876367,0.011564842094874121,0.0028310696827875768
0.1717759,0.005551578864622339,0.021112902967620115,0.07552299664026917,0.01967065972945609,0.04392176663556287,0.049278390303810884,0.011703332897998584,0.0028674993321956025
0.1722414,0.005472667363443748,0.02099068443108697,0.0751943764708598,0.019759530886629174,0.04370400394925775,0.04910448117301196,0.01184442794500571,0.002906102016419867
0.1727069,0.005394878488156083,0.02086903871500099,0.07486220697864593,0.019849878421704083,0.04348532561009512,0.04893410860134485,0.011988088773310104,0.0029468980942733464
0.1731724,0.005318221412480927,0.020747999761045976,0.07452653655000983,0.019941703157362,0.04326580289224581,0.0487673024166128,0.01213427671531993,0.0029899076661669697
0.1736379,0.005242705891358499,0.020627601619926716,0.07418741438765439,0.020035005383439032,0.04304550738974732,0.04860409172372826,0.012282952906103596,0.0030351505665955165
0.1741034,0.005168342267043486,0.020507878444199757,0.07384489050243308,0.020129784855958382,0.04282451099495384,0.04844450489918679,0.012434078290990557,0.003082646356615106
0.174569,0.005095141474948784,0.020388864481022128,0.07349901570479198,0.020226040796452086,0.042602885877035555,0.04828856958573461,0.012587613633107203,0.0031324143163143684
0.1750345,0.0050231150492338035,0.020270594064820565,0.07314984159581224,0.020323771891573753,0.042380704460533276,0.048136312687233625,0.012743519520848925,0.0031844734372814217
0.1755,0.004952275128134029,0.020153101609883862,0.07279742055784204,0.02042297629300348,0.04215803940397391,0.047987760363727115,0.01290175637528941,0.003238842415068806
0.1759655,0.004882634459028537,0.02003642160288108,0.07244180574470692,0.020523651617645945,0.04193496357855249,0.04784293802670902,0.013062284457528082,0.003295539641658558
0.176431,0.00481420640324225,0.019920588595308292,0.07208305107148857,0.0206257949481226,0.04171155004688595,0.04770187033459929,0.013225063875976703,0.0033545831979296652
0.1768966,0.004747004940579819,0.019805637195866373,0.07172121120386278,0.020729402833558817,0.041487872041843926,0.04756458118842759,0.013390054593585901,0.003415990846130172
0.1773621,0.00468104467358813,0.019691602062772384,0.07135634154698896,0.020834471290666512,0.04126400294546174,0.047431093727726935,0.013557216435012405,0.0034797800223562666
0.1778276,0.004616340831544578,0.01957851789600698,0.0709884982339452,0.020940995805122847,0.04104001626794109,0.04730143032663897,0.013726509093727685,0.003545967829040745
0.1782931,0.004552909274168374,0.019466419429500337,0.0706177381137046,0.02104897133324532,0.04081598562674363,0.047175612590231786,0.013897892139068512,0.0036145710274532858
0.1787586,0.004490766495052299,0.019355341423258923,0.07024411873865036,0.021158392303963446,0.040591984725782564,0.04705366135103152,0.01407132502322992,0.003685606030215073
0.1792241,0.004429929624812451,0.0192453186554356,0.06986769835162854,0.021269252621087108,0.040368087334717626,0.046935596665768416,0.014246767088200944,0.0037590888938303676
0.1796897,0.004370416433953669,0.019136385914345414,0.0694885358725388,0.021381545665871436,0.04014436726835813,0.04682143781233807,0.014424177572643387,0.003835035311237722
0.1801552,0.004312245335448445,0.019028577990429483,0.06910669088446426,0.021495264299877956,0.03992089836617901,0.0467112032869784,0.01460351561871388,0.003913460604383602
0.1806207,0.004255435387027281,0.018921929668169194,0.06872222361934237,0.021610400868131548,0.03969775447195455,0.046604910801662666,0.014784740278829376,0.003994379716821234
0.1810862,0.004200006293178553,0.018816475717952974,0.06833519494317926,0.02172694720257272,0.039475009413514416,0.04650257728170914,0.014967810522376352,0.0040778072063375245
0.1815517,0.004145978406856031,0.018712250887897693,0.06794566634081066,0.021844894625804315,0.03925273698262648,0.046404218863607884,0.015152685242363904,0.004163757237610917
0.1820172,0.004093372730892335,0.018609289895626747,0.06755369990021252,0.021964233955131817,0.03903101091501073,0.04630985089306546,0.015339323262021112,0.0042522435749030385
0.1824828,0.004042210919116651,0.01850762742000685,0.06715935829636548,0.022084955506896105,0.038809904870488604,0.0462194879232685,0.015527683341339055,0.0043432795747870324
0.1829483,0.003992515277175148,0.018407298092845487,0.06676270477467827,0.02220704910109741,0.03858949241327136,0.046133143713366964,0.015717724183557946,0.004436878178915467
0.1834138,0.003944308763052604,0.01830833649055107,0.06636380313397773,0.022330504066309043,0.038369846992391314,0.04605083122717797,0.015909404441599894,0.004533051906830806
0.1838793,0.0038976149872938116,0.018210777125757725,0.0659627177090758,0.0224553092448792,0.03815104192227951,0.04597256263211063,0.016102682724447877,0.00463181284882146
0.1843448,0.003852458212923367,0.018114654438916664,0.06555951335292728,0.022581452998419148,0.03793315036349325,0.04589834929831233,0.016297517603471492,0.00473317265882647
0.1848103,0.003808863355062478,0.01802000278985625,0.06515425541839437,0.022708923213575764,0.03771624530359691,0.045828201798036525,0.01649386761870009,0.0048371425473919495
0.1852759,0.0037668559802414266,0.01792685644931284,0.06474700973963617,0.022837707308086434,0.0375003995381994,0.04576212990523187,0.0166916912850439,0.004943733274682446
0.1857414,0.003726462305406393,0.01783524959043469,0.06433784261314227,0.022967792237114096,0.0372856856521514,0.04570014259535217,0.016890947098463845,0.005052955143550433
0.1862069,0.0036877091966194416,0.017745216280261236,0.06392682077842961,0.023099164499860117,0.0370721760009053,0.04564224804538656,0.017091593542090864,0.00516481799266725
0.1866724,0.0036506241674506266,0.017656790471180062,0.06351401139842192,0.02323181014645253,0.036859942692040834,0.045588453634108794,0.01729358909229568,0.005279331189718816
0.1871379,0.0036152353770613683,0.01757000599236402,0.0630994820395305,0.023365714785107045,0.03664905756695901,0.04553876594254443,0.01749689222471007,0.00539650362466956
0.1876034,0.003581571627978465,0.01748489654119076,0.06268330065145497,0.023500863589558083,0.036439592182746706,0.045493190754654675,0.01770146142020083,0.005516343703097988
0.188069,0.003549662363558361,0.017401495674647067,0.06226553554672199,0.02363724130675697,0.03623161779421408,0.045451733058235175,0.017907255170797616,0.005638859339607346
0.1885345,0.003519537665141465,0.01731983680072029,0.06184625537997968,0.02377483226483428,0.036025205336106605,0.04541439704602843,0.018114231985575876,0.005764057951314867
0.189,0.0034912282488965603,0.01723995316977895,0.061425529127064844,0.023913620381323244,0.03582042540549332,0.045381186117048354,0.018322350396496143,0.005891946451423128
0.1894655,0.0034647654623554615,0.017161877865944697,0.06100342606385992,0.024053589171640997,0.03561734824433235,0.04535210287811544,0.018531568964200707,0.006022531242877166
0.189931,0.003440181280638241,0.0170856437984576,0.060580015744956396,0.02419472175782424,0.03541604372221487,0.04532714914560126,0.018741846283768796,0.006155818212110994
0.1903966,0.0034175083023694325,0.017011283693036672,0.06015536798214135,0.024337000877515926,0.035216581319288176,0.045306325947381,0.018953140990431157,0.006291812722887284
0.1908621,0.0033967797452857055,0.016938830083237634,0.05972955282272391,0.024480408893199284,0.035019030109358425,0.0452896335249927,0.01916541176524481,0.006430519610233933
0.1913276,0.0033780294415355484,0.01686831530180986,0.059302640527718394,0.024624927801675547,0.03482345874317325,0.04527707133600211,0.019378617340728686,0.0065719431744812986
0.1917931,0.0033612918326715504,0.016799771472054647,0.05887470154990093,0.02477053924378161,0.034629935431884404,0.04526863805657266,0.01959271650646083,0.006716087175403825
0.1922586,0.0033466019643358757,0.01673323049918703,0.05844580651175622,0.024917224514343684,0.03443852793069038,0.04526433158423999,0.019807668114637647,0.006862954826469817
0.1927241,0.00333399548063954,0.016668724061703562,0.058016026183330856,0.025064964572362906,0.03424930352265876,0.04526414904089111,0.020023431085595744,0.007012548789203095
0.1931897,0.0033235086182361005,0.016606283602758592,0.0575854314600096,0.025213740051428606,0.034062329002728355,0.045268086775948325,0.02023996441329687,0.007164871167660287
0.1936552,0.003315178200090401,0.016545940321551805,0.057154093340230326,0.02536353127035492,0.033877670661891186,0.04527614036975781,0.020457227170776325,0.0073199235030275206
0.1941207,0.00330904162894305,0.016487725164729808,0.056722082903153614,0.025514318244036167,0.03369539427155452,0.04528830463718331,0.02067517851555509,0.007477706768340242
0.1945862,0.0033051368804713844,0.016431668817804713,0.0562894712863024,0.025666080694516133,0.033515565068083376,0.04530457363140482,0.02089377769501615,0.007638221363329947
0.1950517,0.0033035024961477802,0.016377801696592642,0.055856329663186974,0.025818798062266366,0.03333824773752383,0.045324940647921995,0.021112984051745255,0.007801467109401525
0.1955172,0.0033041775757962724,0.016326153938675213,0.05542272922093031,0.025972449517668313,0.03316350640050719,0.04534939822876205,0.02133275702883676,0.007967443244744965
0.1959828,0.0033072017698485934,0.016276755394886985,0.05498874113790842,0.026127013972693958,0.03299140459733534,0.04537793816689142,0.021553056175165345,0.008136148419585116
0.1964483,0.0033126152713008755,0.0162296356208319,0.0545544365614202,0.026282470092779397,0.03282200527324704,0.045410551510830455,0.021773841150624522,0.008307580691573169
0.1969138,0.003320458807372425,0.016184823868431668,0.05411988658540081,0.026438796308885733,0.03265537076386517,0.04544722856946983,0.02199507173133302,0.008481737521323515
0.1973793,0.003330773630868134,0.01614234907750898,0.05368516222819222,0.026595970829741467,0.03249156278082479,0.04548795891708745,0.022216707814809986,0.008658615768099542
0.1978448,0.0033436015112462687,0.016102239867408358,0.05325033441038413,0.02675397165426046,0.03233064239758161,0.04553273139856421,0.022438709425119968,0.008838211685651923
0.1983103,0.00335898472539353,0.016064524528657385,0.05281547393273817,0.0269127765841294,0.032172670035400905,0.04558153413479698,0.022661036717988452,0.009020520918212892
0.1987759,0.0033769660481094642,0.016029231014670898,0.052380651454207394,0.027072363236558605,0.03201770544952651,0.04563435452830661,0.022883649985888595,0.009205538496649898
0.1992414,0.0033975887423024352,0.015996386933500795,0.051945937470063146,0.02723270905718992,0.031865807715530214,0.04569117926903866,0.023106509663099628,0.009393258834782016
0.1997069,0.0034208965488995084,0.015966019539634075,0.05151140229014061,0.02739379133315544,0.03171703521584185,0.045751994340354256,0.023329576330737414,0.0095836757258624
0.2001724,0.003446933676472695,0.015938155725841674,0.05107711601721403,0.02755558720628067,0.03157144562646056,0.04581678502520833,0.023552810721757474,0.00977678233922998
0.2006379,0.003475744790584066,0.01591282201508076,0.05064314852551206,0.027718073686425673,0.03142909590384811,0.04588553591251201,0.02377617372593092,0.009972571217133564
0.2011034,0.0035073750028522975,0.015890044552453138,0.05020956943938347,0.027881227664957837,0.031290042272005,0.04595823090367601,0.02399962639479378,0.010171034271731393
0.201569,0.0035418698597432154,0.015869849097222583,0.04977644811212291,0.028045025928349628,0.031154340209730316,0.046034853219331553,0.024223129946570224,0.010372162782269136
0.2020345,0.0035792753310869346,0.01585226101489395,0.04934385360496668,0.028209445171894897,0.03102204443806633,0.04611538540622554,0.024446645771070426,0.010575947392439215
0.2025,0.0036196377983241652,0.01583730526935705,0.048911854666267594,0.028374462013537036,0.030893208907928675,0.04619980934428643,0.024670135434563676,0.010782378107924274
0.2029655,0.0036630040424842757,0.015825006415098365,0.048480519710858504,0.028540053007802112,0.030767886787923148,0.04628810625385711,0.02489356068462747,0.010991444294127512
0.203431,0.0037094212318977433,0.01581538858948379,0.04804991679961384,0.02870619465982998,0.03064613045235028,0.04638025670309082,0.025116883454973087,0.011203134674092495
0.2038966,0.003758936909645668,0.01580847550511558,0.04762011361921847,0.028872863439496164,0.03052799146939897,0.04647624061550577,0.025340065870248275,0.011417437326615027
0.2043621,0.003811598980749089,0.01580429044226674,0.047191177462153164,0.02904003579561713,0.030413520589530663,0.04657603727769374,0.025563070250817516,0.011634339684549511
0.2048276,0.00386745569910093,0.015802856241396195,0.04676317520690572,0.029207688170231325,0.030302767734055668,0.04667962534717772,0.025785859117520377,0.011853828533312174
0.2052931,0.003926555654143499,0.01580419529574796,0.04633617329841658,0.029375797012948335,0.0301957819839036,0.046786982860413204,0.026008395196408452,0.012075890009583493
0.2057586,0.003988947757294609,0.015808329544037582,0.04591023772876788,0.029544338795358033,0.03009261156859002,0.04689808724092748,0.026230641423461307,0.012300509600212
0.2062241,0.004054681228125479,0.01581528046322898,0.04548543401812432,0.02971329002549155,0.029993303855381497,0.047012915307590865,0.026452560949281823,0.012527672141321666
0.2066897,0.0041238055802937205,0.01582506906140481,0.04506182719593418,0.029882627262325663,0.02989790533866113,0.04713144328301364,0.02667411714377115,0.012757361817624928
0.2071552,0.00419637060723483,0.015837715870733328,0.04463948178239867,0.030052327130321865,0.029806461629496538,0.04725364680206198,0.026895273600783438,0.01298956216194336
0.2076207,0.004272426367615734,0.015853240940534776,0.04421846177021718,0.030222366333991182,0.02971901744541218,0.04737950092048599,0.02711599414276026,0.013224256054937917
0.2080862,0.00435202317055407,0.01587166383045025,0.0437988306066161,0.030392721672475694,0.02963561660036773,0.04750898012365273,0.02733624282534445,0.013461425725050597
0.2085517,0.004435211560607007,0.01589300360371612,0.04338065117566844,0.030563370054137538,0.029556301994944266,0.04764205833537692,0.027555983941973023,0.013701052748659327
0.2090172,0.004522042302533566,0.015917278820547085,0.042963985780911394,0.030734288511146186,0.029481115606739723,0.047778708926841607,0.027775182028448583,0.013943118050447944
0.2094828,0.00461256636583451,0.015944507531631024,0.04254889612826873,0.030905454214054877,0.02941009848097514,0.047918904725601084,0.02799380186748853,0.014187601903993012
0.2099483,0.004706834909073973,0.015974707271738803,0.04213544330928445,0.031076844486357277,0.029343290721312896,0.04806261802465802,0.028211808493251174,0.014434483932569346
0.2104138,0.004804899263987131,0.016007895053452143,0.04172368778467433,0.031248436819015752,0.029280731480888045,0.048209820591606535,0.028429167195837598,0.014683743110176044
0.2108793,0.00490681091937821,0.016044087361012645,0.04131368936820117,0.031420208884952706,0.029222458953553774,0.048360483677833105,0.028645843525768076,0.01493535776278482
0.2113448,0.005012621504813221,0.01608330014429491,0.04090550721087949,0.03159213855349669,0.029168510365341703,0.04851457802776706,0.02886180329843144,0.015189305569812545
0.2118103,0.005122382774111806,0.016125548812906627,0.04049919978551524,0.031764203904774926,0.029118921966137832,0.04867207388817283,0.02907701259850581,0.015445563565819937
0.2122759,0.005236146588642617,0.016170848230418356,0.04009482487158581,0.03193638324404398,0.02907372902157464,0.048832941017476476,0.0292914377843489,0.01570410814243838
0.2127414,0.005353964900426631,0.016219212708725648,0.03969243954046505,0.032108655115950104,0.029032965805139765,0.04899714869511939,0.02950504549235623,0.015964915050526867
0.2132069,0.005475889735052788,0.016270656002545972,0.039292100140998196,0.03228099831871083,0.02899666559050148,0.049164665730932124,0.029717802641285398,0.01622795940256105
0.2136724,0.005601973174410365,0.016325191304052862,0.03889386228543099,0.03245339191820921,0.02896486064405099,0.04933546047452156,0.0299296764365448,0.01649321567525621
0.2141379,0.0057322673392424875,0.016382831237649685,0.03849778083569739,0.032625815261992375,0.028937582217661385,0.0495095008246645,0.030140634374445106,0.016760657712425974
0.2146034,0.005866824371525236,0.016443587854885346,0.038103909890069704,0.0327982479931655,0.028914860541662746,0.049686754238700837,0.03035064424641175,0.017030258728078493
0.215069,0.006005696416676887,0.016507472629514363,0.037712302770175364,0.03297067006417239,0.028896724818032883,0.04986718774191966,0.03055967414315667,0.01730199130975169
0.2155345,0.006148935605601932,0.01657449645270379,0.03732301200838376,0.033143061750453666,0.028883203213802864,0.050050767936932396,0.030767692458807304,0.017575827422089088
0.216,0.006296594036574576,0.016644669628389543,0.03693608933556676,0.033315403663973245,0.028874322854676598,0.050237461013027715,0.030974667894990773,0.01785173841065764
0.2164655,0.006448723756966627,0.016718001868784794,0.036551585669236164,0.033487676766603774,0.0288701098188637,0.05042723275550348,0.031180569464871105,0.018129695006008802
0.216931,0.006605376744824769,0.016794502290042868,0.03616955110206113,0.033659862383361445,0.028870589131124856,0.05062004855497154,0.0313853664971375,0.01840966732798412
0.2173966,0.0067666048903024,0.016874179408077214,0.03579003489076842,0.033831942215480464,0.028875784757028868,0.05081587341663117,0.031589028639941834,0.01869162489026639
0.2178621,0.006932459976951408,0.016957041134540923,0.03541308544542785,0.03400389835331755,0.028885719597420555,0.051014671969507375,0.031791525864783725,0.018975536605177562
0.2183276,0.007102993662879416,0.01704309477296816,0.03503875031912525,0.034175713289076905,0.028900415483098626,0.05121640847565059,0.03199282847034186,0.01926137078872447
0.2187931,0.007278257461778227,0.017132347015079954,0.034667076198024935,0.034347369929346096,0.028919893169702778,0.05142104683929483,0.0321929070862501,0.019549095165893336
0.2192586,0.007458302723829426,0.017224803937256738,0.034298108891823297,0.03451885160743339,0.02894417233280939,0.051628550615971665,0.03239173267681712,0.019838676876193968
0.2197241,0.007643180616493205,0.017320470997180093,0.033931893324594925,0.034690142095496916,0.028973271563235557,0.05183888302157793,0.03258927654468834,0.02013008247945446
0.2201897,0.007832942105186714,0.01741935303064607,0.03356847352603242,0.03486122561645626,0.029007208362551676,0.0520520069413958,0.03278551033444909,0.02042327796186695
0.2206552,0.008027637933858316,0.017521454248552445,0.03320789262308071,0.0350320868556771,0.029045999138803055,0.05226788493906425,0.03298040603616797,0.020718228742284905
0.2211207,0.008227318605464256,0.01762677823406216,0.032850192831966434,0.03520271097242007,0.02908965920244136,0.0524864792655015,0.03317393598887946,0.02101489967877226
0.2215862,0.008432034362354325,0.017735327939945127,0.032495415450622775,0.03537308361104577,0.02913820276246664,0.05270775186777839,0.03336607288400482,0.021313255075404595
0.2220517,0.008641835166573157,0.017847105686100394,0.03214360085150984,0.035543190911968864,0.029191642922781095,0.05293166439794252,0.033556789768710085,0.021613258689322477
0.2225172,0.008856770680083777,0.01796211315726063,0.031794788474830506,0.03571301952235501,0.02924999167875566,0.05315817822179289,0.03374606004920028,0.02191487373803694
0.2229828,0.009076890244920045,0.018080351400880594,0.0314490168221413,0.03588255660655513,0.029313259914010743,0.05338725442760445,0.033933857493948304,0.02221806290698707
0.2234483,0.00930224286327456,0.018201820825211292,0.031106323450357996,0.03605178985627212,0.02938145739741253,0.05361885383480232,0.034120156236857525,0.022522788357349624
0.2239138,0.009532877177528555,0.018326521197561268,0.030766744966154953,0.03622070750045551,0.02945459278028629,0.05385293700258503,0.03430493078035655,0.02282901173410046
0.2243793,0.009768841450230287,0.01845445164274638,0.03043031702075732,0.03638929831491931,0.029532673593847893,0.0540894642384962,0.034488155998424745,0.023136694174327677
0.2248448,0.010010183544028401,0.018585610641729377,0.030097074305124743,0.0365575516316789,0.029615706246854688,0.054328395606944184,0.03466980713954701,0.023445796315796134
0.2253103,0.010256950901566765,0.018719996030450384,0.029767050545525198,0.03672545734800228,0.029703696023476618,0.05456969093766919,0.034849859829595965,0.023756278305763025
0.2257759,0.010509190525347333,0.018857604998849527,0.029440278499497312,0.03689300593517203,0.0297966470813884,0.0548133098341577,0.03502829007463992,0.02406809981004411
0.2262414,0.010766948957567656,0.01899843409008274,0.029116789952199445,0.03706018844695394,0.029894562450083508,0.055059211682004235,0.03520507426367475,0.024381220022330098
0.2267069,0.011030272259939779,0.01914247919993193,0.02879661571314357,0.0372269965277694,0.029997444029410476,0.05530735565722062,0.03538018917127758,0.024695597673752664
0.2271724,0.011299205993497406,0.01928973557641039,0.028479785613312044,0.037393422420568666,0.030105292588331972,0.05555770073449289,0.03555361196018038,0.02501119104269961
0.2276379,0.011573795198398299,0.019440197819564436,0.028166328502655266,0.03755945897440277,0.030218107763906904,0.055810205695385966,0.03572532018376138,0.025327957964878637
0.2281034,0.011854084373729075,0.019593859881471994,0.02785627224796804,0.037725099651692455,0.030335888060495583,0.0560648291364958,0.03589529178845256,0.02564585584362909
0.228569,0.01214011745731965,0.019750715066438784,0.027549643731142482,0.03789033853519273,0.03045863084918794,0.0563215294775485,0.036063505116061205,0.025964841660481106
0.2290345,0.012431937805574778,0.01991075603139258,0.027246468847795306,0.03805517033465228,0.03058633236745445,0.05658026496944577,0.036229938906003775,0.026284871985961394
0.2295,0.012729588173330192,0.020073974786475993,0.026946772506267275,0.038219590393167364,0.030718987719019437,0.056840993702255385,0.036394572297450294,0.02660590299064481
0.2299655,0.01303311069374104,0.020240362695838048,0.026650578626992535,0.0383835946932303,0.0308565908739561,0.05710367361314561,0.036557384831377014,0.02692789045645085
0.230431,0.013342546858210414,0.02040991047862489,0.02635791014223558,0.038547179862472934,0.030999134669002597,0.05736826249426185,0.03671835645252509,0.027250789788184158
0.2308966,0.013657937496365862,0.0205826082101698,0.02606878899619352,0.03871034317910601,0.03114661080809832,0.05763471800054428,0.036877467511262516,0.027574556025318005
0.2313621,0.013979322756091844,0.020758445323382682,0.025783236145461207,0.03887308257705532,0.03129900986313957,0.057902997657485265,0.0370346987653465,0.027899143854019585
0.2318276,0.014306742083626194,0.02093741061033916,0.02550127155985668,0.039035396650796,0.03145632127495374,0.05817305886882586,0.03719003138158309,0.02822450761941584
0.2322931,0.01464023420372861,0.02111949222406943,0.025222914223604287,0.03919728465988615,0.03161853335449126,0.05844485892419129,0.037343446937380946,0.028550601338098457
0.2327586,0.014979837099929302,0.02130467768054686,0.024948182136872554,0.039358746533201365,0.03178563328423471,0.05871835500666513,0.03749492742219569,0.02887737871086645
0.2332241,0.015325587994865695,0.021492953860876306,0.024677092317663817,0.039519782872871397,0.03195760711982476,0.058993504200302,0.03764445523886123,0.02920479313570469
0.2336897,0.01567752333071521,0.021684307013681913,0.024409660804052304,0.03968039495792023,0.03213443979190257,0.059270263497578655,0.03779201320480436,0.02953279772099643
0.2341552,0.016035678749731924,0.02187872275769404,0.02414590265676728,0.03984058474761066,0.032316115108168675,0.05954858980678295,0.03793758455313892,0.029861345298967844
0.2346207,0.01640008907489484,0.022076186084534793,0.023885831962117555,0.04000035488449416,0.032502615755658076,0.059828439959340105,0.03808115293363593,0.03019038843936223
0.2350862,0.016770788290675406,0.022276681361701432,0.023629461835253607,0.04015970869716697,0.03269392330323148,0.06010977071707553,0.03822270241356636,0.030519879463341518
0.2355517,0.017147809523931835,0.022480192335746784,0.02337680442376329,0.04031865020273299,0.03289001820428239,0.06039253877941314,0.03836221747841339,0.030849770457612422
0.2360172,0.01753118502493776,0.022686702135655594,0.02312787091159697,0.04047718410897438,0.03309087979965986,0.06067670079050812,0.03849968303245121,0.031180013288774358
0.2364828,0.01792094614855271,0.022896193276415684,0.022882671523317844,0.04063531581623059,0.033296486320806576,0.060962213346312626,0.03863508439918746,0.031510559617886146
0.2369483,0.01831712333554184,0.02310864766278267,0.022641215528673094,0.04079305141898648,0.033506814893111664,0.06124903300157312,0.038768407321667045,0.031841360915248244
0.2374138,0.018719746094052445,0.023324046593236995,0.0224035112474813,0.04095039770717032,0.033721841539477874,0.0615371162767574,0.0388996379626353,0.032172368475396985
0.2378793,0.019128842981254626,0.023542370764131845,0.022169566054831547,0.04110736216716229,0.03394154118410259,0.06182641966490939,0.03902876290455944,0.03250353343230699
0.2383448,0.019544441585153508,0.02376360027403048,0.021939386386589498,0.04126395298251403,0.03416588765647242,0.062116899638429215,0.039155769149507524,0.032834806774797866
0.2388103,0.019966568506580355,0.023987714628231474,0.02171297774520569,0.04142017903437977,0.0343948536955711,0.06240851265577593,0.039280644118884774,0.033166139362141016
0.2392759,0.0203952493413698,0.024214692743479913,0.021490344705821132,0.041576049901659334,0.03462841095430082,0.06270121516809017,0.03940337565302762,0.033497481939862205
0.2397414,0.020830508662730306,0.02444451295286271,0.021271490922665223,0.041731575860853014,0.0348665300041169,0.06299496362573413,0.03952395201065604,0.0338287851557355
0.2402069,0.0212723700038148,0.024677153010885956,0.021056419135740814,0.04188676788562822,0.035109180339875964,0.06328971448474653,0.03964236186818483,0.03415999957596387
0.2406724,0.021720855840498345,0.024912590098732038,0.020845131177791354,0.042041637646097314,0.03535633038489767,0.06358542421321038,0.03975859431889499,0.034491075701541564
0.2411379,0.022175987574369463,0.025150800829694397,0.02063762798154456,0.042196197507805934,0.03560794749624018,0.06388204929753169,0.03987263887196606,0.03482196398479327
0.2416034,0.022637785515941675,0.02539176125478745,0.020433909587227215,0.04235046053043105,0.03586399797018951,0.06417954624862746,0.03998448545137114,0.03515261484608463
0.242069,0.023106268868091598,0.02563544686852935,0.02023397515034538,0.04250444046618797,0.03612444704796268,0.06447787160802154,0.04009412439463661,0.03548297869069856
0.2425345,0.023581455709729884,0.025881832614895146,0.020037822949724195,0.04265815175794548,0.03638925892162505,0.06477698195384762,0.040201546451468985,0.035813005925871486
0.243,0.024063362979711185,0.026130892893437844,0.019845450395801306,0.04281160953704863,0.036658396740221734,0.065076833906759,0.04030674278225198,0.03614264697798344
0.2434655,0.024552006460989317,0.02638260156557473,0.019656854039167823,0.0429648296208482,0.03693182261612335,0.0653773841357449,0.04040970495641673,0.03647185230989573
0.243931,0.02504740076502375,0.026636931961036385,0.019472029579350632,0.043117828509936396,0.037209497631586146,0.06567858936385314,0.04051042495068836,0.03680057243842978
0.2443966,0.025549559316443586,0.02689385688447577,0.01929097187382973,0.0432706233850874,0.037491381845526466,0.06598040637381909,0.04060889514721189,0.03712875795198017
0.2448621,0.026058494337975267,0.027153348622235073,0.019113674947284196,0.04342323210390179,0.037777434300509435,0.06628279201360049,0.04070510833156028,0.03745635952825514
0.2453276,0.026574216835640204,0.027415378949268047,0.01894013200106023,0.04357567319715337,0.03806761302995175,0.06658570320181854,0.04079905769062716,0.03778332795213735
0.2457931,0.027096736584228554,0.027679919136216053,0.018770335422854702,0.04372796586483674,0.03836187506553836,0.06688909693310512,0.0408907368104066,0.03810961413365726
0.2462586,0.027626062113055582,0.027946939956636063,0.018604276796607363,0.04388012997191338,0.03866017644485282,0.06719293028335595,0.04098013967366247,0.03843516912607172
0.2467241,0.028162200692006863,0.028216411694379075,0.018441946912594882,0.04403218604375404,0.03896247221922103,0.06749716041488996,0.04106726065748973,0.03875994414403943
0.2471897,0.02870515831787877,0.028488304151117545,0.01828333577771964,0.044184155261274546,0.039268716461768105,0.06780174458151449,0.04115209453077056,0.03908389058188516
0.2476552,0.0292549397010206,0.02876258665402018,0.018128432625986127,0.044336059455761904,0.039578862275687826,0.06810664013349725,0.04123463645152855,0.03940696003194398
0.2481207,0.029811548252284627,0.02903922806357255,0.017977225929157677,0.04448792110338781,0.03989286180272413,0.06841180452244607,0.0413148819641844,0.039729104302976714
0.2485862,0.030374986070290218,0.029318196781541687,0.017829703407586172,0.04463976331940597,0.04021066623186416,0.06871719530609793,0.04139282699671695,0.04005027543864746
0.2490517,0.030945253929007967,0.029599460759082836,0.017685852041207307,0.04479160985203046,0.04053222580824225,0.06902277015301925,0.041468467857733636,0.040370425736053976
0.2495172,0.03152235126566967,0.029882987504986188,0.017545658080693954,0.04494348507599217,0.04085748984225422,0.06932848684721885,0.04154180123345483,0.04068950776430135
0.2499828,0.03210627616900981,0.030168744094061322,0.017409107058760198,0.04509541398577072,0.0411864067188812,0.06963430329267546,0.04161282418461648,0.04100747438310934
0.2504483,0.0326970253678439,0.03045669717565669,0.017276183801608506,0.04524742218849932,0.041518923907222005,0.06994017751778091,0.04168153414329557,0.041324278761443435
0.2509138,0.033294594219989114,0.030746812982311605,0.0171468724405126,0.045399535896539826,0.04185498797023305,0.07024606767970006,0.04174792890966261,0.04163987439615946
0.2513793,0.03389897670153232,0.031039057338537783,0.017021156423528704,0.045551781919725476,0.04219454457467432,0.07055193206864852,0.04181200664866546,0.04195421513065141
0.2518448,0.034510165396450666,0.03133339566972768,0.01689901852732786,0.045704187657268525,0.04253753850125989,0.07085772911208953,0.0418737658866483,0.04226725517349203
0.2523103,0.035128151486589786,0.03162979301118698,0.016780440869142082,0.045856781089329626,0.04288391365501093,0.07116341737885142,0.0419332055079096,0.04257894911705576
0.2527759,0.03575292474200471,0.03192821401728838,0.01666540491881727,0.04600959076824621,0.043233613075809134,0.071468955583167,0.04199032475120273,0.042889251956113705
0.2532414,0.03638447351166839,0.03222862297074451,0.01655389151096592,0.046162645809416494,0.04358657894914778,0.07177430258863671,0.04204512320618261,0.04319811910639067
0.2537069,0.037022784714552816,0.03253098379199756,0.016445880857212703,0.04631597588183568,0.043942752617077696,0.0720794174121164,0.04209760080980165,0.04350550642307432
0.2541724,0.03766784383108785,0.03283526004872397,0.016341352558526194,0.04646961119828066,0.04430207458934482,0.07238425922753104,0.04214775784265789,0.0438113702192669
0.2546379,0.03831963489500266,0.033141414965452774,0.016240285617630086,0.04662358250513912,0.04466448455471591,0.07268878736961464,0.042195594925298056,0.04411566728436969
0.2551034,0.038978140485554945,0.033449411433296564,0.016142658451487355,0.04677792107187905,0.045029921392488174,0.07299296133757681,0.04224111301447792,0.044418354902390655
0.255569,0.03964334172015301,0.03375921201979438,0.01604844890385101,0.046932658680153644,0.04539832318417872,0.07329674079869564,0.042284313399381886,0.04471939087016529
0.2560345,0.04031521824737594,0.03407077897886644,0.015957634257875122,0.04708782761253693,0.04576962722538915,0.07360008559183645,0.04232519769780365,0.04501873351548101
0.2565,0.04099374824039705,0.03438407426088047,0.01587019124877996,0.04724346064088515,0.046143770037840405,0.07390295573089585,0.04236376785228944,0.0453163417150949
0.2569655,0.04167890839081605,0.03469905952282945,0.01578609607656527,0.047399591014319044,0.046520687381572584,0.0742053114081702,0.042400026126245084,0.04561217491263465
0.257431,0.04237067390290523,0.0350156961386207,0.01570532441876565,0.04755625244682287,0.04690031426730505,0.07450711299764745,0.042433975100008015,0.045906193136372356
0.2578966,0.04306901848827522,0.03533394520947576,0.015627851443242167,0.04771347910445637,0.047282584968951706,0.07480832105822084,0.04246561766688498,0.046198357016860946
0.2583621,0.043773914360965616,0.03565376757444061,0.015553651821004443,0.047871305592177074,0.047667433036287093,0.07510889633682291,0.04249495702915607,0.04648862780442248
0.2588276,0.044485332232965996,0.03597512382100516,0.015482699739057386,0.04802976694027115,0.04805479130775904,0.07540879977147757,0.04252199669404531,0.04677696738647781
0.2592931,0.04520324131017261,0.03629797429583109,0.015414968913266838,0.04818889859039223,0.04844459192344389,0.0757079924942681,0.042546740469657916,0.04706333830470672
0.2597586,0.045927609288785955,0.03662227911558667,0.015350432601238443,0.048348736381208506,0.048836766338140734,0.07600643583421841,0.0425691924608844,0.04734770377202718
0.2602241,0.046658402352154384,0.036947998177886916,0.015289063615203945,0.048509316533658996,0.04923124533460102,0.07630409132008524,0.042589357065271415,0.04763002768938266
0.2606897,0.04739558516806864,0.03727509117233731,0.015230834334909203,0.04867067563582031,0.0496279590368903,0.07660092068305872,0.04260723896885942,0.047910274662325586
0.2611552,0.048139120886512086,0.0376035175916788,0.015175716720498089,0.04883285062738534,0.050026836923879235,0.07689688585936974,0.04262284314198728,0.0481884100173853
0.2616207,0.04888897113787091,0.037933236743031756,0.01512368232538638,0.04899587878375539,0.05042780784286112,0.07719194899280211,0.042636174835063614,0.04846439981820851
0.2620862,0.04964509603160836,0.038264207759236155,0.015074702309119732,0.049159797699747716,0.05083080002329336,0.0774860724371088,0.04264723957430499,0.048738210881460076
0.2625517,0.050407454155406727,0.03859638961028512,0.015028747450209688,0.04932464527292058,0.051235741090660036,0.07777921875833178,0.04265604315744051,0.04900981079247189
0.2630172,0.051176002574780576,0.03892974111484883,0.014985788158941724,0.04949045968651845,0.05164255808045273,0.07807135073702595,0.04266259164938228,0.04927916792062727
0.2634828,0.05195069683316403,0.03926422095188568,0.014945794490149282,0.049657279392040676,0.05205117745226639,0.07836243137038736,0.042666891377861414,0.04954625143446862
0.2639483,0.0527314909524746,0.03959978767233765,0.014908736155947774,0.04982514309143759,0.05246152510400673,0.07865242387428698,0.042668948929029366,0.049811031316516
0.2644138,0.053518337434155815,0.03993639971090665,0.014874582538422627,0.04999408971893821,0.052873526386205995,0.07894129168521138,0.04266877114302482,0.0500734783777847
0.2648793,0.054311187260700396,0.040274015397908695,0.014843302702265422,0.05016415842251508,0.053287106116443404,0.0792289984621119,0.04266636510950713,0.05033356427199019
0.2653448,0.05510998989765545,0.040612592971202566,0.014814865407352345,0.05033538854499202,0.05370218859386686,0.07951550808816368,0.04266173816315757,0.05059126150942899
0.2658103,0.05591469329611089,0.040952090588189764,0.014789239121259236,0.05050781960480189,0.05411869761381225,0.07980078467243595,0.04265489787915005,0.050846543470524086
0.2662759,0.056725243895672024,0.04129246633788247,0.014766392031707664,0.050681491276401945,0.0545365564825165,0.08008479255147427,0.04264585206859256,0.05109938441902404
0.2667414,0.05754158662791688,0.04163367825303606,0.014746292058936602,0.05085644337035516,0.05495568803192054,0.08036749629079606,0.042634608773940576,0.051349759514844745
0.2672069,0.05836366492033854,0.04197568432234283,0.014728906867994496,0.05103271581308653,0.05537601463455835,0.08064886068630014,0.042621176264383415,0.051597644826542846
0.2676724,0.05919142070077296,0.042318442502683434,0.014714203880946623,0.051210348626324,0.055797458218528495,0.08092885076559185,0.04260556303120433,0.05184301734340989
0.2681379,0.060024794402312204,0.04266191073143227,0.014702150288992738,0.05138938190623449,0.05621994028254476,0.08120743178922511,0.0425877777831151,0.05208585498717617
0.2686034,0.0608637249687032,0.04300604693881298,0.01469271306449025,0.051569855802265425,0.05664338191106297,0.08148456925186305,0.04256782944156599,0.052326136623313264
0.269069,0.06170814986023221,0.04335080906029966,0.01468585897287825,0.05175181049570268,0.05706770378948138,0.08176022888335874,0.04254572713603212,0.05256384207192398
0.2695345,0.06255800506009498,0.04369615504905959,0.01468155458449792,0.05193528617795559,0.05749282621941223,0.08203437664975784,0.042521480199277865,0.05279895211820856
0.27,0.063413225081253,0.0440420428884326,0.014679766286305115,0.05212032302857963,0.05791866913402208,0.08230697875422517,0.04249509816260064,0.053031448522495965
0.2704655,0.06427374297377547,0.04438843060444231,0.014680460293471198,0.05230696119304717,0.058345152113438756,0.08257800163789783,0.04246659075105587,0.05326131402982906
0.270931,0.06513949033266714,0.04473527627833419,0.014683602660868529,0.05249524076027666,0.05877219440022253,0.08284741198066858,0.042435967878664854,0.053488532379092256
0.2713966,0.06601039730618095,0.045082538059135736,0.014689159294437378,0.05268520173993044,0.05919971491489945,0.08311517670190417,0.04240323964360773,0.05371308831167036
0.2718621,0.06688639260461515,0.0454301741762336,0.014697095962431338,0.05287688403949157,0.05962763227155499,0.08338126296110347,0.042368416323403726,0.05393496757962727
0.2723276,0.06776740350959336,0.04577814295196321,0.014707378306538671,0.05307032744113063,0.06005586479348634,0.0836456381585005,0.04233150837008135,0.05415415695339268
0.2727931,0.06865335588382662,0.04612640281420569,0.014719971852877307,0.05326557157837364,0.060484330528912326,0.08390826993561692,0.042292526405340966,0.054370644228945136
0.2732586,0.06954417418135603,0.04647491230898759,0.01473484202286147,0.05346265591258287,0.060912947266739834,0.08416912617576855,0.04225148121571255,0.0545844182344793
0.2737241,0.07043978145827479,0.04682363011307821,0.014751954143938095,0.05366161970926306,0.061341632552385825,0.08442817500452958,0.04220838374771153,0.054795468836545166
0.2741897,0.07134009938392835,0.047172515046579475,0.01477127346019136,0.05386250201420506,0.06177030370365393,0.08468538479015873,0.042163245102995656,0.055003786945647254
0.2746552,0.07224504825259125,0.047521526085502815,0.014792765142813764,0.054065341629479166,0.06219887782666488,0.08494072414399113,0.042116076533526406,0.05520936452129218
0.2751207,0.07315454699561914,0.04787062237432733,0.014816394300442374,0.05427017708929025,0.06262727183184025,0.08519416192079976,0.04206688943673816,0.055412194576473735
0.2755862,0.07406851319407468,0.048219763238533074,0.014842125989358796,0.05447704663570639,0.06305540244993955,0.08544566721913015,0.0420156953507189,0.05561227118158539
0.2760517,0.07498686309182562,0.04856890819710326,0.014869925223551522,0.0546859881942726,0.06348318624815127,0.08569520938161188,0.041962505949406,0.05580958946775124
0.2765172,0.07590951160911386,0.0489180169749888,0.014899756984639374,0.05489703934952105,0.06391053964623893,0.0859427579952501,0.041907333037800934,0.056004145629567646
0.2769828,0.0768363723565938,0.049267049515528516,0.014931586231654673,0.05511023732038892,0.06433737893274397,0.08618828289170068,0.04185018854720669,0.05619593692724921
0.2774483,0.07776735764983844,0.049615965992818103,0.014965377910684847,0.05532561893555502,0.06476362028124805,0.0864317541475325,0.04179108453049192,0.056384961688174126
0.2779138,0.07870237852431144,0.04996472682402094,0.015001096964371123,0.05554322060870579,0.06518917976669744,0.08667314208448024,0.04173003315738533,0.05657121930782547
0.2783793,0.07964134475080346,0.05031329268161367,0.015038708341262889,0.05576307831374146,0.06561397338179309,0.08691241726969125,0.041667046709804076,0.05675471025012596
0.2788448,0.08058416485133121,0.05066162450555943,0.01507817700502631,0.055985227559932724,0.06603791705344968,0.08714955051596973,0.041602137577219436,0.05693543604716499
0.2793103,0.0815307461154982,0.051009683515401985,0.015119467943505644,0.05620970336703814,0.06646092665932736,0.08738451288202075,0.04153531825206286,0.05711339929831739
0.2797759,0.08248099461731649,0.051357431222274076,0.015162546177635593,0.05643654024039213,0.06688291804443974,0.08761727567269735,0.04146660132517522,0.05728860366875481
0.2802414,0.08343481523248916,0.0517048294408144,0.015207376770203037,0.05666577214597359,0.06730380703784147,0.08784781043925356,0.04139599948130192,0.0574610538873525
0.2807069,0.08439211165615276,0.052051840300987515,0.015253924834456447,0.0568974324854657,0.06772350946939835,0.08807608897960616,0.04132352549463613,0.057630755743995496
0.2811724,0.08535278642107956,0.05239842625980214,0.015302155542561213,0.05713155407131787,0.06814194118664278,0.08830208333860866,0.04124919222441223,0.05779771608629021
0.2816379,0.08631674091633847,0.05274455011292333,0.015352034133899248,0.05736816910182188,0.06855901807171658,0.08852576580834094,0.04117301261055101,0.05796194281568868
0.2821034,0.08728387540641319,0.05309017500617455,0.01540352592321125,0.05760730913621471,0.06897465605840306,0.08874710892841874,0.04109499966935809,0.05812344488303317
0.282569,0.08825408905077575,0.05343526444692572,0.015456596308580092,0.05784900506982119,0.06938877114924924,0.08896608548632733,0.041015166489276604,0.058282232283529516
0.2830345,0.08922727992391295,0.05377978231536306,0.015511210779253909,0.05809328710924979,0.06980127943277929,0.08918266851778428,0.040933526226694904,0.05843831605115746
0.2835,0.09020334503580307,0.05412369287563656,0.01556733492330756,0.058340184747654796,0.0702120971007996,0.0893968313071362,0.0408500921018099,0.058591708252526326
0.2839655,0.09118218035284013,0.054466960786880556,0.015624934435141194,0.058589726740078445,0.07062114046579562,0.08960854738779454,0.040764877394546394,0.058742421980184305
0.284431,0.09216368081920331,0.05480955111410252,0.015683975122814754,0.05884194107888675,0.07102832597842018,0.08981779054271563,0.04067789544053277,0.05889047134538929
0.2848966,0.09314774037866955,0.055151429338934736,0.015744422915217257,0.05909685496931315,0.07143357024507298,0.09002453480492957,0.040589159627133414,0.05903587147034886
0.2853621,0.09413425199686758,0.05549256137024341,0.01580624386906979,0.059354494805124045,0.07183679004557025,0.09022875445812248,0.04049868338953866,0.05917863847993676
0.2858276,0.09512310768397214,0.05583291355458897,0.015869404175761177,0.059614886144420606,0.0722379023509033,0.0904304240372766,0.04040648020691302,0.05931878949289302
0.2862931,0.0961141985178369,0.056172452686531336,0.01593387016801532,0.05987805368559105,0.07263682434108414,0.09062951832937277,0.040312563598602975,0.05945634261251452
0.2867586,0.09710741466756427,0.056511146018773314,0.015999608326389272,0.06014402124342752,0.07303347342307605,0.0908260123741593,0.04021694712040557,0.05959131691684284
0.2872241,0.09810264541751039,0.0568489612721351,0.01606658528560119,0.060412811725421275,0.07342776724880655,0.09101988146499143,0.040119644360899646,0.059723732448356284
0.2876897,0.09909977919172214,0.05718586664535288,0.016134767840687358,0.06068444710825031,0.07381962373325976,0.09121110114974564,0.040020668937841064,0.05985361020317271
0.2881552,0.10009870357880334,0.05752183082469448,0.016204122952987638,0.06095894841447283,0.0742089610726456,0.09139964723181236,0.03992003449462371,0.05998097211977026
0.2886207,0.10109930535720628,0.05785682299338574,0.016274617755958832,0.06123633568944026,0.07459569776264317,0.09158549577117153,0.039817754696807706,0.06010584106723258
0.2890862,0.10210147052094444,0.05819081284084115,0.016346219560815525,0.06151662797844333,0.07497975261671584,0.09176862308555418,0.039713843228716336,0.06022824083302577
0.2895517,0.10310508430572116,0.058523770571693626,0.016418895861998177,0.061799843304105186,0.07536104478449625,0.0919490057516935,0.039608313790103385,0.06034819611031407
0.2900172,0.10411003121546893,0.05885566691461786,0.016492614342468376,0.06208599864403543,0.07573949377023975,0.09212662060666807,0.03950118009289272,0.06046573248482213
0.2904828,0.10511619504929348,0.059186473130941955,0.016567342878831316,0.06237510990875926,0.07611501945134519,0.09230144474933887,0.039392455857991934,0.06058087642125232
0.2909483,0.1061234589288169,0.059516161023042045,0.01664304954628571,0.06266719191993543,0.07648754209694175,0.09247345554188155,0.039282154812182064,0.06069365524926717
0.2914138,0.10713170532591375,0.059844702942514094,0.01671970262340157,0.06296225838887709,0.07685698238654123,0.09264263061141473,0.03917029068508543,0.06080409714904815
0.2918793,0.10814081609083438,0.06017207179811695,0.0167972705967264,0.06326032189538869,0.07722326142875444,0.09280894785172386,0.03905687720621357,0.060912231136443125
0.2923448,0.10915067248070923,0.06049824106348029,0.016875722165220552,0.06356139386693212,0.0775863007800705,0.09297238542508084,0.03894192810209738,0.0610180870477161
0.2928103,0.11016115518842792,0.06082318478457113,0.01695502624452266,0.06386548455813532,0.07794602246369742,0.09313292176415897,0.03882545709350166,0.06112169552391277
0.2932759,0.11117214437188688,0.06114687758691232,0.017035151971046335,0.06417260303065565,0.07830234898846195,0.0932905355740434,0.038707477892726286,0.06122308799485617
0.2937414,0.11218351968359803,0.061469294682546964,0.0171160687059095,0.0644827571334108,0.07865520336776669,0.09344520583433769,0.038588004200996215,0.061322296662786595
0.2942069,0.11319516030065112,0.06179041187674282,0.01719774603869796,0.06479595348318884,0.07900450913860169,0.09359691180136717,0.03846704970594258,0.06141935448566022
0.2946724,0.11420694495502107,0.06211020557443168,0.017280153791064942,0.06511219744564949,0.07935019038060762,0.09374563301048001,0.03834462807917737,0.06151429516012122
0.2951379,0.11521875196421154,0.0624286527863793,0.017363262020168496,0.06543149311672795,0.07969217173518708,0.09389134927844654,0.03822075297396419,0.061607153104161996
0.2956034,0.1162304592622249,0.06274573113508201,0.017447041021948814,0.06575384330445298,0.08003037842466047,0.09403404070595733,0.038095438022987614,0.061697963439486775
0.296069,0.11724194443084777,0.06306141886038646,0.017531461334247433,0.06607924951119047,0.08036473627146229,0.09417368768022025,0.037968696836224,0.061786761973593514
0.2965345,0.11825308473124087,0.0633756948248291,0.017616493739770436,0.06640771191632397,0.08069517171737377,0.09431027087765691,0.03784054299891645,0.06187358518158969
0.297,0.11926375713582066,0.06368853851869216,0.017702109268897565,0.06673922935938284,0.08102161184278708,0.09444377126669878,0.037710990069656405,0.06195847018775756
0.2974655,0.12027383836041992,0.0639999300647728,0.017788279202339243,0.06707379932362874,0.0813439843859966,0.09457417011068346,0.03758005157857442,0.06204145474688443
0.297931,0.12128320489671265,0.06430985022286242,0.017874975073643228,0.06741141792011085,0.08166221776251223,0.09470144897085185,0.037447741025642356,0.062122577225373406
0.2983966,0.12229173304488862,0.06461828039393358,0.017962168671552595,0.06775207987220029,0.0819762410843893,0.09482558970944754,0.0373140718790894,0.06220187658214975
0.2988621,0.12329929894656252,0.06492520262403242,0.018049832042216565,0.06809577850061414,0.08228598417956953,0.09494657449291916,0.03717905757393417,0.062279392349377745
0.2993276,0.12430577861790174,0.06523059960787576,0.018137937491255543,0.06844250570894009,0.08259137761122641,0.09506438579522701,0.03704271151063553,0.06235516461300221
0.2997931,0.12531104798295617,0.06553445469215231,0.01822645758568166,0.06879225196967317,0.08289235269710885,0.09517900640125494,0.03690504705386464,0.06242923399312853
0.3002586,0.12631498290717383,0.06583675187852911,0.018315365155675847,0.06914500631077622,0.08318884152887605,0.0952904194103286,0.036766077531400876,0.06250164162425463
0.3007241,0.12731745923108473,0.06613747582636433,0.018404633296222467,0.06950075630277568,0.08348077699141714,0.0953986082398406,0.03662581623315427,0.06257242913536751
0.3011897,0.12831835280413634,0.06643661185512853,0.018494235368602428,0.0698594880464047,0.08376809278214953,0.09550355662898298,0.03648427641031679,0.06264163862991681
0.3016552,0.12931753951866387,0.06673414594653612,0.01858414500174564,0.07022118616080503,0.08405072343029084,0.09560524864258663,0.03634147127464476,0.0627093126656773
0.3021207,0.13031489534397925,0.06703006474638909,0.018674336093443798,0.070585833772299,0.08432860431609913,0.09570366867506719,0.03619741399787449,0.06277549423451151
0.3025862,0.13131029636056388,0.06732435556613456,0.018764782811424487,0.07095341250374274,0.08460167169007705,0.0957988014544763,0.03605211771127279,0.06284022674204368
0.3030517,0.1323036187943509,0.06761700638413788,0.01885545959428786,0.0713239024644711,0.08486986269213516,0.09589063204665721,0.035905595505324066,0.06290355398725524
0.3035172,0.13329473905108413,0.06790800584667296,0.018946341152307193,0.07169728224084507,0.08513311537070994,0.09597914585950333,0.035757860429555345,0.06296552014201201
0.3039828,0.13428353375074162,0.06819734326863194,0.01903740246809498,0.07207352888741109,0.0853913687018325,0.0960643286473188,0.035608925492500595,0.06302616973053259
0.3044483,0.13526987976201132,0.06848500863395746,0.019128618797136305,0.07245261791868214,0.08564456260814368,0.09614616651528012,0.03545880366180537,0.063085547608807
0.3049138,0.13625365423680702,0.06877099259580098,0.019219965668191626,0.07283452330154942,0.0858926379778514,0.09622464592399813,0.03530750786447275,0.06314369894397434
0.3053793,0.13723473464481292,0.06905528647641143,0.019311418883571286,0.07321921744833318,0.08613553668362599,0.09629975369417935,0.03515505098725136,0.06320066919366772
0.3058448,0.13821299880804616,0.06933788226675865,0.01940295451928425,0.07360667121048087,0.08637320160142861,0.09637147701138524,0.035001445877165985,0.0632565040853342
0.3063103,0.1391883249354267,0.06961877262589634,0.0194945489250638,0.07399685387292057,0.0866055766292678,0.09643980343088733,0.03484670534219142,0.0633112495955373
0.3067759,0.14016059165734385,0.0698979508800692,0.01958617872427307,0.07438973314907737,0.08683260670587876,0.0965047208826164,0.034690842152069606,0.06336495192924883
0.3072414,0.14112967806020893,0.07017541102156813,0.01967782081369337,0.07478527517656047,0.08705423782932034,0.0965662176762026,0.03453386903927051,0.06341765749913693
0.3077069,0.142095463720983,0.07045114770733805,0.01976945236319845,0.07518344451352889,0.0872704170754841,0.09662428250610387,0.03437579870009706,0.06346941290485614
0.3081724,0.1430578287416674,0.07072515625734228,0.019861050815317992,0.07558420413574345,0.0874810926165109,0.09667890445681922,0.03421664379593458,0.06352026491234546
0.3086379,0.14401665378374476,0.07099743265268688,0.019952593884693608,0.0759875154343121,0.0876862137391111,0.0967300730081828,0.034056416954645216,0.06357026043313971
0.3091034,0.14497182010255732,0.07126797353350878,0.02004405955743097,0.0763933382141357,0.087885730862785,0.0967777780407341,0.03389513077210811,0.0636194465036991
0.309569,0.14592320958160804,0.07153677619663068,0.020135426090351693,0.07680163069306047,0.08807959555794012,0.0968220098411592,0.03373279781390585,0.0636678702647615
0.3100345,0.1468707047667702,0.0718038385929859,0.020226672010148824,0.07721234950174358,0.08826776056390159,0.09686275910779742,0.03356943061715767,0.06371557894072151
0.3105,0.14781418890038966,0.0720691593248163,0.020317776112449854,0.07762544968423732,0.08845017980681164,0.09690001695620784,0.033405041692499804,0.06376261981904026
0.3109655,0.148753545955264,0.0723327376426465,0.02040871746079134,0.07804088469929726,0.0886268084174133,0.09693377492478955,0.033239643526212996,0.06380904022968915
0.311431,0.14968866066848158,0.07259457344203725,0.02049947538550922,0.07845860642241942,0.08879760274871355,0.09696402498045044,0.03307324858249719,0.06385488752463066
0.3118966,0.15061941857510439,0.07285466726012074,0.02059002948254909,0.07887856514861058,0.08896252039352012,0.09699075952432017,0.032905869305893225,0.06390020905733913
0.3123621,0.1515457060416777,0.07311302027192061,0.020680359612200563,0.07930070959589558,0.08912152020184741,0.09701397139750416,0.03273751812385126,0.06394505216236494
0.3128276,0.15246741029955008,0.07336963428645954,0.02077044589776001,0.07972498690956485,0.08927456229818657,0.09703365388687686,0.03256820744944562,0.06398946413494534
0.3132931,0.15338441947798703,0.07362451174265748,0.020860268724125816,0.08015134266716506,0.08942160809863563,0.09704980073091286,0.03239794968423564,0.06403349221066655
0.3137586,0.1542966226370613,0.07387765570502425,0.020949808736330247,0.0805797208842352,0.08956262032788528,0.09706240612555518,0.0322267572212722,0.06407718354518151
0.3142241,0.15520390980030263,0.07412906985915071,0.021039046838011968,0.08101006402079021,0.08969756303605604,0.09707146473011923,0.032054642448249404,0.06412058519398857
0.3146897,0.15610617198708965,0.07437875850700335,0.02112796418983316,0.08144231298855345,0.08982640161538208,0.09707697167323087,0.03188161775080099,0.06416374409227678
0.3151552,0.15700330124476414,0.07462672656202697,0.021216542207845086,0.08187640715893932,0.08994910281673754,0.09707892255879653,0.031707695515940694,0.06420670703484349
0.3156207,0.15789519068044816,0.07487297954406107,0.021304762561805985,0.08231228437178618,0.090065634766001,0.09707731347200274,0.03153288813564569,0.06424952065609005
0.3160862,0.15878173449254332,0.07511752357407438,0.021392607173455157,0.08274988094483997,0.09017596698025543,0.09707214098534177,0.031357208010582005,0.06429223141010149
0.3165517,0.1596628280018902,0.07536036536872263,0.02148005821474731,0.08318913168398769,0.09028007038382113,0.09706340216465915,0.031180667553970472,0.06433488555081589
0.3170172,0.1605383676825654,0.07560151223473421,0.021567098106051216,0.08362996989424008,0.09037791732412051,0.09705109457521846,0.03100327919559172,0.0643775291122889
0.3174828,0.1614082511922926,0.07584097206312858,0.021653709514316884,0.08407232739146146,0.09046948158737413,0.09703521628777795,0.03082505538592832,0.06442020788905903
0.3179483,0.16227237740244285,0.07607875332327252,0.021739875351215507,0.08451613451484463,0.09055473841412748,0.09701576588467312,0.030646008600442094,0.06446296741661942
0.3184138,0.1631306464275993,0.07631486505677929,0.02182557877125667,0.08496132014012814,0.09063366451460797,0.09699274246589897,0.0304661513439843,0.06450585295200177
0.3188793,0.16398295965466028,0.07654931687125659,0.02191080316988727,0.08540781169355328,0.0907062380839119,0.09696614565518562,0.030285496155336312,0.06454890945447816
0.3193448,0.16482921977145548,0.07678211893390861,0.021995532181576655,0.08585553516655754,0.0907724388170206,0.09693597560606061,0.030104055611878112,0.0645921815663866
0.3198103,0.16566933079485044,0.07701328196499713,0.022079749677892696,0.08630441513120164,0.0908322479236452,0.09690223300789098,0.029921842334381717,0.06463571359408643
0.3202759,0.16650319809831637,0.0772428172311666,0.02216343976557348,0.086754374756327,0.09088564814289815,0.09686491909189753,0.029738868991926504,0.0646795494890496
0.3207414,0.1673307284389452,0.0774707365386377,0.02224658678459937,0.0872053358244407,0.09093262375779015,0.0968240356371332,0.029555148306933083,0.06472373282909404
