Time,Rectus Femoris right,Rectus Femoris left,Hamstrings right,Hamstrings left,TibilaisÂ Anterior right,TibilaisÂ Anterior left,Gastrocnemius right,Gastrocnemius left
0.0,0.0018897717299889239,-0.000418542605397473,0.0014783907924343668,0.000863421267160119,-0.015893625544048936,-0.00035684483594292506,-0.0019207888992956016,0.004041303255578674
0.0004655,0.0021912684422507817,-0.0003861269148582433,0.001577698430688821,0.0009103284579283771,-0.014771670250882865,-0.0003283552566332891,-0.001900045283574431,0.004166940580925604
0.000931,0.002492324427169662,-0.00035362568369969196,0.0016769934955110815,0.0009573048328553209,-0.013651268719307615,-0.00029950281735611236,-0.0018786237244298027,0.004291942607448488
0.0013966,0.0027928968590177237,-0.0003210399458080546,0.0017762651244775836,0.0010043441482287902,-0.012532579628388572,-0.0002702809710071347,-0.0018565047020937145,0.0044162876322103055
0.0018621,0.003092942998146086,-0.00028837069653881597,0.0018755024997585258,0.001051440131626418,-0.011415761418858765,-0.00024068306836928316,-0.0018336684387422941,0.00453995409318076
0.0023276,0.003392420204572422,-0.0002556188917919384,0.001974694851842224,0.0010985864836278337,-0.010300972245443647,-0.0002107023580113705,-0.0018100948995785305,0.0046629205772827425
0.0027931,0.003691285951543239,-0.0002227854471089522,0.0020738314632380195,0.001145776879542461,-0.00918836992927807,-0.00018033198624680698,-0.0017857637940217259,0.004785165828405234
0.0032586,0.003989497839062746,-0.0001898712367930674,0.002172901672155483,0.0011930049711523253,-0.008078111910440824,-0.00014956499715504005,-0.0017606545770052506,0.004906668755376989
0.0037241,0.004287013607380235,-0.00015687709305341473,0.0022718948761576573,0.0012402643884692874,-0.006970355200631659,-0.00011839433266825029,-0.0017347464503841281,0.0050274084398954
0.0041897,0.0045837911504279525,-0.00012380380517446388,0.002370800535786103,0.0012875487415061114,-0.005865256336014969,-8.681283272565462e-05,-0.0017080183644539372,0.005147364144405062
0.0046552,0.004879788529201581,-9.065211871161024e-05,0.0024696081781555006,0.0013348516220607737,-0.00476297133025355,-5.481323549759348e-05,-0.001680449019582475,0.005266515319920658
0.0051207,0.0051749639850755666,-5.742273471386799e-05,0.0025683074005155865,0.0013821666055134057,-0.0036636556277550546,-2.2388177681386524e-05,-0.001652016867955592,0.005384841613789072
0.0055862,0.0054692759530457465,-2.4116308974556885e-05,0.0026668878737782058,0.0014294872526352655,-0.0025674640571531444,1.0469805129298207e-05,-0.0016227001154385772,0.005502322877385836
0.0060517,0.005762683074891937,9.266548689178203e-06,0.0027653393460072774,0.001476807111409121,-0.0014745507850448902,4.376827800008907e-05,-0.0015924767235544388,0.005618939173741251
0.0065172,0.006055144212253339,4.2725275127223834e-05,0.002863651645869488,0.0015241197188604345,-0.00038506927000567747,7.751490613535241e-05,-0.0015613244115803952,0.005734670785091743
0.0069828,0.006346618459609862,7.625935451698797e-05,0.0029618146860435537,0.0015714186028987426,0.0007008277830973419,0.00011171745428040652,-0.0015292206587638555,0.005849498220352128
0.0074483,0.006637065157162639,0.00010986831899282829,0.0030598184665859202,0.001618697284168634,0.0017829884684724677,0.00014638378604560131,-0.001496142706659119,0.005963402222504593
0.0079138,0.006926443903607259,0.0001435517492437703,0.003157653078250827,0.0016659492779097544,0.002861261724431007,0.0001815218631514192,-0.0014620675615859757,0.006076363775900318
0.0083793,0.007214714568793443,0.000177309275078909,0.003255308705762703,0.0017131680958252737,0.003935497378055488,0.00021713974459378928,-0.00142697199721133,0.0061883641134697015
0.0088448,0.007501837306265053,0.00021114057595992463,0.003352775631038938,0.0017603472479582787,0.005005546189489686,0.0002532455857288423,-0.0013908325572549176,0.006299384723837292
0.0093103,0.007787772565674531,0.0002450453815001717,0.0034500442363611223,0.0018074802445755549,0.00607125989583243,0.00028984763727638724,-0.001353625558320137,0.006409407358337503
0.0097759,0.008072481105065914,0.0002790234719298202,0.003547105007492924,0.0018545605980582333,0.007132491254617905,0.00032695424424146886,-0.0013153270928509741,0.006518414037927293
0.0102414,0.008355924003020687,0.0003130746785265378,0.0036439485367427606,0.0019015818247987712,0.008189094086865634,0.00036457384475347424,-0.00127591303221595,0.006626387059992031
0.0107069,0.008638062670660697,0.00034719888401121265,0.0037405655259695023,0.0019485374471037349,0.009240923319683776,0.0004027149688223836,-0.0012353590299199906,0.0067333090050407905
0.0111724,0.00891885886350242,0.00038139602290822067,0.0038369467895294435,0.001995420995101849,0.01028783502840978,0.0004413862370118874,-0.001193640524945052,0.006839162743287422
0.0116379,0.009198274693156828,0.0004156660818697567,0.003933083257162805,0.002042226008656782,0.011329686478272923,0.0004805963590292014,-0.0011507327452202835,0.006943931441113768
0.0121034,0.00947627263886915,0.0004500090999637691,0.004028965976818039,0.0020889460392841397,0.012366336165563829,0.0005203541322315,-0.0011066107112224243,0.0070475985674114195
0.012569,0.009752815558892843,0.000484425168925067,0.004124586117412211,0.002135574652072126,0.0133976438582967,0.0005606684400489443,-0.001061249239707025,0.00715014789979843
0.0130345,0.010027866701692086,0.0005189144333692044,0.004219934971525786,0.002182105427605344,0.014423470636350539,0.0006015482503243246,-0.0010146229475709648,0.007251563530707393
0.0135,0.010301389716967172,0.0005534770909687854,0.004315003958030123,0.0022285319638911828,0.015443678931076135,0.0006430026135693537,-0.0009667062558466001,0.007351829873341257
0.0139655,0.010573348666497315,0.0005881133925918694,0.004409784624646102,0.002274847878288227,0.016458132564355972,0.0006850406611376634,-0.0009174733938277452,0.00745093166749327
0.014431,0.010843708034795485,0.0006228236424021982,0.004504268650432306,0.0023210468094361195,0.017466696787104465,0.0007276716033145648,-0.0008668984033275689,0.007548853985227397
0.0148966,0.011112432739570037,0.0006576081979209994,0.004598447848201237,0.002367122419186286,0.018469238317196348,0.0007709047273236474,-0.0008149551430684063,0.007645582236415624
0.0153621,0.011379488141988062,0.0006924674700501651,0.004692314166862126,0.002413068394532913,0.019465625376811325,0.0008147493952503196,-0.0007616172932034237,0.0077411021741286366
0.0158276,0.011644840056735441,0.0007274019230566473,0.004785859693688845,0.002458878449543567,0.020455727729183505,0.0008592150418824381,-0.000706858359970031,0.007835399899876461
0.0162931,0.011908454761868869,0.0007624120745179622,0.004879076656511484,0.002504546327288831,0.02143941671474445,0.0009043111724682276,-0.0006506516804748968,0.007928461868695703
0.0167586,0.012170299008455098,0.0007974984952287477,0.00497195742583011,0.0025500658017703222,0.022416565286649006,0.000950047360391748,-0.0005929704276103783,0.008020274894080156
0.0172241,0.01243034002999281,0.0008326618090683724,0.005064494516849231,0.0025954306798464965,0.023387048045673032,0.0009964332447662142,-0.0005337876151021372,0.008110826152751535
0.0176897,0.01268854555161253,0.0008679026928296406,0.005156680591431457,0.002640634803155639,0.024350741274472454,0.0010434785279455053,-0.0004730761026876708,0.00820010318926715
0.0181552,0.0129448837990501,0.000903221876008692,0.005248508459968821,0.0026856720500354862,0.02530752297119306,0.0010911929729542254,-0.00041080860142545157,0.008288093920461377
0.0186207,0.013199323507389083,0.0009386201405562412,0.005339971083170216,0.002730536337438944,0.026257272882420444,0.0011395864008367036,-0.00034695767913434203,0.00837478663971781
0.0190862,0.013451833929567529,0.000974098320590343,0.005431061573763423,0.0027752216228453842,0.02719987253545956,0.0011886686879253655,-0.0002814957659629217,0.008460170021069042
0.0195517,0.01370238484464449,0.0010096573020709002,0.005521773198110247,0.0028197219061670154,0.028135205269933062,0.001238449763028958,-0.00021439516008832168,0.008544233123120993
0.0200172,0.013950946565821734,0.0010452980224361546,0.005612099377733498,0.002864031231649818,0.0290631562686877,0.0012889396045411745,-0.00014562803354411177,0.00862696539279883
0.0204828,0.014197489948216213,0.0010810214702014168,0.005702033690754735,0.0029081436897685207,0.029983612587997647,0.0013401482374702943,-7.516643817671661e-05,0.008708356668911479
0.0209483,0.014441986396379029,0.0011168286845202992,0.0057915698732420645,0.0029520534191150847,0.030896463187053712,0.0013920857303905104,-2.9823117297548456e-06,0.008788397185531838
0.0214138,0.014684407871556946,0.0011527207547087303,0.00588070182046761,0.0029957546082801556,0.031801598956727156,0.0014447621923156582,7.095251594438735e-05,0.008867077575189949
0.0218793,0.014924726898692647,0.001188698819732032,0.005969423588074547,0.0030392414977269086,0.03269891274759684,0.0014981877694960931,0.00014666631654651756,0.008944388871876489
0.0223448,0.015162916573160205,0.00122476406765535,0.006057729393153819,0.003082508381656702,0.03358829939722849,0.0015523726421394681,0.0002241874568669751,0.00902032251385418
0.0228103,0.015398950567232403,0.0012609177350577261,0.0061456136152307946,0.0031255496098659312,0.03446965575669471,0.0016073270210561852,0.00030354439219724933,0.009094870346274842
0.0232759,0.01563280313627663,0.0012971611064101112,0.006233070797162149,0.0031683595895934495,0.03534288071632451,0.0016630611442303008,0.00038476565961783477,0.009168024623599946
0.0237414,0.01586444912467641,0.001333495513417614,0.006320095645943268,0.0032109327873579216,0.03620787523067095,0.0017195852733166805,0.00046787987116331736,0.009239778011822667
0.0242069,0.016093863971475966,0.0013699223343262886,0.00640668303342649,0.0032532637307844375,0.03706454234268548,0.0017769096900652009,0.0005529157068657149,0.00931012359048942
0.0246724,0.01632102371574569,0.0014064429931947542,0.0064928279969504775,0.0032953470104197086,0.037912787207087476,0.0018350446926728144,0.0006399019076771084,0.009379054854518998
0.0251379,0.016545905001666982,0.0014430589591309423,0.006578525739881078,0.0033371772815351496,0.03875251711291764,0.0018940005920643046,0.0007288672682726106,0.009446565715817498
0.0256034,0.016768485083335366,0.0014797717454942572,0.006663771632064061,0.0033787492659171276,0.03958364150526441,0.001953787708102568,0.0008198406297347206,0.009512650504687376
0.026069,0.016988741829281326,0.0015165829090634261,0.0067485612101902065,0.0034200577536436386,0.04040607200615275,0.0020144163657293047,0.000912850872120116,0.009577303971029084
0.0265345,0.01720665372670876,0.0015534940491703148,0.006832890178073326,0.0034610976048466287,0.04121972243458572,0.0020758968910370456,0.001007926906909937,0.009640521285333816
0.027,0.01742219988545122,0.0015905068067999819,0.006916754406841822,0.003501863751459187,0.04202450882573032,0.0021382396072735154,0.0011050976693446086,0.009702298039465972
0.0274655,0.01763536004164625,0.0016276228636572592,0.00700014993504445,0.0035423511989467853,0.04282034944924015,0.0022014548307793965,0.0012043921106442525,0.009762630247233983
0.027931,0.017846114561128352,0.0016648439412001548,0.00708307296867097,0.003582555028021736,0.04360716482670882,0.002265552866860654,0.001305839190115736,0.0098215143447483
0.0283966,0.018054444442540937,0.0017021717996403931,0.007165519881088317,0.003622470396339999,0.044384877748248994,0.0023305440055966663,0.0014094678671473996,0.009878947190565552
0.0288621,0.018260331320168022,0.0017396082369114307,0.007247487212892977,0.003662092540179469,0.04515341328819307,0.002396438517585514,0.0015153070930925246,0.009934926065618183
0.0293276,0.018463757466486243,0.0017771550876042974,0.007328971671680299,0.003701416776098837,0.04591269881991216,0.0024632466496278846,0.0016233858030426116,0.00998944867292914
0.0297931,0.01866470579443826,0.0018148142218716349,0.007409970131731539,0.003740438502576127,0.046662664029750604,0.002530978620351168,0.0017337329074915936,0.01004251313711147
0.0302586,0.01886315985942884,0.0018525875443003163,0.0074904796336195,0.0037791532016259732,0.047403240930073455,0.0025996446157754275,0.0018463772838921378,0.010094118003652756
0.0307241,0.019059103861045357,0.0018904769927530474,0.00757049738373376,0.0038175564403947148,0.04813436387142445,0.0026692547848230623,0.001961347768105249,0.010144262237984479
0.0311897,0.019252522644504607,0.0019284845371793666,0.0076500207537265365,0.0038556438727323774,0.04885596955379193,0.002739819234774108,0.0020786731457444253,0.010192945224336485
0.0316552,0.019443401701828504,0.00196661217839649,0.007729047279880347,0.003893411240740594,0.04956799703698005,0.002811348026669268,0.0021983821434156674,0.010240166764377038
0.0321207,0.019631727172751124,0.0020048619468404686,0.007807574662398694,0.003930854376295541,0.050270387750082864,0.0028838511706628846,0.0023205034198546786,0.010285927075639195
0.0325862,0.019817485845359927,0.002043235901288146,0.007885600764621128,0.003967969202544954,0.05096308550005899,0.0029573386213281607,0.002445065556962608,0.010330226789734756
0.0330517,0.020000665156473838,0.002081736127550422,0.007963123612164068,0.004004751735378296,0.051646036479405306,0.0030318202729170056,0.0025720970507417166,0.010373066950357664
0.0335172,0.020181253191761016,0.0021203647371373343,0.008040141391988819,0.0040411980848691536,0.052319189272928786,0.0031073059545769295,0.002701626302132346,0.010414449011079501
0.0339828,0.020359238685599038,0.002159123865895495,0.008116652451398238,0.00407730445668892,0.052982494863616725,0.003183805425527456,0.002833681607752588,0.010454374832940531
0.0344483,0.020534611020680417,0.002198015672618409,0.008192655296963527,0.004113067153490833,0.053635906637606555,0.0032613283701985775,0.002968291150542073,0.010492846681840216
0.0349138,0.020707360227366443,0.0022370423376302283,0.008268148593382593,0.00414848257626341,0.05427938038825803,0.003339884393333827,0.003105482990311345,0.010529867225731416
0.0353793,0.020877476982792485,0.0022762060613434943,0.008343131162271564,0.004183547225652345,0.054912874319332595,0.003419483015060609,0.003245285054198397,0.010565439531622579
0.0358448,0.02104495260972812,0.0023155090627914585,0.008417601980891027,0.004218257703249914,0.05553634904728643,0.0035001336659304847,0.0033877251270340346,0.010599567062392318
0.0363103,0.02120977907519545,0.002354953578135575,0.008491560180808594,0.004252610712850932,0.056149767602684975,0.0035818456819321867,0.0035328308416178638,0.010632253673420817
0.0367759,0.021371948988849043,0.0023945418591487994,0.008565005046499518,0.004286603061674343,0.05675309543074792,0.003664628299480187,0.003680629668906784,0.010663503609042673
0.0372414,0.02153145560112098,0.0024342761716753493,0.008637936013886946,0.004320231661549475,0.05734630039103432,0.003748490650381685,0.003831148908117949,0.01069332149882587
0.0377069,0.021688292801134296,0.002474158794067602,0.0087103526688235,0.00435349353006608,0.05792935275627799,0.0038334417567849363,0.00398441567674821,0.01072171235368169
0.0381724,0.021842455114388117,0.0025141920156008563,0.008782254745515757,0.0043863857916872275,0.0585022252103839,0.003919490526111867,0.00414045690051218,0.010748681561810445
0.0386379,0.021993937700217802,0.002554378134866684,0.008853642124893235,0.004418905678824187,0.059064892845596115,0.0040066457459779665,0.004299299303201196,0.010774234884487912
0.0391034,0.022142736349033434,0.0025947194581456526,0.008924514832923515,0.004451050532872451,0.059617333158848276,0.004094916079102449,0.004460969396465673,0.010798378451697361
0.039569,0.022288847479339974,0.0026352182977601945,0.008994873038875159,0.004482817805208038,0.06015952604730836,0.004184310058211714,0.004625493469523561,0.010821118757612014
0.0400345,0.02243226813454268,0.00267587697040844,0.009064717053530184,0.004514205058143244,0.060691453803129465,0.004274836080939121,0.004792897578797918,0.010842462655932802
0.0405,0.022572995979541374,0.002716697795479846,0.009134047327347915,0.004545209965841027,0.06121310110741913,0.004366502404724134,0.004963207537486841,0.010862417355086137
0.0409655,0.022711029297117324,0.0027576830933534763,0.009202864448582138,0.0045758303151872326,0.06172445502343989,0.004459317141713901,0.005136448905069282,0.01088099041328648
0.041431,0.022846366984116698,0.002798835183679799,0.00927116914135346,0.004606064006619865,0.062225504989054006,0.004553288253670359,0.005312646976750498,0.01089818973346837
0.0418966,0.022979008547434687,0.0028401563836468894,0.009338962263678814,0.004635909054914623,0.06271624280842583,0.004648423546885999,0.00549182677285109,0.010914023558092545
0.0423621,0.02310895409980452,0.0028816490062319095,0.009406244805459983,0.004665363589925935,0.0631966626429962,0.004744730667111399,0.00567401302814372,0.010928500463830784
0.0428276,0.023236204355395883,0.002923315358438749,0.009473017886432981,0.004694425857282742,0.06366676100174352,0.004842217094497677,0.005859230181141721,0.010941629356134028
0.0432931,0.023360760625227357,0.0029651577395226766,0.009539282754080156,0.004723094219038297,0.06412653673074704,0.0049408901385569704,0.006047502363343874,0.010953419463688366
0.0437586,0.02348262481239757,0.0030071784392028825,0.009605040781506834,0.004751367154273323,0.06457599100206822,0.005040756933144041,0.0062388533884396415,0.010963880332763406
0.0442241,0.023601799407139936,0.0030493797358637584,0.009670293465284318,0.004779243259651851,0.06501512730196629,0.005141824431462091,0.006433306741479193,0.010973021821457487
0.0446897,0.023718287481705826,0.003091763894745768,0.00973504242326101,0.004806721249929136,0.06544395141846432,0.005244099401095852,0.006630885568012566,0.010980854093844155
0.0451552,0.0238320926850812,0.003134333166126757,0.009799289392343391,0.004833799958411056,0.06586247142828207,0.005347588419074994,0.00683161266320238,0.010987387614024208
0.0456207,0.023943219237541516,0.003177089783494543,0.009863036226248581,0.004860478337364447,0.06627069768315215,0.005452297866970856,0.00703551046091452,0.01099263314008761
0.0460862,0.02405167192504982,0.003220035961711616,0.009926284893230114,0.004886755458377891,0.06666864279553512,0.005558233926029495,0.00724260102279128,0.01099660171798943
0.0465517,0.024157456093502765,0.00326317389517277,0.009989037473778545,0.00491263051267249,0.06705632162374921,0.005665402572343982,0.007452906027311397,0.01099930467534399
0.0470172,0.024260577642829354,0.0033065057559564883,0.01005129615829849,0.004938102811362235,0.06743375125652952,0.005773809572068844,0.007666446758841516,0.011000753615141442
0.0474828,0.024361043020947274,0.003350033691970925,0.010113063244763685,0.004963171785663621,0.06780095099703129,0.005883460476679512,0.007883244096683584,0.011000960409390971
0.0479483,0.024458859217581667,0.0033937598250953346,0.010174341136351638,0.0049878369870541926,0.06815794234629122,0.005994360618279569,0.008103318504122731,0.010999937192694959
0.0484138,0.024554033757951607,0.003437686249317824,0.010235132339059448,0.005012098087379785,0.06850474898616075,0.00610651510495856,0.00832669001748024,0.010997696355758374
0.0488793,0.024646574696329686,0.003481815028870351,0.010295439459302277,0.005035954878910246,0.06884139676172406,0.00621992881620307,0.008553378235176268,0.010994250538837756
0.0493448,0.02473649060948048,0.0035261481963619313,0.010355265201495925,0.005059407274343507,0.0691679136632137,0.006334606398363762,0.008783402306806978,0.010989612625134116
0.0498103,0.024823790589983723,0.003570687750911041,0.010414612365624873,0.005082455306757921,0.06948432980743596,0.006450552260181004,0.009016780922240793,0.010983795734134051
0.0502759,0.02490848423944837,0.0036154356562782533,0.010473483844797083,0.005105099129512829,0.06979067741871739,0.006567770568371729,0.00925353230073841,0.010976813214903403
0.0507414,0.0249905816616237,0.0036603938390001533,0.010531882622786794,0.005127339016097389,0.07008699080938377,0.00668626524328013,0.009493674180101296,0.010968678639337686
0.0512069,0.025070093455413646,0.003705564186525611,0.010589811771566447,0.005149175359927719,0.07037330635978177,0.006806039954594808,0.009737223805853271,0.010959405795373623
0.0516724,0.0251470307078004,0.003750948545355502,0.01064727444882884,0.0051706086740925085,0.07064966249785368,0.006927098117134922,0.009984197920459879,0.010949008680165986
0.0521379,0.02522140498668342,0.0037965487191870062,0.010704273895500438,0.005191639591047244,0.07091609967827488,0.007049442886707868,0.010234612752590157,0.010937501493234001
0.0526034,0.025293228333639613,0.003842366467063622,0.010760813433246814,0.005212268862257277,0.07117266036116346,0.0071730771560409865,0.010488484006425419,0.010924898629581488
0.053069,0.025362513256610344,0.0038884035015320853,0.010816896461971018,0.005232497357789989,0.07141938899037097,0.007298003550789686,0.010745826851019677,0.010911214672794853
0.0535345,0.02542927272252079,0.003934661486807408,0.010872526457305626,0.005252326065856355,0.07165633197136338,0.007424224425624353,0.011006655909716404,0.010896464388123032
0.054,0.025493520149837003,0.0039811420369472664,0.010927706968099159,0.005271756092302246,0.07188353764870095,0.007551741860398357,0.011270985249626457,0.01088066271554341
0.0544655,0.02555526940106585,0.004027846714037004,0.010982441613897545,0.00529078866004983,0.07210105628312526,0.007680557656399416,0.011538828371172304,0.010863824762817713
0.054931,0.025614534775202952,0.004074777026386495,0.011036734082421186,0.005309425108489461,0.07230894002826183,0.007810673332686503,0.01181019819770384,0.01084596579854173
0.0553966,0.02567133100013343,0.0041219344267401595,0.011090588127038177,0.005327666892822452,0.07250724290694603,0.007942090122514485,0.012085107065191256,0.010827101245192771
0.0558621,0.025725673224990163,0.0041693203105013805,0.011144007564234091,0.005345515583355109,0.07269602078717972,0.008074808969848588,0.012363566712000484,0.010807246672178594
0.0563276,0.025777577012474153,0.004216936013972609,0.011196996271078778,0.005362972864744364,0.0728753313577255,0.008208830525970746,0.012645588268756726,0.010786417788891518
0.0567931,0.025827058331141205,0.0042647828126123975,0.011249558182690458,0.00538004053519535,0.07304523410334518,0.008344155146179874,0.012931182248301464,0.010764630437771344
0.0572586,0.02587413354765912,0.00431286191931061,0.011301697289697364,0.00539672050561121,0.07320579027968825,0.008480782886588038,0.013220358535748265,0.010741900587380667
0.0577241,0.0259188194190393,0.004361174482683011,0.011353417635697157,0.005413014798695442,0.0733570628878357,0.008618713501014449,0.013513126378642621,0.010718244325496076
0.0581897,0.02596113308484662,0.00440972158538643,0.011404723314714265,0.005428925548007059,0.07349911664850377,0.008757946437979208,0.013809494377230965,0.010693677852218707
0.0586552,0.02600109205939131,0.004458504242455654,0.011455618468655289,0.0054444549969688465,0.07363201797591186,0.008898480837798657,0.014109470474843944,0.010668217473107524
0.0591207,0.02603871422390633,0.00450752339966321,0.011506107284762533,0.00545960549782902,0.07375583495131774,0.009040315529784187,0.014413061948398897,0.01064187959233861
0.0595862,0.02607401781871372,0.004556779931903143,0.011556193993065695,0.005474379510576623,0.07387063729622305,0.00918344902954629,0.01472027539902654,0.010614680705893708
0.0600517,0.02610702143538323,0.004606274641599889,0.011605882863831709,0.0054887796018109865,0.07397649634525134,0.009327879536405579,0.015031116742826674,0.010586637394781134
0.0605172,0.026137744008886278,0.004656008257143317,0.011655178205012632,0.005502808443565701,0.0740734850187004,0.009473604930912495,0.01534559120175778,0.01055776631829221
0.0609828,0.02616620480974823,0.004705981431350952,0.011704084359691483,0.005516468812087547,0.07416167779477004,0.009620622772477381,0.01566370329466527,0.010528084207296241
0.0614483,0.02619242343620176,0.004756194739958392,0.01175260570352579,0.005529763586570926,0.07424115068146604,0.009768930297112531,0.01598545682845311,0.010497607857577087
0.0619138,0.026216419806344,0.004806648680138871,0.01180074664218863,0.005542695747848424,0.07431198118818061,0.009918524415287807,0.01631085488940347,0.010466354123214281
0.0623793,0.02623821415030022,0.0048573436690528896,0.011848511608806815,0.005555268377038159,0.07437424829694986,0.010069401709901352,0.016639899834649027,0.01043433991001163
0.0628448,0.02625782700239684,0.004908280042428861,0.011895905061395937,0.005567484654148752,0.0744280324333886,0.010221558434366838,0.016972593283802427,0.010401582168976096
0.0633103,0.026275279193346723,0.004959458053175611,0.01194293148029188,0.005579347856642781,0.07447341543730296,0.010374990510818648,0.01730893611074743,0.010368097889849779
0.0637759,0.026290591842450035,0.005010877870027615,0.011989595365578599,0.005590861357959689,0.07451048053298234,0.010529693528436296,0.017648928435596074,0.010333904094697638
0.0642414,0.026303786349814184,0.005062539576223753,0.012035901234511991,0.005602028625999185,0.07453931229917231,0.0106856627418893,0.017992569616816168,0.010299017831553613
0.0647069,0.026314884388596468,0.005114443168220402,0.012081853618939736,0.00561285322156627,0.07455999663873113,0.010842893069903683,0.018339858243533267,0.010263456168127617
0.0651724,0.026323907897273232,0.0051665885544395634,0.012127457062717123,0.005623338796779029,0.07457262074797337,0.011001379093951144,0.018690792128011252,0.010227236185575873
0.0656379,0.02633087907193916,0.005218975554052756,0.012172716119118876,0.005633489093440387,0.07457727308570453,0.011161115057061874,0.01904536829831536,0.010190374972336939
0.0661034,0.026335820358640273,0.005271603895801321,0.01221763534824735,0.005643307941375004,0.07457404334195115,0.011322094862761927,0.019403582991161513,0.010152889618035715
0.066569,0.02633875444574409,0.0053244732168537924,0.012262219314437656,0.005652799256732538,0.07456302240639148,0.011484312074135956,0.019765431644955558,0.010114797207457648
0.0670345,0.026339704256350283,0.005377583061700931,0.01230647258366078,0.005661967040258419,0.0745443023364922,0.011647759913015986,0.02013090889302583,0.010076114814595267
0.0675,0.026338692940745034,0.005430932881089011,0.012350399720926135,0.0056708153755333215,0.07451797632535853,0.01181243125929684,0.020500008557052456,0.010036859496769145
0.0679655,0.02633574386890218,0.0054845220309919515,0.012394005287685236,0.0056793484271824325,0.07448413866930667,0.011978318650378754,0.02087272364069652,0.009997048288825328
0.068431,0.02633088062303405,0.005538349771622848,0.01243729383923826,0.005687570439055614,0.07444288473517004,0.012145414280737614,0.021249046323432122,0.009956698197411214
0.0688966,0.02632412699019468,0.005592415266485503,0.012480269922145341,0.005695485732379501,0.07439431092735276,0.01231371000162314,0.021628967954584213,0.009915826195331805
0.0693621,0.02631550695493806,0.005646717581466546,0.012522938071644396,0.005703098703882555,0.0743385146546457,0.012483197320885384,0.022012479047574977,0.00987444921598817
0.0698276,0.02630504469203383,0.0057012556839687555,0.012565302809077292,0.005710413823894092,0.07427559429682158,0.01265386740292977,0.022399569274381324,0.009832584147899913
0.0702931,0.026292764559242617,0.005756028442086225,0.012607368639326098,0.005717435634418257,0.07420564917102612,0.01282571106880088,0.022790227460205918,0.009790247829313328
0.0707586,0.026278691090153378,0.005811034623822008,0.012649140048261193,0.005724168747183924,0.07412877949798276,0.012998718796395177,0.023184441578364103,0.009747457042896866
0.0712241,0.026262848987084735,0.005866272896348884,0.01269062150020294,0.0057306178416714725,0.07404508636802856,0.013172880720802811,0.023582198745388864,0.009704228510525426
0.0716897,0.026245263114052664,0.005921741825313907,0.012731817435398673,0.005736787663117379,0.07395467170699889,0.013348186634778561,0.02398348521635578,0.009660578888154922
0.0721552,0.026225958489806668,0.0059774398741874015,0.01277273226751674,0.005742683020497516,0.07385763824197805,0.013524625989341945,0.024388286380429964,0.009616524760788517
0.0726207,0.026204960280936832,0.0060333654036570416,0.012813370381159279,0.005748308784490054,0.07375408946693328,0.013702187894506463,0.02479658675663664,0.009572082637535801
0.0730862,0.026182293795054084,0.006089516671067653,0.012853736129395455,0.005753669885418777,0.07364412960824886,0.013880861120137823,0.025208369989856923,0.009527268946766166
0.0735517,0.02615798447404608,0.006145891829907359,0.01289383383131683,0.005758771311177632,0.07352786359017714,0.01406063409694095,0.025623618847050163,0.00948210003135754
0.0740172,0.02613205788741103,0.006202488929340679,0.012933667769616576,0.005763618105137271,0.07340539700022271,0.014241494917575492,0.026042315213704315,0.009436592144041574
0.0744828,0.026104539725671762,0.006259305913789148,0.01297324218819429,0.005768215364034313,0.07327683605447574,0.014423431337899511,0.02646444009051564,0.009390761442846294
0.0749483,0.02607545579387228,0.006316340622559992,0.01301256128978807,0.005772568235844075,0.07314228756291045,0.01460643077834102,0.026889973590299227,0.009344623986637155
0.0754138,0.02604483200515892,0.006373590789523344,0.01305162923363557,0.005776681917637481,0.07300185889466385,0.01479048032539693,0.027318894935131996,0.009298195730757358
0.0758793,0.02601269437444799,0.00643105404283844,0.013090450133165602,0.0057805616534228705,0.07285565794331002,0.014975566733258944,0.027751182453729973,0.009251492522768176
0.0763448,0.025979069012181798,0.006488727904729194,0.013129028053721806,0.0057842127319734146,0.07270379309214463,0.015161676425565911,0.028186813579062085,0.009204530098290042
0.0768103,0.02594398211817447,0.006546609791309527,0.01316736701031987,0.005787640484640879,0.07254637317949453,0.015348795497282018,0.028625764846203085,0.009157324076944973
0.0772759,0.025907459975548983,0.006604697012458754,0.01320547096543968,0.00579085028315646,0.0723835074640672,0.015536909716700183,0.029068011890428444,0.009109889958400898
0.0777414,0.02586952894476651,0.00666298677174732,0.013243343826853675,0.005793847537419395,0.07221530559035477,0.015726004527570024,0.029513529445554354,0.009062243118518356
0.0782069,0.02583021545774906,0.006721476166413086,0.01328098944549265,0.00579663769327407,0.072041877554108,0.015916065051349626,0.029962291342526096,0.009014398805599955
0.0786724,0.025789546012096116,0.0067801621873884044,0.013318411613350175,0.005799226230276318,0.07186333366789538,0.016107076089580438,0.030414270508257818,0.008966372136742935
0.0791379,0.02574754716539583,0.006839041719378073,0.0133556140614267,0.005801618659449563,0.07167978452676299,0.016299022126384604,0.030869438964727006,0.008918178094295084
0.0796034,0.025704245529631183,0.006898111540988294,0.013392600457714357,0.005803820521031513,0.0714913409740105,0.01649188733108404,0.03132776782832687,0.008869831522414197
0.080069,0.02565966776568132,0.006957368324906656,0.01342937440522344,0.00580583738221206,0.07129811406709921,0.016685655560940656,0.03178922730948028,0.008821347123731187
0.0805345,0.02561384057791817,0.007016808638133139,0.013465939440051445,0.005807674834863055,0.07110021504370721,0.016880310364017055,0.03225378671251924,0.008772739456116901
0.081,0.025566790708898182,0.007076428942262092,0.013502299029495488,0.0058093384932606405,0.07089775528794692,0.017075834982157024,0.03272141443583459,0.00872402292955258
0.0814655,0.025518544934149106,0.007136225593815107,0.013538456570208999,0.005810833991800817,0.0706908462967598,0.017272212354085145,0.033192077972300775,0.008675211803103895
0.081931,0.025469130057051564,0.007196194844624686,0.013574415386403454,0.005812166982708926,0.07047959964650254,0.01746942511862471,0.033665743909980776,0.008626320181998362
0.0823966,0.025418572903815148,0.007256332842268597,0.013610178728095966,0.005813343133743744,0.07026412695973884,0.017667455618033085,0.034142377933116266,0.008577362014805964
0.0828621,0.025366900318548775,0.007316635630554775,0.0136457497694035,0.005814368125896873,0.07004453987225026,0.017866285901453633,0.03462194482340794,0.008528351090722657
0.0833276,0.02531413915842511,0.0073770991500566275,0.013681131606884396,0.005815247651088121,0.06982095000027946,0.018065897728483243,0.0351044084615907,0.008479301036956524
0.0837931,0.025260316288938576,0.0074377192386985485,0.013716327257927883,0.00581598740985754,0.06959346890801847,0.018266272572854472,0.03558973182930814,0.008430225316216199
0.0842586,0.02520545857925673,0.007498491632391447,0.013751339659192282,0.005816593109054797,0.0693622080753545,0.01846739162623131,0.03607787701129069,0.008381137224301222
0.0847241,0.02514959289766426,0.007559411965718073,0.013786171665092625,0.005817070459526509,0.06912727886588507,0.01866923580211751,0.03656880519784157,0.008332049887793968
0.0851897,0.025092746107098995,0.007620475772667848,0.013820826046338565,0.005817425173802145,0.06888879249521428,0.01887178573987643,0.03706247668763465,0.008282976261852695
0.0856552,0.0250349450607791,0.0076816784874209005,0.0138553054885234,0.00581766296377906,0.06864685999954087,0.019075021808861305,0.03755885089082781,0.008233929128105392
0.0861207,0.024976216597920344,0.007743015445180951,0.013889612590765104,0.005817789538407241,0.06840159220454924,0.01927892411265498,0.03805788633249572,0.008184921092643975
0.0865862,0.024916587539542328,0.007804481883056623,0.01392374986440017,0.005817810601374271,0.06815309969461282,0.019483472493418107,0.038559540656385005,0.008135964584118437
0.0870517,0.02485608468436228,0.00786607294099072,0.01395771973173102,0.00581773184879109,0.06790149278232001,0.019688646536344983,0.03906377062899523,0.00808707185193048
0.0875172,0.02479473480477491,0.007927783662736906,0.013991524524827607,0.005817558966879051,0.06764688147833141,0.019894425574226035,0.03957053214398855,0.00803825496452618
0.0879828,0.02473256464291664,0.007989608996883245,0.014025166484383818,0.005817297629658788,0.0673893754615772,0.020100788692116005,0.04007978022693082,0.0079895258077871
0.0884483,0.024669600906812344,0.008051543797921883,0.014058647758629247,0.005816953496641403,0.06712908404980274,0.020307714732106782,0.04059146904036676,0.007940896083519321
0.0889138,0.024605870266602544,0.008113582827364215,0.014091970402296759,0.005816532210522451,0.06686611617047021,0.0205151822982037,0.041105551889231554,0.007892377308039726
0.0893793,0.02454139935084888,0.008175720754900712,0.01412513637564625,0.005816039394879194,0.06660058033202329,0.020723169761304113,0.04162198122660106,0.007843980810858896
0.0898448,0.024476214742915402,0.008237952159604626,0.014158147543544976,0.005815480651871572,0.06633258459552205,0.02093165526427697,0.04214070865978262,0.007795717733459834
0.0903103,0.024410342977423262,0.008300271531178719,0.014191005674604736,0.005814861559947374,0.06606223654665394,0.021140616727142066,0.0426616849567484,0.007747599028171775
0.0907759,0.024343810536776082,0.008362673271244143,0.014223712440376162,0.005814187671552056,0.06578964326812708,0.0213500318523476,0.04318486005291291,0.00769963545713822
0.0912414,0.02427664384775343,0.008425151694670577,0.014256269414600323,0.005813464510843682,0.06551491131245096,0.021559878130144462,0.04371018305825629,0.007651837591378348
0.0917069,0.024208869278169575,0.008487701030946778,0.014288678072517722,0.005812697571413435,0.06523814667510945,0.021770132844055646,0.04423760226479471,0.00760421580994091
0.0921724,0.02414051313359479,0.008550315425590649,0.014320939790234716,0.005811892314012114,0.06495945476813036,0.02198077307643892,0.04476706515439879,0.007556780299149655
0.0926379,0.02407160165413641,0.008612988941597944,0.014353055844147308,0.005811054164283071,0.06467894039405529,0.02219177571414094,0.04529851840696087,0.007509541051939295
0.0931034,0.024002161011276803,0.008675715560928748,0.014385027410422267,0.005810188510501945,0.0643967077203131,0.02240311745424077,0.04583190790891182,0.007462507867280955
0.093569,0.023932217304765406,0.008738489186030853,0.014416855564535494,0.005809300701323596,0.06411286025399983,0.02261477480988073,0.04636717876208759,0.0074156903496959935
0.0940345,0.023861796559561818,0.008801303641399154,0.014448541280867543,0.00580839604353658,0.06382750081706716,0.022826724116182414,0.04690427529294583,0.007369097908857006
0.0945,0.023790924722827036,0.00886415267517025,0.014480085432356297,0.005807479799825585,0.06354073152192141,0.023038941536245534,0.04744314106213244,0.0073227397592747715
0.0949655,0.023719627660959846,0.008927029960751336,0.01451148879020669,0.005806557186542239,0.06325265374743416,0.023251403067227377,0.047983718874397584,0.0072766249200698395
0.095431,0.023647931156675725,0.008989929098482573,0.014542752023657372,0.005805633371484776,0.06296336811536551,0.023464084546500726,0.048525950788860635,0.007230762214827379
0.0958966,0.0235758609061256,0.009052843617332051,0.014573875699804133,0.005804713471687131,0.06267297446720066,0.02367696165788808,0.04906977812962295,0.007185160271533885
0.0963621,0.023503442516052186,0.009115766976622489,0.014604860283479843,0.005803802551218064,0.06238157184139986,0.02389000993797021,0.0496151414967271,0.007139827522594255
0.0968276,0.023430701500981595,0.009178692567788806,0.014635706137190634,0.005802905618991055,0.062089258451061745,0.0241032047824673,0.050161980777460764,0.007094772204927676
0.0972931,0.02335766328044811,0.009241613716165694,0.014666413521107978,0.005802027626585751,0.06179613166199924,0.024316521452691035,0.050710235158003235,0.007050002360140736
0.0977586,0.0232843531762501,0.009304523682804294,0.014696982593116255,0.005801173466081807,0.061502287971227414,0.024529935082066245,0.05125984313541196,0.007005525834776099
0.0982241,0.023210796409735012,0.00936741566631711,0.014727413408915355,0.0058003479679060565,0.0612078229858621,0.024743420682720816,0.05181074252994621,0.006961350280635047
0.0986897,0.023137018099111593,0.009430282804750232,0.014757705922177795,0.005799555898693961,0.06091283140242857,0.02495695315214247,0.05236287049772467,0.006917483155172151
0.0991552,0.023063043256787458,0.009493118177481968,0.014787859984759752,0.005798801959166322,0.06061740698657969,0.025170507279901038,0.05291616354371304,0.0068739317219603
0.0996207,0.02298889678673034,0.009555914807146872,0.01481787534696536,0.0057980907820222435,0.060321642553223226,0.025384057754434856,0.053470557535037516,0.006830703051224335
0.1000862,0.022914603481851287,0.009618665661584152,0.014847751657863612,0.005797426929849277,0.060025629947058366,0.025597579169899937,0.05402598771461966,0.006787804020441446
0.1005517,0.022840188021408345,0.009681363655809365,0.014877488465657123,0.0057968148930517115,0.059729460023522,0.025811046033080633,0.05458238871512742,0.0067452413150065485
0.1010172,0.022765674968429017,0.009744001654008298,0.01490708521810212,0.005796259087797863,0.059433222630145874,0.02602443277036056,0.0551396945732369,0.006703021428960766
0.1014828,0.022691088767149977,0.00980657247155196,0.014936541262978836,0.005795763853987228,0.059137006588326865,0.02623771373475243,0.055697838744199,0.006661150665781208
0.1019483,0.022616453740472366,0.009869068877031649,0.014965855848611584,0.005795333453238299,0.05884089967551315,0.026450863212985287,0.056256754116704534,0.00661963513923018
0.1024138,0.02254179408743084,0.009931483594313175,0.014995028124437666,0.005794972066897867,0.058544988607809656,0.02666385543264759,0.056816373028041045,0.006578480774262025
0.1028793,0.022467133880674527,0.009993809304609498,0.015024057141624235,0.005794683794072576,0.05824935902300697,0.02687666456938432,0.057376627279534194,0.006537693307985826
0.1033448,0.022392497063957708,0.010056038648571203,0.015052941853732136,0.00579447264968353,0.05795409546403861,0.027089264754146313,0.05793744815226616,0.006497278290682233
0.1038103,0.02231790744963808,0.010118164228394391,0.015081681117425748,0.00579434256254477,0.0576592813628721,0.027301630080489903,0.05849876642306298,0.006457241086872724
0.1042759,0.022243388716180246,0.010180178609945677,0.015110273693227936,0.0057942973734664395,0.057364999024839713,0.02751373461192476,0.05906051238074234,0.00641758687643963
0.1047414,0.02216896440566206,0.010242074324904123,0.015138718246319231,0.005794340833383498,0.05707132961341491,0.027725552389307788,0.059622615842613164,0.006378320655795288
0.1052069,0.022094657921281603,0.010303843872919955,0.015167013347380612,0.005794476601510835,0.056778353135440385,0.027937057438280753,0.060185006171217754,0.006339447239098705
0.1056724,0.02202049252486265,0.010365479723790016,0.01519515747347937,0.005794708243525675,0.056486148426813335,0.028148223776749286,0.06074761229130722,0.006300971259518166
0.1061379,0.0219464913343567,0.010426974319649904,0.015223149008997724,0.005795039229778179,0.05619479313863303,0.02835902542240083,0.061310362707040725,0.0062628971705382475
0.1066034,0.021872677321340083,0.010488320077182822,0.015250986246603848,0.005795472933531182,0.055904363723815624,0.028569436400259107,0.06187318551939918,0.006225229247309748
0.107069,0.021799073308504974,0.010549509389845092,0.015278667388264996,0.005796012629230032,0.055614935424180584,0.028779430750272554,0.062436008443804564,0.006187971588041108
0.1075345,0.021725701967143768,0.010610534630108335,0.0153061905463025,0.005796661490803518,0.05532658225801242,0.02898898253493422,0.0629987588279362,0.006151128115429894
0.108,0.021652585814626677,0.010671388151718248,0.015333553744488295,0.005797422589996886,0.05503937700810122,0.02919806584693045,0.06356136366973585,0.006114702578133044
0.1084655,0.02157974721187282,0.010732062291969921,0.015360754919182653,0.005798298894737959,0.05475339121026503,0.02940665481681564,0.0641237496355935,0.0060786985522745625
0.108931,0.021507208360815436,0.010792549373999531,0.015387791920512909,0.005799293267537314,0.05446869514235653,0.029614723620709976,0.06468584307870578,0.0060431194429893965
0.1093966,0.021434991301862036,0.010852841709092148,0.015414662513592768,0.00580040846392352,0.054185357813756184,0.02982224648801719,0.06524757005759874,0.006007968486002265
0.1098621,0.021363117911350257,0.010912931599005396,0.015441364379781856,0.005801647130914396,0.053903446955353616,0.030029197709158847,0.06580885635480696,0.005973248749240254
0.1103276,0.021291609899000065,0.010972811338308587,0.015467895117985067,0.0058030118055252145,0.05362302901001846,0.030235551643321614,0.06636962749570108,0.00593896313447795
0.1107931,0.02122048880536304,0.011032473216736895,0.015494252245991243,0.005804504913314813,0.05334416912356195,0.030441282726213808,0.0669298087674557,0.005905114379013948
0.1112586,0.021149775999269028,0.011091909521560065,0.0155204332018507,0.005806128766970528,0.053066931136189856,0.03064636547782724,0.06748932523815016,0.0058717050573775
0.1117241,0.02107949267527047,0.011151112539965065,0.015546435345290993,0.005807885564932895,0.0527913775744475,0.03085077451020025,0.06804810177599417,0.005838737583064086
0.1121897,0.02100965985108457,0.011210074561452062,0.015572255959170368,0.005809777390061039,0.05251756964365693,0.031054484535177493,0.06860606306867088,0.005806214210298635
0.1126552,0.02094029836503332,0.011268787880242988,0.015597892250968354,0.0058118062083396425,0.052245567220846285,0.031257470372161984,0.06916313364278971,0.005774137035825086
0.1131207,0.02087142887348125,0.011327244797701903,0.01562334135431292,0.00581397386762839,0.05197542884817064,0.03145970695585457,0.06971923788344164,0.005742508000720934
0.1135862,0.020803071848270828,0.011385437624766237,0.015648600330543758,0.005816282096454747,0.05170721172682381,0.031661169343976,0.07027430005384923,0.005711328892235338
0.1140517,0.02073524757415537,0.011443358684387936,0.015673666170311157,0.00581873250285088,0.05144097171143985,0.031861832724966496,0.07082824431510373,0.005680601345649381
0.1145172,0.020667976146229422,0.01150100031398347,0.015698535795209898,0.005821326573235516,0.05117676330498295,0.03206167242565768,0.0713809947459818,0.005650326846156979
0.1149828,0.020601277467356485,0.011558354867891562,0.015723206059447523,0.005824065671341491,0.05091463965412435,0.03226066391891181,0.07193247536283404,0.005620506730764954
0.1154483,0.020535171245594192,0.011615414719837432,0.015747673751546228,0.0058269510371896935,0.05065465254510472,0.03245878283122306,0.07248261013953801,0.005591142190210766
0.1159138,0.020469676991617034,0.011672172265402294,0.015771935596077515,0.005829983786110119,0.0503968524000809,0.03265600495027612,0.07303132302750741,0.005562234270896418
0.1163793,0.02040481401613677,0.01172861992449677,0.015795988255428738,0.0058331649078106835,0.050141288273955864,0.03285230623245698,0.0735785379757497,0.005533783876837096
0.1168448,0.020340601427320724,0.011784750143836864,0.01581982833160057,0.005836495265494445,0.049888007851691056,0.033047662810311386,0.07412417895096428,0.005505791771623148
0.1173103,0.02027705812820817,0.011840555399421124,0.01584345236803448,0.005839975595025879,0.04963705744610043,0.033242050999946184,0.07466816995767322,0.005478258580394115
0.1177759,0.02021420281412481,0.011896028199007577,0.015866856851469303,0.0058436065041468106,0.04938848199612564,0.033435447308369184,0.07521043505837682,0.005451184791823583
0.1182414,0.0201520539700954,0.011951161084589058,0.015890038213826223,0.00584738847174259,0.0491423250655919,0.033627828440763265,0.07575089839372633,0.005424570760113733
0.1187069,0.020090629868254356,0.012005946634865492,0.015912992834121297,0.005851321847159091,0.04889862884244416,0.033819171307690285,0.07628948420270647,0.005398416706998598
0.1191724,0.02002994856525409,0.012060377467711755,0.015935717040404886,0.00585540684957108,0.04865743413846294,0.03400945303222054,0.07682611684281981,0.005372722723755089
0.1196379,0.01997002789967076,0.012114446242639632,0.01595820711172726,0.005859643567402494,0.04841878038945899,0.03419865095698332,0.07736072081026509,0.005347488773221014
0.1201034,0.019910885489407202,0.012168145663252387,0.01598045928012958,0.00586403195779912,0.04818270565594585,0.03438674265113395,0.07789322076010109,0.005322714691819392
0.120569,0.019852538729092758,0.012221468479690486,0.016002469732659428,0.005868571846154168,0.04794924662428923,0.03457370591723255,0.07842354152638807,0.005298400191588474
0.1210345,0.019795004787480027,0.012274407491066855,0.016024234613409988,0.005873262925687193,0.04771843860833174,0.034759518798030006,0.0789516081422982,0.0052745448622169904
0.1215,0.019738300604838627,0.012326955547890213,0.016045750025582037,0.00587810475707677,0.04749031555149156,0.03494415958315679,0.07947734586018805,0.005251148173084203
0.1219655,0.019682442890346364,0.012379105554474874,0.016067012033567887,0.00588309676814732,0.04726491002933332,0.035127606815710845,0.0800006801716263,0.005228209475304435
0.122431,0.019627448119478353,0.012430850471335473,0.016088016665056413,0.005888238253610422,0.04704225325260947,0.035309839298741194,0.08052153682737136,0.005205728003775784
0.1228966,0.019573332531394778,0.012482183317565086,0.01610875991315841,0.005893528374860896,0.04682237507077019,0.03549083610162416,0.08103984185729535,0.0051837028792327865
0.1233621,0.019520112126327916,0.012533097173195177,0.01612923773855136,0.005898966159827946,0.046605303975939934,0.03567057656632926,0.08155552159025135,0.005162133110302819
0.1238276,0.019467802662969196,0.012583585181535838,0.01614944607164276,0.0059045505028815955,0.04639106710735829,0.03584904031357204,0.08206850267388176,0.005141017595566019
0.1242931,0.019416419655857078,0.012633640551494832,0.016169380814751083,0.005910280164794664,0.04617969025628309,0.0360262072488511,0.08257871209436562,0.005120355125618494
0.1247586,0.019365978372766844,0.01268325655987387,0.01618903784430341,0.00591615377276048,0.04597119787135324,0.036202057568366725,0.08308607719610253,0.005100144385138577
0.1252241,0.019316493832103578,0.012732426553640585,0.01620841301304881,0.005922169820466537,0.0457656130644085,0.036376571764818975,0.08359052570133027,0.005080383954955853
0.1256897,0.019267980800299962,0.012781143952174577,0.01622750215228653,0.0059283266682242965,0.0455629576167631,0.036549730633082755,0.08409198572967333,0.005061072314122642
0.1261552,0.019220453789220864,0.012829402249485833,0.016246301074107867,0.005934622543155303,0.045363251985929866,0.03672151527575798,0.08459038581761878,0.005042207841987629
0.1266207,0.01917392705357685,0.012877195016403728,0.016264805573650825,0.005941055539433807,0.04516651531279112,0.036891907108592734,0.08508565493791592,0.005023788820271278
0.1270862,0.019128414588348998,0.012924515902734765,0.016283011431366397,0.005947623618586008,0.044972765429212316,0.037060887865777575,0.08557772251889559,0.005005813435142653
0.1275517,0.019083930126227288,0.012971358639387122,0.01630091441529545,0.005954324609846071,0.0447820188660941,0.037228439605109055,0.08606651846370486,0.004988279779297245
0.1280172,0.019040487135065013,0.013017717040460109,0.016318510283355084,0.005961156210568994,0.04459429086185796,0.03739454471302037,0.08655197316945272,0.004971185854035391
0.1284828,0.01899809881535146,0.013063585005296599,0.016335794785633313,0.005968115986700372,0.044409595371360605,0.03755918590947696,0.08703401754626174,0.004954529571340843
0.1289483,0.018956778097705067,0.013108956520496585,0.016352763666690914,0.005975201373303082,0.044227945075231534,0.0377223462527347,0.0875125830362207,0.004938308755959025
0.1294138,0.01891653764038908,0.013153825661890068,0.016369412667869204,0.005982409675140877,0.04404935138962834,0.037884009143957814,0.087987601632233,0.004922521147474509
0.1298793,0.018877389826851814,0.013198186596467631,0.016385737529602568,0.005989738067318809,0.04387382447640347,0.03804415833169421,0.08845900589675541,0.004907164402387167
0.1303448,0.018839346763293362,0.013242033584267078,0.016401733993734416,0.005997183595980377,0.04370137325367634,0.038202777916205424,0.08892672898042213,0.004892236096186477
0.1308103,0.018802420276260688,0.013285360980214699,0.016417397805835354,0.006004743179061238,0.04353200540680393,0.038359852353648784,0.08939070464054943,0.004877733725423402
0.1312759,0.018766621910272948,0.013328163235919933,0.016432724717522194,0.006012413607099297,0.04336572739974309,0.03851536646010949,0.08985086725951646,0.004863654709779305
0.1317414,0.018731962925478796,0.013370434901422177,0.016447710488776496,0.006020191544100916,0.043202544486797584,0.03866930541548025,0.09030715186301777,0.004849996394131302
0.1322069,0.018698454295347364,0.013412170626888669,0.016462350890261275,0.006028073528462979,0.04304246072474272,0.038821654767186214,0.09075949413818322,0.004836756050613519
0.1326724,0.01866610670439451,0.01345336516426237,0.01647664170563447,0.006036055973950509,0.04288547898532042,0.03897240043375274,0.09120783045156067,0.004823930880673702
0.1331379,0.018634930545946067,0.013494013368858799,0.016490578733857796,0.006044135170729451,0.04273160096809758,0.039121528708213574,0.09165209786695644,0.0048115180171246445
0.1336034,0.01860493591993981,0.013534110200910717,0.01650415779149953,0.00605230728645425,0.04258082721368065,0.03926902626135741,0.09209223416312878,0.004799514526189888
0.134069,0.01857613263076801,0.013573650727059506,0.016517374715029842,0.006060568367409752,0.042433157117279,0.03941488014481092,0.09252817785132907,0.004787917409543155
0.1345345,0.018548530185162525,0.013612630121792067,0.01653022536310711,0.006068914339706974,0.04228858894260978,0.039559077793956975,0.0929598681926852,0.004776723606340922
0.135,0.018522137790124456,0.013651043668821975,0.016542705618853765,0.006077341010532214,0.04214711983613686,0.03970160703068753,0.09338724521542158,0.004765929995247555
0.1354655,0.018496964350900327,0.013688886762413725,0.016554811392120086,0.006085844069448955,0.04200874584163646,0.03984245606599048,0.09381024973190968,0.004755533396452385
0.135931,0.01847301846900672,0.013726154908648945,0.01656653862173434,0.006094419089751998,0.04187346191508215,0.039981613502370346,0.09422882335554329,0.004745530573678138
0.1363966,0.01845030844030516,0.013762843726633719,0.016577883277737685,0.006103061529873209,0.041741261939842074,0.040119068336102334,0.09464290851743211,0.00473591823618011
0.1368621,0.018428842253128956,0.013798948949646336,0.01658884136360225,0.006111766734838297,0.04161213874218148,0.04025480995931941,0.09505244848290725,0.00472669304073548
0.1373276,0.018408627586463524,0.01383446642622518,0.016599408918430703,0.006120529937773969,0.041486084107063906,0.04038882816193167,0.09545738736783163,0.004717851593622187
0.1377931,0.018389671808181598,0.013869392121196792,0.016609582019135698,0.006129346261464824,0.04136308879424454,0.04052111313337742,0.09585767015470764,0.004709390452586736
0.1382586,0.01837198197333463,0.013903722116644457,0.01661935678259751,0.006138210719959338,0.04124314255464942,0.04065165546420542,0.09625324270857467,0.004701306128800305
0.1387241,0.018355564822501513,0.01393745261281808,0.016628729367798238,0.006147118220224245,0.041126234147034056,0.040780446147487937,0.09664405179268845,0.004693595088802531
0.1391897,0.01834042678019574,0.013970579928986296,0.016637695977931077,0.006156063563846607,0.04101235135491492,0.040907476580064384,0.09703004508397495,0.004686253756432338
0.1396552,0.018326573953332124,0.014003100504231987,0.01664625286248334,0.006165041448782856,0.040901481003767226,0.04103273856361603,0.09741117118825218,0.004679278514745198
0.1401207,0.01831401212975413,0.014035010898192484,0.016654396319292112,0.006174046471154055,0.04079360897848199,0.04115622430557263,0.09778737965521375,0.0046726657079162485
0.1405862,0.018302746776823007,0.014066307791745825,0.016662122696571625,0.006183073127086588,0.040688720241075386,0.04127792641985218,0.09815862099316787,0.004666411643128719
0.1410517,0.018292783040069954,0.014096987987644402,0.0166694283949114,0.006192115814597457,0.0405867988486429,0.0413978379274354,0.09852484668352611,0.004660512592447153
0.1415172,0.018284125741912457,0.014127048411097309,0.01667630986924441,0.006201168835523372,0.040487827971550816,0.0415159522567771,0.09888600919503579,0.004654964794674932
0.1419828,0.018276779380435947,0.014156486110302657,0.016682763630784424,0.006210226397492782,0.040391789911857066,0.04163226324405704,0.09924206199775043,0.004649764457195671
0.1424483,0.018270748128241854,0.014185298256931034,0.016688786248931633,0.00621928261594004,0.04029866612195335,0.04174676513327343,0.09959295957673309,0.004644907757798073
0.1429138,0.01826603583136302,0.01421348214656111,0.01669437435314585,0.006228331516160895,0.04020843722342009,0.041859452576182815,0.09993865744548837,0.004640390846483885
0.1433793,0.01826264600824731,0.014241035199068403,0.016699524634786366,0.006237367035408529,0.04012108302608576,0.04197032063209012,0.10027911215912017,0.004636209847258644
0.1438448,0.018260581848810374,0.014267954958968097,0.016704233848917737,0.006246383025029377,0.040036582547281804,0.04207936476749293,0.10061428132721292,0.004632360859904927
0.1443103,0.01825984621355828,0.014294239095712763,0.016708498816080847,0.006255373252638004,0.03995491403128429,0.04218658085558366,0.10094412362643393,0.0046288399617378405
0.1447759,0.01826044163278087,0.014319885403945826,0.016712316424028702,0.006264331404330281,0.03987605496893354,0.04229196517561344,0.10126859881285441,0.004625643209342509
0.1452414,0.01826237030581659,0.014344891803711584,0.016715683629426548,0.00627325108693414,0.039799982117422826,0.04239551441212123,0.10158766773398632,0.004622766640293323
0.1457069,0.018265634100389436,0.014369256340622619,0.01671859745951607,0.006282125830297163,0.039726671520247406,0.04249722565403162,0.10190129234053097,0.004620206274854717
0.1461724,0.018270234552018746,0.014392977185985345,0.016721055013743602,0.0062909490896102425,0.039656098527305096,0.04259709639362506,0.10220943569783557,0.004617958117663242
0.1466379,0.018276172863502464,0.014416052636884481,0.01672305346535241,0.006299714247766515,0.039588237815139565,0.04269512452538413,0.10251206199705289,0.004616018159390723
0.1471034,0.018283449904474475,0.014438481116227123,0.016724590062939224,0.006308414617754728,0.039523063407317385,0.04279130834471966,0.10280913656599883,0.004614382378388266
0.147569,0.018292066211036597,0.014460261172747022,0.01672566213197526,0.006317043445086159,0.03946054869492978,0.04288564654658055,0.10310062587970258,0.004613046742310892
0.1480345,0.018302021985465704,0.014481391480969672,0.016726267076291938,0.006325593910254195,0.03940066645720976,0.042978138223951384,0.10338649757064373,0.0046120072097225635
0.1485,0.01831331709599632,0.014501870841138588,0.016726402379531574,0.0063340591312255525,0.039343388882255394,0.04306878286624181,0.10366672043867067,0.004611259731681371
0.1489655,0.018325951076679062,0.014521698179103138,0.016726065606563326,0.006342432165962173,0.03928868758784959,0.04315758035757153,0.10394126446059376,0.004610800253304664
0.149431,0.018339923127315062,0.014540872546168161,0.016725254404864786,0.006350706014972729,0.03923653364236669,0.043244530974954745,0.10421010079944748,0.004610624715313912
0.1498966,0.018355232113466624,0.01455939311890548,0.016723966505869704,0.00635887362389272,0.03918689758575619,0.04332963538638765,0.10447320181341489,0.0046107290555591094
0.1503621,0.01837187656654417,0.01457725919892735,0.016722199726282225,0.006366927886092073,0.03913974945059357,0.043412894648842515,0.10473054106440932,0.004611109210522532
0.1508276,0.018389854683969642,0.014594470212621733,0.01671995196935816,0.006374861645309193,0.03909505878318839,0.043494310206171595,0.10498209332630928,0.004611761116801704
0.1512931,0.018409164329416392,0.014611025710849254,0.016717221226153663,0.00638266769831041,0.039052794664739404,0.043573883886924084,0.10522783459284378,0.004612680712571415
0.1517586,0.018429803033125768,0.01462692536860155,0.01671400557674165,0.0063903387975737785,0.039012925732526384,0.04365161790207897,0.10546774208512608,0.0046138639390246585
0.1522241,0.018451767992300517,0.014642168984620637,0.016710303191396336,0.006397867653996223,0.038975420201128375,0.043727514842696415,0.10570179425883476,0.00461530674179239
0.1526897,0.01847505607157525,0.014656756480978946,0.01670611233174611,0.006405246939623064,0.0389402458836575,0.04380157767749002,0.10592997081104188,0.004617005072341995
0.1531552,0.018499663803564204,0.014670687902619512,0.01670143135189507,0.0064124692903990066,0.03890737021299748,0.043873809750322075,0.1061522526866879,0.004618954889354359
0.1536207,0.01852558738948662,0.014683963416855893,0.016696258699513446,0.006419527308939751,0.03887676026303557,0.04394421477762348,0.10636862208470439,0.004621152160079423
0.1540862,0.01855282269987002,0.014696583312831298,0.016690592916897135,0.006426413567323477,0.03884838276987634,0.04401279684573998,0.106579062463786,0.004623592861670093
0.1545517,0.018581365275331833,0.014708548000936527,0.016684432641996576,0.0064331206099015196,0.038822204153025446,0.04407956040820605,0.10678355854781328,0.004626272982494396
0.1550172,0.018611210327439735,0.01471985801218637,0.0166777766094151,0.006439640956127606,0.03879819053653144,0.04414451028294756,0.10698209633092844,0.0046291885234257665
0.1554828,0.018642352739651143,0.01473051399755419,0.016670623651376962,0.006445967103405086,0.0387763077700733,0.04420765164941426,0.10717466308226621,0.004632335499111416
0.1559483,0.018674787068332324,0.014740516727264471,0.01666297269866517,0.006452091529951624,0.038756521449981166,0.04426899004564286,0.10736124735034326,0.004635709939218722
0.1564138,0.018708507543857455,0.014749867090043337,0.016654822781529192,0.0064580066976808745,0.038738796940177726,0.0443285313652515,0.10754183896711,0.00463930788965963
0.1568793,0.018743508071787894,0.01475856609232699,0.01664617303056262,0.0064637050551006525,0.038723099393027406,0.04438628185436618,0.10771642905167048,0.0046431254137930325
0.1573448,0.01877978223413185,0.014766614857428324,0.016637022677550795,0.0064691790402271404,0.038709393770080404,0.04444224810847968,0.10788501001367595,0.004647158593605127
0.1578103,0.018817323290684577,0.014774014624662072,0.016627371056288427,0.0064744210835146684,0.03869764486269849,0.04449643706924317,0.1080475755563982,0.0046514035308677605
0.1582759,0.01885612418044915,0.014780766748429024,0.016617217603367134,0.0064794236108006165,0.03868781731254913,0.044548856021190214,0.10820412067948824,0.004655856348274773
0.1587414,0.01889617752313775,0.014786872697260041,0.01660656185893295,0.006484179046264935,0.038679875631954234,0.04459951258839296,0.10835464168142582,0.004660513190556369
0.1592069,0.018937475620753368,0.014792334052820709,0.016595403467413738,0.006488679815403755,0.03867378422407969,0.04464841473104983,0.1084991361616637,0.00466537022557156
0.1596724,0.018980010459251788,0.014797152508877628,0.016583742178216464,0.006492918348016544,0.03866950740295126,0.044695570742003865,0.10863760302247166,0.004670423645378697
0.1601379,0.019023773710283697,0.01480132987022739,0.01657157784639435,0.0064968870812062,0.03866700941328248,0.044740989243191046,0.10877004247048379,0.004675669667284131
0.1606034,0.019068756733016817,0.014804868051589341,0.016558910433283808,0.006500578462391476,0.038666254450099524,0.04478467918201743,0.10889645601795274,0.004681104534869006
0.161069,0.019114950576037956,0.014807769076463284,0.01654574000711112,0.006503984952331124,0.038667206678148214,0.044826649827663996,0.10901684648371453,0.004686724518994178
0.1615345,0.019162345979334923,0.014810035075953276,0.016532066743568857,0.006507099028159177,0.03866983025106806,0.04486691076731779,0.1091312179938663,0.004692525918783259
0.162,0.01921093337635822,0.014811668287558682,0.01651789092636194,0.006509913186430771,0.038674089330318226,0.0449054719023276,0.10923957598215915,0.004698505062583758
0.1624655,0.01926070289616244,0.014812671053933767,0.016503212947723337,0.006512419946177942,0.03867994810384054,0.044942343444282655,0.10934192719010759,0.004704658308906282
0.162931,0.01931164436562738,0.014813045821617165,0.016488033308899315,0.006514611851974865,0.03868737080444461,0.04497753591101275,0.1094382796668167,0.004710982047341785
0.1633966,0.019363747311758932,0.014812795139732689,0.016472352620604275,0.006516481477012011,0.03869632172790091,0.04501106012250873,0.10952864276852822,0.004717472699456832
0.1638621,0.019417000964070227,0.014811921658663003,0.01645617160344523,0.006518021426178683,0.03870676525072818,0.04504292719676239,0.10961302715788662,0.004724126719666889
0.1643276,0.01947139425704346,0.014810428128697766,0.01643949108831615,0.0065192243391534,0.03871866584766224,0.04507314854552486,0.10969144480292625,0.004730940596087638
0.1647931,0.019526915832673138,0.014808317398657773,0.01642231201676252,0.006520082893501624,0.03873198810879449,0.045101735869982645,0.1097639089757813,0.004737910851364315
0.1652586,0.019583554043091433,0.014805592414496593,0.01640463544131644,0.006520589807780287,0.03874669675636888,0.04512870115635039,0.10983043425111937,0.004745034043479051
0.1657241,0.019641296953276308,0.014802256217881208,0.016386462525802562,0.006520737844648567,0.03876275666122712,0.04515405667137941,0.10989103650429971,0.004752306766536193
0.1661897,0.019700132343843088,0.014798311944753086,0.01636779454561517,0.006520519813984318,0.038780132858892556,0.045177814957780754,0.10994573290925674,0.004759725651525587
0.1666552,0.019760047713920113,0.014793762823871027,0.016348632887966494,0.0065199285760055795,0.03879879056528431,0.045199988829561596,0.1099945419361092,0.004767287367063839
0.1671207,0.01982103028410904,0.014788612175337104,0.016328979052106417,0.006518957044396533,0.03881869519205453,0.04522059136727347,0.11003748334849478,0.004774988620113589
0.1675862,0.019883066999530415,0.014782863409106931,0.01630883464951347,0.00651759818943725,0.038839812361543415,0.045239635913170824,0.11007457820062995,0.004782826156680891
0.1680517,0.019946144532955193,0.014776520023485354,0.016288201404057148,0.006515845041136595,0.03886210792134768,0.04525713606627759,0.11010584883409348,0.004790796762490799
0.1685172,0.020010249288022856,0.014769585603608635,0.016267081152131435,0.0065136906923676545,0.038885547958499245,0.045273105677359766,0.11013131887433149,0.004798897263641323
0.1689828,0.020075367402546892,0.0147620638199141,0.016245475842759427,0.006511128302005024,0.0389100988132514,0.04528755884380153,0.11015101322688116,0.004807124527235887
0.1694483,0.02014148475190848,0.014753958426598112,0.016223387537668957,0.006508151098063367,0.038935727092470264,0.045300509904382294,0.11016495807330912,0.004815475461994436
0.1699138,0.020208586952539204,0.014745273260063124,0.016200818411339114,0.0065047523808366365,0.03896239968262956,0.04531197343395177,0.1101731808668598,0.004823947018843342
0.1703793,0.020276659365493558,0.014736012237354504,0.016177770751017635,0.006500925526037387,0.038990083762407396,0.045321964238000556,0.11017571032780842,0.004832536191484246
0.1708448,0.02034568710011197,0.014726179354587676,0.016154246956709112,0.006496663987935653,0.03901874681488376,0.045330497347123924,0.11017257643851207,0.004841240016941953
0.1713103,0.020415655017775005,0.014715778685366077,0.016130249541133956,0.006491961302496863,0.03904835663933772,0.045337588011377446,0.11016381043815213,0.004850055576091492
0.1717759,0.020486547735749334,0.014704814379190292,0.016105781129657954,0.0064868110905182625,0.03907888136264376,0.045343251694524106,0.11014944481716012,0.0048589799941644056
0.1722414,0.020558349631125867,0.014693290659858678,0.01608084446019227,0.006481207060763326,0.03911028945026673,0.04534750406817364,0.11012951331131879,0.004868010441234351
0.1727069,0.020631044844850597,0.014681211823859697,0.01605544238306376,0.006475143013093587,0.03914254971685556,0.04535036100581526,0.11010405089552958,0.0048771441326820675
0.1731724,0.020704617285848416,0.014668582238756103,0.016029577860855432,0.006468612841597305,0.03917563133643626,0.04535183857674551,0.11007309377723673,0.00488637832963976
0.1736379,0.020779050635240135,0.014655406341561036,0.016003253968216908,0.0064616105377143206,0.03920950385220579,0.045351953039892964,0.11003667938949832,0.004895710339414935
0.1741034,0.020854328350652828,0.014641688637106012,0.015976473891644728,0.006454130193356416,0.03924413718592866,0.0453507208375418,0.10999484638369407,0.0049051375158937335
0.174569,0.02093043367062349,0.014627433696400738,0.01594924092923238,0.006446166004022456,0.03927950164693876,0.04534815858895666,0.10994763462185995,0.00491465725992382
0.1750345,0.02100734961909588,0.014612646154984543,0.015921558490389866,0.006437712271907554,0.039315567940749196,0.045344283083911016,0.10989508516863945,0.004924267019676836
0.1755,0.021085059010010353,0.01459733071126921,0.015893430095532634,0.0064287634090054715,0.03935230717727306,0.04533911127612127,0.1098372402828426,0.004933964290990483
0.1759655,0.021163544451986347,0.014581492124872883,0.015864859375739553,0.006419313940203458,0.0393896908786585,0.04533266027658887,0.10977414340860465,0.004943746617690235
0.176431,0.021242788353097036,0.014565135214944644,0.0158358500723797,0.0064093585063687295,0.03942769098674148,0.04532494734685243,0.10970583916613846,0.004953611591890662
0.1768966,0.021322772925735593,0.014548264858479413,0.01580640603670762,0.00639889186742582,0.03946627987011967,0.04531598989215216,0.10963237334207593,0.004963556854276346
0.1773621,0.02140348019157232,0.014530885988622741,0.01577653122942663,0.006387908905424064,0.03950543033085059,0.045305805454508526,0.10955379287939605,0.00497358009436229
0.1778276,0.021484891986601903,0.014513003592965163,0.01574622972021968,0.006376404627594515,0.0395451156107773,0.04529441170571793,0.10947014586693986,0.004983679050733752
0.1782931,0.02156698996627993,0.01449462271182587,0.01571550568724728,0.0063643741693956415,0.03958530939748446,0.04528182644026812,0.10938148152851286,0.0049938515112653735
0.1787586,0.02164975561074768,0.014475748436525477,0.015684363416611852,0.006351812797547221,0.03962598582988772,0.04526806756817744,0.10928785021157789,0.005004095313319497
0.1792241,0.021733170230144185,0.014456385907647817,0.015652807301787842,0.006338715913051847,0.039667119503459074,0.045253153107762234,0.10918930337554172,0.005014408343923545
0.1796897,0.021817214970004235,0.014436540313290605,0.015620841843016995,0.006325079054203525,0.03970868547509088,0.04523710117833818,0.10908589357964017,0.00502478853992635
0.1801552,0.021901870816741015,0.01441621688730493,0.015588471646668108,0.006310897899582828,0.03975065926760058,0.04521992999286196,0.1089776744704287,0.0050352338881333135
0.1806207,0.021987118603211845,0.014395420907523413,0.015555701424560578,0.006296168271038091,0.03979301687387831,0.04520165785052072,0.10886470076888874,0.005045742425420238
0.1810862,0.022072939014365276,0.014374157693976866,0.015522535993251024,0.006280886136652147,0.03983573476067887,0.04518230312927743,0.10874702825716255,0.00505631223882566
0.1815517,0.022159312592967766,0.014352432607099291,0.01548898027328224,0.006265047613694038,0.039878789872059624,0.04516188427838059,0.108624713764934,0.00506694146562148
0.1820172,0.022246219745407827,0.014330251045921037,0.015455039288393785,0.006248648971555122,0.03992215963246532,0.04514041981084699,0.10849781515547406,0.005077628293361641
0.1824828,0.02233364074757552,0.014307618446250017,0.015420718164693434,0.00623168663466903,0.03996582194946079,0.04511792829592589,0.10836639131137253,0.005088370959908626
0.1829483,0.022421555750814868,0.014284540278841035,0.015386022129788755,0.006214157185414839,0.040009755216112365,0.045094428351553036,0.10823050211997802,0.00509916775343751
0.1834138,0.02250994478794659,0.01426102204755349,0.01535095651187808,0.0061960573670028695,0.04005393831301878,0.045069938636802594,0.1080902084585675,0.005110017012417375
0.1838793,0.022598787779358448,0.014237069287497912,0.015315526738800088,0.006177384086342468,0.040098350609992464,0.04504447784434523,0.10794557217926659,0.005120917125569872
0.1843448,0.022688064539160238,0.014212687563172009,0.015279738337041224,0.006158134416891094,0.040142971967391826,0.04501806469292012,0.1077966560937409,0.005131866531804821
0.1848103,0.022777754781400355,0.014187882466587094,0.015243596930700178,0.006138305601484,0.04018778273710531,0.04499071791982866,0.10764352395767744,0.005142863720132735
0.1852759,0.022867838126340724,0.014162659615385933,0.015207108240408647,0.006117895055143761,0.04023276376318787,0.04496245627345722,0.10748624045507504,0.00515390722955425
0.1857414,0.02295829410678686,0.014137024650953215,0.015170278082207568,0.006096900367868821,0.04027789638215057,0.04493329850583644,0.10732487118236082,0.005164995648926442
0.1862069,0.023049102174469763,0.014110983236519901,0.015133112366378012,0.006075319307400233,0.04032316242290431,0.04490326336524406,0.10715948263234962,0.005176127616806016
0.1866724,0.02314024170647649,0.014084541055262873,0.015095617096225896,0.0060531498219657184,0.040368544206358735,0.04487236958885836,0.10699014217806199,0.005187301821269364
0.1871379,0.023231692011726222,0.014057703808401429,0.015057798366819617,0.006030390043000159,0.040414024544677164,0.044840635895469404,0.10681691805641572,0.005198516999709467
0.1876034,0.023323432337488806,0.01403047721329227,0.015019662363679675,0.006007038287841596,0.040459586740188694,0.04480808097825508,0.10663987935180497,0.005209771938609636
0.188069,0.023415441875942737,0.014002867001524649,0.014981215361419315,0.005983093062401844,0.040505214583958296,0.0447747234976289,0.1064590959795806,0.005221065473294076
0.1885345,0.02350769977076967,0.01397487891701737,0.014942463722335307,0.005958553063810848,0.040550892354016155,0.04474058207416643,0.10627463866944405,0.005232396487655282
0.189,0.023600185123782532,0.013946518714119366,0.014903413894947874,0.00593341718303388,0.04059660481324783,0.04470567528161686,0.10608657894876665,0.005243763913858261
0.1894655,0.02369287700158472,0.013917792155715376,0.01486407241248892,0.005907684507460751,0.0406423372069475,0.04467002164000599,0.10589498912584588,0.005255166732021591
0.189931,0.023785754442258358,0.013888705011338197,0.01482444589133784,0.005881354323466181,0.04068807526003694,0.04463363960883648,0.10569994227310915,0.005266603969875307
0.1903966,0.02387879646207976,0.013859263055288968,0.014784541029404383,0.005854426118940475,0.04073380517395393,0.04459654758039106,0.10550151221027511,0.005278074702395672
0.1908621,0.023971982062260977,0.013829472064766802,0.014744364604458294,0.005826899585789679,0.0407795136232138,0.0445587638731441,0.10529977348748222,0.0052895780514169355
0.1913276,0.02406529023571651,0.013799337818009053,0.014703923472405433,0.005798774622404375,0.04082518775164835,0.044520306725286604,0.10509480136839298,0.005301113185220226
0.1917931,0.024158699973854336,0.013768866092443412,0.014663224565510216,0.005770051336096275,0.04087081516832659,0.044481194288369434,0.10488667181328226,0.005312679318099809
0.1922586,0.024252190273390605,0.013738062662853025,0.014622274890564141,0.005740730045501769,0.040916383943161605,0.04444144462106919,0.10467546146211792,0.005324275709906993
0.1927241,0.024345740143187078,0.01370693329955575,0.014581081527000193,0.005710811282951575,0.04096188260220787,0.044401075683081125,0.10446124761764157,0.005335901665572007
0.1931897,0.024439328611110422,0.013675483766598658,0.014539651624952894,0.005680295796805638,0.041007300122653634,0.04436010532914336,0.10424410822845699,0.0053475565346042305
0.1936552,0.024532934730912257,0.01364371981996888,0.014497992403263838,0.005649184553752445,0.041052625927513076,0.0443185513031964,0.10402412187213404,0.005359239710571161
0.1941207,0.024626537589128892,0.013611647205821734,0.014456111147432522,0.005617478741071843,0.04109784988002367,0.04427643123268167,0.10380136773833488,0.00537095063055652
0.1945862,0.024720116311999565,0.01357927165872713,0.014414015207512358,0.005585179768860499,0.04114296227775456,0.0442337626229825,0.10357592561196878,0.005382688774597915
0.1950517,0.024813650072402084,0.013546598899935097,0.014371711995951776,0.005552289272219062,0.041187953846432604,0.04419056285201082,0.10334787585638158,0.005394453665104463
0.1955172,0.02490711809680456,0.013513634635661312,0.014329208985380388,0.005518809113400093,0.04123281573349346,0.044146849164942256,0.10311729939658486,0.0054062448662547365
0.1959828,0.02500049967223198,0.013480384555393484,0.014286513706340345,0.005484741383915786,0.04127753950136553,0.04410263866910212,0.10288427770252907,0.0054180619833753985
0.1964483,0.02509377415324613,0.01344685433021954,0.01424363374496321,0.0054500884066044815,0.041322117120494994,0.04405794832900423,0.10264889277242482,0.00542990466230086
0.1969138,0.025186920968937435,0.013413049611178568,0.014200576740592755,0.005414852737654948,0.04136654096212032,0.044012794961544546,0.10241122711611493,0.0054417725887142875
0.1973793,0.025279919629927157,0.01337897602763549,0.014157350383354226,0.005379037168587425,0.04141080379080481,0.04396719523135096,0.10217136373850003,0.005453665487470282
0.1978448,0.025372749735378407,0.013344639185680436,0.014113962411670594,0.005342644728190404,0.04145489875673603,0.04392116564629063,0.1019293861230192,0.005465583121899567
0.1983103,0.02546539098001422,0.01331004466655368,0.014070420609726396,0.00530567868441212,0.04149881938780101,0.043874722553135626,0.10168537821518701,0.005477525293096057
0.1987759,0.02555782316114097,0.013275198025097081,0.014026732804879666,0.0052681425462057715,0.04154255958144588,0.04382788213338765,0.10143942440618658,0.0054894918391866915
0.1992414,0.02565002618567528,0.0132401047882328,0.013982906865022512,0.005230040065327503,0.04158611359632918,0.04378066039926252,0.10119160951651845,0.005501482634584513
0.1997069,0.025741980077172336,0.013204770453470042,0.013938950695890845,0.005191375238086244,0.041629476043778195,0.043733073189834985,0.10094201877970363,0.005513497589225488
0.2001724,0.02583366498285346,0.013169200487440467,0.013894872238323811,0.005152152307044515,0.041672641879057434,0.043685136167344776,0.10069073782603853,0.0055255366477896285
0.2006379,0.02592506118063069,0.013133400324462864,0.013850679465473458,0.005112375762669368,0.041715606392458957,0.043636864813664855,0.1004378526663993,0.005537599788907004
0.2011034,0.026016149086125834,0.013097375365137597,0.01380638037996518,0.005072050344932631,0.04175836520022406,0.04358827442693303,0.10018344967609182,0.005549687024349272
0.201569,0.02610690925968164,0.013061130974971287,0.01376198301100949,0.005031181044859662,0.04180091423530609,0.04353938011834793,0.09992761557874381,0.005561798398207344
0.2020345,0.026197322413362284,0.013024672483032287,0.01371749541146583,0.004989773106025861,0.04184324973798436,0.043490196809130605,0.099670437430235,0.005573933986055802
0.2025,0.02628736941794052,0.012988005180637472,0.013672925654859317,0.004947832026000167,0.041885368246339164,0.043440739227652715,0.09941200260266052,0.005586093894104648
0.2029655,0.026377031309868522,0.012951134320071004,0.013628281832351678,0.004905363557734793,0.041927266586598295,0.04339102190673238,0.09915239876832294,0.005598278258338957
0.203431,0.02646628929822947,0.012914065113335798,0.013583572049667682,0.004862373710900429,0.041968941863365666,0.04334105918109861,0.09889171388374729,0.005610487243646966
0.2038966,0.02655512477166686,0.012876802730938388,0.013538804423978628,0.004818868753166175,0.04201039144974271,0.04329086518502504,0.09863003617371348,0.005622721042937129
0.2043621,0.02664351930528821,0.012839352300708037,0.013493987080744488,0.004774855211423378,0.04205161297735353,0.04324045385013306,0.09836745411529915,0.005634979876244613
0.2048276,0.026731454667539904,0.012801718906650899,0.013449128150516342,0.004730339872952576,0.04209260432628448,0.043189838903364634,0.09810405642192642,0.00564726398982772
0.2052931,0.026818912827049728,0.012763907587840188,0.013404235765700847,0.004685329786532695,0.04213336361494879,0.043139033865124556,0.09783993202740464,0.0056595736552547335
0.2057586,0.026905875959433518,0.012725923337343292,0.013359318057288511,0.004639832263491624,0.042173889189886495,0.0430880520475916,0.09757517006996146,0.005671909168481625
0.2062241,0.026992326454062344,0.012687771101186927,0.013314383151547576,0.0045938548786972665,0.042214179615509766,0.043036906553197786,0.09730985987625378,0.005684270848921097
0.2066897,0.02707824692078648,0.012649455777361419,0.013269439166685326,0.004547405471488145,0.04225423366380368,0.042985610273274834,0.0970440909453497,0.005696659038503421
0.2071552,0.02716362019661245,0.012610982214865321,0.013224494209478627,0.0045004921465426504,0.04229405030399214,0.04293417588686636,0.09677795293267334,0.005709074100729482
0.2076207,0.027248429352329274,0.012572355212791613,0.013179556371875458,0.004453123274686012,0.042333628692178556,0.04288261585970438,0.0965115356339047,0.005721516419716479
0.2080862,0.027332657699079835,0.012533579519456627,0.013134633727569192,0.004405307493634136,0.04237296816097072,0.04283094244334825,0.09624492896882798,0.005733986399236639
0.2085517,0.02741628879487336,0.012494659831572812,0.013089734328547337,0.004357053708673467,0.04241206820909875,0.04277916767448389,0.09597822296512311,0.005746484461749332
0.2090172,0.027499306451034655,0.012455600793466325,0.013044866201616455,0.004308371093276052,0.042450928491034955,0.042727303374380694,0.09571150774209537,0.005759011047426918
0.2094828,0.02758169473858579,0.012416406996340328,0.013000037344904979,0.004259269089649068,0.04248954880662392,0.0426753611485036,0.09544487349433933,0.0057715666131746115
0.2099483,0.02766343799455573,0.01237708297758486,0.012955255724345626,0.00420975740921806,0.042527929090730984,0.0426233523862772,0.09517841047533294,0.005784151631644661
0.2104138,0.0277445208282134,0.012337633220133981,0.012910529270139144,0.00415984603304321,0.04256606940291673,0.04257128826099852,0.09491220898095797,0.0057967665902450794
0.2108793,0.02782492812721956,0.012298062151870816,0.01286586587320121,0.004109545212167985,0.042603969917145046,0.042519179729894975,0.09464635933294281,0.0058094119901432
0.2113448,0.027904645063692526,0.012258374145081024,0.012821273381594374,0.004058865467899554,0.04264163091153179,0.0424670375343235,0.09438095186222459,0.005822088345264278
0.2118103,0.027983657100182795,0.012218573515955074,0.01277675959694702,0.004007817592020396,0.04267905275814087,0.04241487220010664,0.09411607689222817,0.005834796181285422
0.2122759,0.028061949995551425,0.012178664524139642,0.012732332270861327,0.003956412646930545,0.04271623591283426,0.04236269403800116,0.09385182472206187,0.005847536034625099
0.2127414,0.028139509810746997,0.012138651372338336,0.0126879991013123,0.0039046619657199786,0.04275318090518217,0.04231051314429439,0.09358828560963033,0.0058603084514284665
0.2132069,0.028216322914475945,0.01209853820596182,0.012643767729040058,0.003852577152170647,0.04278988832843953,0.04225833940152343,0.09332554975466707,0.005873113986548802
0.2136724,0.028292375988761134,0.012058329112827362,0.012599645733937705,0.0038001700806876964,0.042826358829594464,0.042206182479312265,0.09306370728168967,0.005885953202525259
0.2141379,0.028367656034383657,0.012018028122907693,0.012555640631437336,0.0037474528961594328,0.042862593099494826,0.04215405183532177,0.09280284822288205,0.005898826668557198
0.2146034,0.028442150376202954,0.011977639208128976,0.012511759868896806,0.0036944380137455897,0.04289859186305874,0.04210195671630737,0.09254306250090927,0.005911734959475314
0.215069,0.028515846668350435,0.011937166282217667,0.012468010821990033,0.0036411381185934752,0.04293435586957528,0.04204990615927911,0.092284439911671,0.005924678654709787
0.2155345,0.02858873289929193,0.011896613200595894,0.01242440079110369,0.003587566165481585,0.04296988588310134,0.04199790899275867,0.09202707010700031,0.005937658337255662
0.216,0.028660797396754416,0.011855983760324916,0.01238093699774323,0.0035337353783902754,0.043005182672961065,0.041945973838127856,0.0917710425773146,0.005950674592635707
0.2164655,0.028732028832512385,0.011815281700096134,0.012337626580951382,0.0034796592499991064,0.0430402470043538,0.0418941091110629,0.09151644663422494,0.00596372800786097
0.216931,0.02880241622702931,0.011774510700269,0.01229447659374232,0.003425351541110451,0.043075079629076626,0.041842323023048945,0.0912633713931101,0.005976819170389321
0.2173966,0.02887194895394971,0.011733674382955075,0.0122514939995549,0.003370826279998977,0.04310968127636723,0.04179062358296904,0.0910119057556605,0.00598994866708229
0.2178621,0.02894061674443732,0.011692776312147476,0.012208685668728259,0.0033160977616866006,0.043144052643872756,0.04173901859876193,0.09076213839239729,0.006003117083160463
0.2183276,0.029008409691355257,0.011651819993894778,0.01216605837500309,0.003261180547142509,0.04317819438874984,0.04168751567914314,0.09051415772517091,0.006016325001157746
0.2187931,0.029075318253284483,0.011610808876518445,0.012123618792051987,0.0032060894624078833,0.04321210711890113,0.04163612223538369,0.0902680519096434,0.006029572999874755
0.2192586,0.029141333258377377,0.01156974635087279,0.012081373490042114,0.003150839597644956,0.043245791384352986,0.041584845483141106,0.0900239088177582,0.006042861653331621
0.2197241,0.029206445908043662,0.01152863575064643,0.012039328932233516,0.003095446306110084,0.04327924766877949,0.041533692444337376,0.08978181602020092,0.006056191529720489
0.2201897,0.029270647780466265,0.011487480352704098,0.011997491471616393,0.0030399252030505366,0.043312476381177537,0.04148266994907864,0.0895418607688552,0.0060695631903580185
0.2206552,0.029333930833944852,0.011446283377467621,0.011955867347590536,0.002984292164524754,0.04334547784769775,0.04143178463761169,0.08930412997925644,0.0060829771886382646
0.2211207,0.029396287410064864,0.011405047989334859,0.011914462682690169,0.0029285633261458407,0.043378252303636115,0.0413810429623123,0.08906871021304716,0.00609643406898634
0.2215862,0.02945771023668968,0.01136377729713529,0.011873283479357332,0.0028727550817481406,0.04341079988559077,0.04133045118970093,0.08883568766043709,0.006109934365813328
0.2220517,0.029518192430773506,0.011322474354620877,0.011832335616766953,0.0028168840819767595,0.04344312062378843,0.04128001540248183,0.08860514812267169,0.006123478602472922
0.2225172,0.02957772750099226,0.011281142160990841,0.011791624847706624,0.0027609672327999677,0.0434752144345846,0.041229741501601934,0.08837717699451379,0.006137067290220283
0.2229828,0.029636309350189634,0.011239783661449005,0.011751156795514124,0.002705021693944423,0.04350708111314157,0.04117963520832696,0.08815185924674367,0.006150700927173607
0.2234483,0.029693932277635247,0.011198401747792281,0.01171093695107556,0.002649064877253188,0.043538720326288076,0.041129702066332,0.08792927940868424,0.0061643799972789055
0.2239138,0.029750590981091816,0.011156999259029002,0.011670970669887015,0.002593114444966507,0.04357013160556432,0.04107994744380443,0.08770952155075894,0.006178104969278415
0.2243793,0.029806280558687857,0.011115578982025694,0.011631263169182431,0.0025371883079253216,0.043601314340455576,0.04103037653555675,0.08749266926708989,0.006191876295683089
0.2248448,0.029860996510592624,0.011074143652180922,0.011591819525130477,0.0024813046236975265,0.04363226777181781,0.04098099436514691,0.08727880565814465,0.006205694411749549
0.2253103,0.02991473474048967,0.011032695954124752,0.01155264467010299,0.0024254817946269443,0.04366299098549813,0.04093180578700354,0.08706801331343893,0.006219559734461854
0.2257759,0.029967491556845603,0.010991238522442317,0.011513743390017529,0.0023697384658050388,0.04369348290615281,0.040882815488553395,0.08686037429430214,0.006233472661518394
0.2262414,0.030019263673970693,0.01094977394241991,0.01147512032175655,0.002314093522965354,0.04372374229126531,0.04083402799234823,0.08665597011671229,0.006247433570324236
0.2267069,0.030070048212868558,0.010908304750812005,0.011436779950665558,0.002258566090300673,0.04375376772536628,0.04078544765818861,0.08645488173420604,0.006261442816989151
0.2271724,0.030119842701872474,0.010866833436627607,0.011398726608132568,0.0022031755282028794,0.04378355761445727,0.04073707868524234,0.08625718952086933,0.006275500735331604
0.2276379,0.030168645077066403,0.010825362441934343,0.011360964469251111,0.0021479414309254837,0.04381311018063969,0.0406889251141558,0.08606297325441362,0.006289607635888937
0.2281034,0.03021645368248943,0.010783894162678765,0.0113234975505689,0.0020928836241687647,0.04384242345695014,0.040640990829156474,0.08587231209934208,0.006303763804933952
0.228569,0.030263267270122726,0.010742430949521348,0.01128632970792421,0.0020380221625874756,0.04387149528240288,0.04059327956014519,0.08568528459020981,0.006317969503498084
0.2290345,0.030309084999658453,0.010700975108684641,0.011249464634371934,0.001983377327221064,0.04390032329724,0.04054579488477703,0.08550196861498123,0.00633222496640135
0.2295,0.03035390643805022,0.01065952890281309,0.011212905858201193,0.0019289696228463572,0.043928904938389496,0.04049854023053008,0.08532244139848796,0.006346530401289277
0.2299655,0.03039773155884476,0.010618094551843062,0.011176656741046224,0.0018748197752526754,0.043957237435131205,0.04045151887676124,0.08514677948598998,0.006360885987677057
0.230431,0.03044056074129448,0.010576674233881573,0.011140720476092247,0.0018209487284393498,0.04398531780497047,0.04040473395674867,0.08497505872684265,0.006375291876001227
0.2308966,0.03048239476925054,0.010535270086092206,0.011105100086377866,0.0017673776417356218,0.044013142849719085,0.04035818845972038,0.08480735425827264,0.006389748186679281
0.2313621,0.03052323482983639,0.010493884205586685,0.011069798423195526,0.001714127886842907,0.04404070915178338,0.04031188523286845,0.08464374048926561,0.006404255009177644
0.2318276,0.030563082511901825,0.010452518650320519,0.01103481816459135,0.001661221044799411,0.04406801307065868,0.0402658269833487,0.08448429108456934,0.006418812401088541
0.2322931,0.03060193980425826,0.010411175439991156,0.011000161813965714,0.001608678902867077,0.04409505073962967,0.04022001628026559,0.08432907894881563,0.006433420387216278
0.2327586,0.030639809093696343,0.010369856556937092,0.010965831698775718,0.0015565234513408544,0.04412181806267587,0.04017445555664263,0.08417817621076507,0.006448078958673495
0.2332241,0.030676693162787833,0.010328563947036526,0.010931829969340669,0.0015047768802802853,0.04414831071158182,0.04012914711137891,0.08403165420767997,0.0064627880719879596
0.2336897,0.030712595187474222,0.010287299520604273,0.010898158597751588,0.0014534615761634384,0.04417452412325119,0.04008409311119292,0.08388958346983168,0.006477547648220418
0.2341552,0.03074751873444541,0.010246065153285851,0.010864819376885671,0.0014026001184632528,0.04420045349722502,0.04003929559255488,0.08375203370515019,0.006492357572094104
0.2346207,0.030781467758312232,0.010204862686947872,0.010831813919526574,0.0013522152761464058,0.04422609379340403,0.03999475646360915,0.08361907378402494,0.006507217691136497
0.2350862,0.030814446598577135,0.01016369393056404,0.010799143657591265,0.001302330004094854,0.044251439729975785,0.039950477506088045,0.08349077172426592,0.006522127814833967
0.2355517,0.03084645997640742,0.010122560661096297,0.010766809841464145,0.0012529674394502306,0.044276485781547546,0.039906460377218865,0.08336719467623442,0.00653708771379998
0.2360172,0.03087751299121572,0.010081464624370786,0.010734813539438998,0.0012041508978812893,0.04430122617748563,0.03986270661162585,0.08324840890815204,0.006552097118957564
0.2364828,0.030907611117051974,0.010040407535948483,0.010703155637269327,0.0011559038697745978,0.04432565490046214,0.039819217623229056,0.08313447979159579,0.006567155720736781
0.2369483,0.03093676019881134,0.00999939108199039,0.010671836837827423,0.0011082500163486725,0.04434976568520974,0.03977599470714209,0.08302547178718701,0.00658226316828801
0.2374138,0.030964966448262105,0.00995841692011728,0.01064085766087254,0.001061213165691747,0.04437355201748509,0.03973303904157077,0.08292144843048085,0.00659741906871186
0.2378793,0.030992236439897593,0.009917486680263947,0.010610218442928365,0.0010148173087233738,0.04439700713324111,0.03969035168971468,0.08282247231806236,0.006612622986306582
0.2383448,0.031018577106616086,0.009876601965527846,0.010579919337269941,0.0009690865950800557,0.04442012401800845,0.039647933601673124,0.08272860509385527,0.006627874441833846
0.2388103,0.031043995735232807,0.00983576435301199,0.010549960314020118,0.0009240453289251216,0.044442895406486084,0.039605785616357185,0.08263990743564836,0.006643172911803772
0.2392759,0.031068499961827988,0.009794975394661906,0.010520341160355452,0.0008797179646830639,0.044465313782340636,0.03956390846340916,0.08255643904184436,0.006658517827780074
0.2397414,0.031092097766935032,0.009754236618096422,0.01049106148082149,0.0008361291026985711,0.04448737137821407,0.039522302765130586,0.08247825861843525,0.006673908575706196
0.2402069,0.031114797470572792,0.009713549527432044,0.010462120697757218,0.0007933034848204894,0.044509060175938885,0.039480969038419814,0.08240542386620801,0.006689344495253349
0.2406724,0.031136607727125776,0.009672915604100676,0.010433518051828421,0.0007512659899109525,0.044530371906960256,0.039439907696719866,0.08233799146818342,0.006704824879191267
0.2411379,0.031157537520076134,0.009632336307660368,0.010405252602669599,0.000710041629279918,0.04455129805296389,0.039399119051977106,0.08227601707729074,0.006720348972782623
0.2416034,0.031177596156591103,0.009591813076598708,0.010377323229634035,0.0006696555420453422,0.04457182984670846,0.03935860331661129,0.0822195553042799,0.0067359159732019065
0.242069,0.031196793261969717,0.00955134732912844,0.010349728632651522,0.000630132990419226,0.04459195827306117,0.039318360605497135,0.08216865970587262,0.006751525028979632
0.2425345,0.03121513877395254,0.009510940463974776,0.010322467333193178,0.0005914993549197659,0.044611674070234524,0.03927839093795763,0.0821233827731529,0.006767175239472655
0.243,0.031232642936898335,0.009470593861153806,0.010295537675342753,0.000553780129509857,0.04463096773122243,0.03923869423976918,0.08208377592019714,0.006782865654361388
0.2434655,0.031249316295831615,0.00943030888274135,0.01026893782697374,0.0005170009166622066,0.04464982950543339,0.03919927034517824,0.08204988947294287,0.006798595273174645
0.243931,0.0312651696903653,0.009390086873631558,0.01024266578103154,0.0004811874223513506,0.04466824940051821,0.039160118998929246,0.0820217726582951,0.006814363044842835
0.2443966,0.031280214248502844,0.00934992916228449,0.010216719356919885,0.00044636545097288864,0.04468621718438954,0.03912123985830336,0.08199947359346861,0.006830167867280164
0.2448621,0.03129446138032443,0.009309837061461903,0.010191096201990674,0.0004125609001902897,0.04470372238743009,0.03908263249516786,0.08198303927556364,0.006846008586996568
0.2453276,0.03130792277156201,0.00926981186895043,0.010165793793136329,0.00037979975570964623,0.044720754304886104,0.039044296398036145,0.08197251557137201,0.006861883998740001
0.2457931,0.03132061037706803,0.009229854868271338,0.010140809438483741,0.0003481080859827847,0.044737301999442404,0.03900623097413867,0.0819679472074103,0.006877792845169746
0.2462586,0.03133253641418256,0.009189967329376051,0.0101161402791888,0.00031751203683916994,0.04475335430397514,0.038968435551505184,0.08196937776017567,0.006893733816561356
0.2467241,0.03134371335600365,0.009150150509326644,0.010091783291330468,0.00028803782604707747,0.044768899824478764,0.038930909381059114,0.08197684964662039,0.006909705550543811
0.2471897,0.03135415392456529,0.009110405652960538,0.01006773528790332,0.00025971173780455306,0.04478392694316354,0.03889365163872477,0.0819904041148394,0.006925706631869453
0.2476552,0.03136387108392732,0.009070733993538674,0.010043992920907354,0.00023256011716072918,0.04479842382172045,0.038856661427548164,0.08201008123496595,0.006941735592217204
0.2481207,0.031372878033181464,0.00903113675337648,0.010020552683533917,0.0002066093643681271,0.04481237840475118,0.038819937779832066,0.08203591989026918,0.006957790910029602
0.2485862,0.031381188199377255,0.008991615144457088,0.009997410912446443,0.00018188592916663722,0.04482577842336097,0.0387834796592858,0.08206795776844808,0.006973871010384056
0.2490517,0.03138881523037153,0.008952170369026282,0.00997456379015467,0.00015841630499994008,0.04483861139891288,0.038747285963190096,0.08210623135311533,0.006989974264898745
0.2495172,0.03139577298760509,0.00891280362016875,0.009952007347480972,0.00013622702316520085,0.04485086464694202,0.038711355524577086,0.08215077591546449,0.007006098991673542
0.2499828,0.03140207553880995,0.008873516082365343,0.009929737466117326,0.00011534464689693732,0.04486252528122864,0.03867568711442574,0.08220162550611355,0.00702224345526628
0.2504483,0.0314077371506506,0.008834308932031106,0.009907749881271405,9.579576538602508e-05,0.04487358021802924,0.038640279443872654,0.0822588129471172,0.007038405866704624
0.2509138,0.031412772281302806,0.008795183338033889,0.009886040184400193,7.760698773485552e-05,0.044884016180464725,0.0386051311664384,0.08232236982414015,0.0070545843835338315
0.2513793,0.03141719557297337,0.008756140462193475,0.009864603826029453,6.080493684970793e-05,0.04489381970306556,0.038570240880269384,0.08239232647878318,0.007070777109900576
0.2518448,0.03142102184436441,0.008717181459761192,0.009843436118657296,4.541624327143243e-05,0.04490297713647384,0.03853560713039501,0.08246871200105343,0.00708698209667305
0.2523103,0.031424266083085496,0.008678307479880054,0.009822532239740021,3.146753894556563e-05,0.044911474652302726,0.038501228410999705,0.0825515542219704,0.007103197341597511
0.2527759,0.03142694343801712,0.008639519666025575,0.009801887234758291,1.8985450933019225e-05,0.044919298248153466,0.038467103167709196,0.08264087970629919,0.007119420789491413
0.2532414,0.031429069211628566,0.00860081915642744,0.009781496020361654,7.996595062497886e-06,0.04492643375279035,0.03843322979988998,0.08273671374540309,0.007135650332473274
0.2537069,0.031430658852253185,0.008562207084472341,0.009761353387589324,-1.4724304741779808e-06,0.04493286683147336,0.03839960666296083,0.08283908035020832,0.007151883810229421
0.2541724,0.03143172794632426,0.008523684579088303,0.009741454005165072,-9.39505158263937e-06,0.04493858299144809,0.03836623207071469,0.08294800224427473,0.00716811901031774
0.2546379,0.03143229221057436,0.008485252765110906,0.00972179242286398,-1.574472478118125e-05,0.04494356758759243,0.038333104297649405,0.08306350085696777,0.007184353668508544
0.2551034,0.03143236748420155,0.008446912763631827,0.009702363074948745,-2.0494943769328425e-05,0.0449478058282189,0.03830022158130522,0.08318559631672766,0.007200585469162642
0.255569,0.03143196972100625,0.008408665692330187,0.009683160283673121,-2.3619246048412292e-05,0.04495128278103158,0.03826758212460692,0.08331430744443308,0.007216812045646655
0.2560345,0.03143111498150254,0.008370512665787156,0.009664178262850017,-2.509121959276846e-05,0.04495398337923652,0.03823518409820804,0.08344965174685672,0.007233030980785622
0.2565,0.031429819425008367,0.00833245479578434,0.009645411121481698,-2.4884509570124013e-05,0.04495589242780402,0.038203025642834613,0.08359164541021018,0.0072492398073529165
0.2569655,0.03142809930171907,0.008294493191586436,0.009626852867449461,-2.2972825109709218e-05,0.044956994609881326,0.03817110487162558,0.0837403032937757,0.007265436008597542
0.257431,0.03142597094476875,0.008256628960208609,0.009608497411260122,-1.9329946116600176e-05,0.044957274493353794,0.038139419872466815,0.08389563892362195,0.007281617018808851
0.2578966,0.03142345076228386,0.008218863206669041,0.009590338569846542,-1.3929730130774535e-05,0.04495671653755233,0.038107968710315715,0.08405766448640047,0.007297780223918797
0.2583621,0.03142055522943335,0.008181197034226994,0.00957237007041946,-6.746119229340012e-06,0.044955305100104856,0.03807674942951326,0.08422639082321891,0.007313922962141783
0.2588276,0.03141730088047939,0.008143631544606726,0.009554585554367785,2.246853029625216e-06,0.04495302444392923,0.03804576005608016,0.08440182742358707,0.007330042524652191
0.2592931,0.03141370430083269,0.008106167838207485,0.009536978581204484,1.3075054623199717e-05,0.0449498587443647,0.03801499859999425,0.08458398241943098,0.0073461361562995806
0.2597586,0.03140978211911602,0.008068807014299793,0.009519542632555163,2.576424804130991e-05,0.04494579209643905,0.03798446305744582,0.08477286257917072,0.007362201056361564
0.2602241,0.0314055509992396,0.008031550171208142,0.009502271116186381,4.0340083227597465e-05,0.044940808522268234,0.03795415141306811,0.08496847330185842,0.007378234379334234
0.2606897,0.031401027632491925,0.00799439840648014,0.009485157370070696,5.6828090485092474e-05,0.04493489197858547,0.03792406164213993,0.08517081861137461,0.0073942332357600365
0.2611552,0.031396228729649416,0.007957352817042148,0.00946819466648541,7.525367334833952e-05,0.04492802636439631,0.037894191712757916,0.08537990115068324,0.007410194693092913
0.2616207,0.03139117101310839,0.00792041449934135,0.009451376216141918,9.564210142364026e-05,0.04492019552875643,0.03786453958797615,0.08559572217614805,0.007426115776600505
0.2620862,0.03138587120904267,0.00788358454947421,0.009434695172342534,0.00011801850319908835,0.044911383278668386,0.03783510322791071,0.0858182815519153,0.007441993470303186
0.2625517,0.03138034603959026,0.007846864063301229,0.009418144635161626,0.00014240785882608118,0.04490157338709376,0.037805880591807624,0.08604757774436822,0.0074578247179496755
0.2630172,0.03137461221507261,0.007810254136547915,0.009401717655647875,0.00016883499287399873,0.044890749601076856,0.037776869640072396,0.0862836078166601,0.007473606424028944
0.2634828,0.031368686426249834,0.00777375586489187,0.009385407240044455,0.00019732456705974828,0.044878895649975964,0.037748068336259766,0.08652636742333254,0.0074893354548181005
0.2639483,0.03136258533661536,0.007737370344035852,0.009369206354023904,0.000227901072953884,0.04486599525379812,0.03771947464902256,0.08677585080502526,0.007505008639465943
0.2644138,0.031356325574733376,0.007701098669766682,0.009353107926934444,0.00026058882466502466,0.04485203213163279,0.03769108655401891,0.08703205078328312,0.007520622771111759
0.2648793,0.03134992372662217,0.007664941937999803,0.009337104856054523,0.0002954119515043047,0.044836990010179656,0.037662902035777004,0.08729495875546621,0.00753617460803892
0.2653448,0.03134339632818635,0.0076289012448093494,0.009321190010852307,0.0003323943906316068,0.04482085263236542,0.037634919089516654,0.08756456468976777,0.007551660874862778
0.2658103,0.031336759857700916,0.0075929776864436084,0.009305356237246855,0.00037155987968533357,0.04480360376604406,0.03760713572292694,0.0878408571203456,0.007567078263752296
0.2662759,0.031330030728349736,0.007557172359325727,0.009289596361867705,0.0004129319493974877,0.04478522721277503,0.03757954995789888,0.08812382314257268,0.007582423435684822
0.2667414,0.03132322528082118,0.007521486360039622,0.009273903196309581,0.0004565339161958428,0.04476570681667369,0.037552159832212224,0.08841344840841335,0.00759769302173337
0.2672069,0.03131635977596364,0.007485920785301049,0.009258269541378898,0.0005023888747950029,0.04474502647332834,0.037524963401175455,0.08870971712193218,0.0076128836243857
0.2676724,0.03130945038750358,0.007450476731913868,0.009242688191328733,0.0005505196907781617,0.044723170138778544,0.03749795873921842,0.0890126120349425,0.007627991818894444
0.2681379,0.031302513194829074,0.007415155296711633,0.009227151938078921,0.0006009489931713837,0.04470012183854935,0.037471143941437295,0.08932211444280279,0.00764301415465748
0.2686034,0.03129556417584188,0.007379957576484712,0.009211653575417854,0.0006536991670122395,0.044675865676736724,0.03744451712509184,0.08963820418036877,0.007657947156627669
0.269069,0.03128861919988117,0.007344884667893268,0.00919618590318262,0.0007087923459146328,0.044650385845138904,0.03741807643105509,0.08996085961810957,0.007672787326751048
0.2695345,0.03128169402072221,0.007309937667366534,0.009180741731414092,0.0007662504046316623,0.04462366663242907,0.03739182002521559,0.0902900576583966,0.007687531145432455
0.27,0.03127480426965334,0.007275117670988944,0.009165313884483583,0.0008260949516183726,0.044595692433363886,0.03736574609983233,0.09062577373197384,0.007702175073027604
0.2704655,0.03126796544863439,0.007240425774373782,0.009149895205187736,0.000888347321596256,0.04456644775802276,0.03733985287484228,0.09096798179461858,0.007716715551360493
0.270931,0.03126119292353951,0.007205863072525143,0.0091344785588084,0.000953028568121379,0.0445359172410722,0.03731413859912095,0.09131665432400092,0.007731149005265035
0.2713966,0.03125450191748723,0.007171430659689083,0.009119056837134418,0.0010201594561580203,0.04450408565104981,0.03728860155169585,0.0916717623167509,0.007745471844149755
0.2718621,0.03124790750426053,0.007137129629194857,0.00910362296244242,0.0010897604546597078,0.044470937899662374,0.037263240042912975,0.09203327528574186,0.007759680463584368
0.2723276,0.03124142460181955,0.0071029610732872,0.009088169891433922,0.0011618517291595476,0.04443645905109237,0.03723805241555603,0.09240116125759865,0.007773771246907025
0.2727931,0.03123506796590953,0.0070689260829505845,0.009072690619126175,0.001236453134371743,0.04440063433130715,0.03721303704591807,0.09277538677043867,0.007787740566850988
0.2732586,0.031228852183766715,0.007035025747726348,0.009057178182694473,0.001313584206806202,0.044363449137364716,0.03718819234482504,0.09315591687185475,0.007801584787189487
0.2737241,0.031222791667924767,0.007001261155523585,0.009041625665263852,0.0013932641573981283,0.04432488904670981,0.03716351675861074,0.09354271511714699,0.007815300264397527
0.2741897,0.03121690065012435,0.006967633392424671,0.009026026199648422,0.0014755118641544998,0.044284939826453526,0.03713900877004303,0.09393574356781181,0.0078288833493294
0.2746552,0.031211193175328108,0.006934143542486213,0.009010372972036754,0.0015603458648193362,0.04424358744262939,0.03711466689920104,0.09433496279029502,0.007842330388910674
0.2751207,0.03120568309584326,0.00690079268753626,0.00899465922562191,0.0016477843495596907,0.044200818069418536,0.03709048970430361,0.0947403318550152,0.007855637727843477
0.2755862,0.031200384065553727,0.006867581906968454,0.008978878264174772,0.0017378451536743155,0.04415661809833626,0.03706647578248953,0.09515180833566386,0.007868801710323909
0.2760517,0.03119530953426354,0.00683451227753381,0.008963023455559318,0.0018305457503269896,0.044110974147372334,0.03704262377055037,0.09556934830878842,0.007881818681770394
0.2765172,0.03119047274215301,0.0068015848731307425,0.008947088235188562,0.0019259032433065091,0.044063873070077524,0.03701893234561727,0.09599290635366439,0.007894684990561819
0.2769828,0.031185886714349062,0.006768800764593871,0.008931066109419775,0.0020239343598153566,0.04401530196458883,0.03699540022580316,0.09642243555246319,0.007907396989784264
0.2774483,0.031181564255610857,0.006736161019482125,0.00891495065888769,0.0021246554432890674,0.043965248182586535,0.03697202617080215,0.09685788749072298,0.007919951038985061
0.2779138,0.031177517945131832,0.0067036667018665706,0.0088987355417743,0.0022280824462483175,0.04391369933817644,0.0369488089824478,0.09729921225813035,0.007932343505932925
0.2783793,0.031173760131459245,0.0066713188721183635,0.008882414497013866,0.002334230923185763,0.04386064331669116,0.036925747505232115,0.09774635844962073,0.007944570768382788
0.2788448,0.031170302927532367,0.0066391185866971555,0.008865981347431806,0.0024431160234896767,0.043806068283404116,0.036902840626786906,0.09819927316680639,0.007956629215843973
0.2793103,0.031167158205840585,0.006607066897940271,0.0088494300028161,0.002554752484406414,0.043749962692150576,0.036880087278329435,0.09865790201974008,0.00796851525135026
0.2797759,0.03116433759370257,0.006575164853852857,0.008832754462919838,0.002669154624043744,0.043692315293849544,0.03685748643507405,0.09912218912902199,0.007980225293230355
0.2802414,0.031161852468667865,0.006543413497899242,0.008815948820393578,0.002786336334417065,0.04363311514492096,0.03683503711661162,0.09959207712825752,0.007991755776877163
0.2807069,0.03115971395404193,0.006511813868795614,0.008799007263646137,0.002906311074540504,0.04357235161559241,0.03681273838725851,0.1000675071668724,0.008003103156514289
0.2811724,0.031157932914535797,0.006480367000304126,0.008781924079632374,0.00302909186356489,0.04351001439809018,0.03679058935637679,0.10054841891329146,0.008014263906958051
0.2816379,0.031156519952041408,0.006449073921028495,0.008764693656566562,0.003154691273964578,0.04344609351470913,0.036768589178667106,0.1010347505584861,0.008025234525373263
0.2821034,0.0311554854015337,0.006417935654211096,0.00874731048655993,0.003283121424775091,0.0433805793257567,0.03674673705443547,0.10152643881989597,0.008036011533020982
0.282569,0.031154839327100482,0.006386953217531513,0.008729769168180981,0.003414393974883553,0.04331346253736558,0.03672503222983477,0.10202341894572904,0.008046591476996403
0.2830345,0.03115459151810132,0.006356127622906496,0.008712064408937235,0.003548520116373892,0.04324473420916961,0.0367034739970817,0.10252562471964446,0.008056970931955017
0.2835,0.031154751485456603,0.00632545987629128,0.008694191027677095,0.003685510567928815,0.04317438576183762,0.036682061694649416,0.10303298846582115,0.008067146501825155
0.2839655,0.03115532845806794,0.006294950977482148,0.008676143956910482,0.003825375568290568,0.04310240898445964,0.036660794707435905,0.1035454410544157,0.008077114821504989
0.284431,0.031156331379371054,0.006264601919920207,0.008657918245046987,0.003968124869782529,0.043028796041780074,0.03663967246690822,0.1040629119074118,0.008086872558542027
0.2848966,0.03115776890402215,0.006234413690496311,0.00863950905855031,0.0041137677318936776,0.04295353948127252,0.03661869445122245,0.10458532900486346,0.008096416414793084
0.2853621,0.031159649394718776,0.006204387269357097,0.008620911684007755,0.004262312914927989,0.04287663224005077,0.03659786018531968,0.10511261889153327,0.008105743128062646
0.2858276,0.031161980919155695,0.006174523629712098,0.00860212153011356,0.004413768673720796,0.042798067651610414,0.036577169240998,0.10564470668392717,0.008114849473717519
0.2862931,0.03116477124711635,0.006144823737641881,0.00858313412956488,0.0045681427514241415,0.04271783945239533,0.036556621236961004,0.10618151607772616,0.008123732266275606
0.2867586,0.031168027847700144,0.0061152885519071805,0.008563945140869163,0.004725442373363108,0.04263594178818288,0.036536215838843096,0.1067229693556149,0.00813238836096671
0.2872241,0.03117175788668572,0.006085919023758947,0.008544550350061736,0.004885674240965097,0.04255236922028175,0.036515952759211975,0.10726898739550675,0.008140814655263227
0.2876897,0.03117596822403026,0.0060567160967491904,0.008524945672332501,0.005048844525764015,0.04246711673153632,0.03649583175754885,0.10781948967916502,0.008149008090378666
0.2881552,0.03118066541150482,0.00602768070654249,0.00850512715356078,0.005214958863481285,0.04238017973213186,0.03647585264020671,0.10837439430121994,0.008156965652731977
0.2886207,0.031185855690465735,0.005998813780727959,0.008485090971757555,0.005384022348185657,0.0422915540651955,0.036456015260347044,0.10893361797858127,0.008164684375375661
0.2890862,0.031191544989762267,0.005970116238631463,0.008464833438414561,0.0055560395265337285,0.04220123601218827,0.03643631951785571,0.10949707606024696,0.008172161339385694
0.2895517,0.0311977389237805,0.0059415889911278285,0.008444350999759907,0.005731014392093123,0.04210922229808439,0.03641676535923872,0.11006468253750806,0.008179393675211324
0.2900172,0.031204442790623795,0.005913232940452819,0.00842364023792003,0.005908950379750231,0.04201551009633416,0.03639735277749881,0.1106363500545506,0.008186378563982896
0.2904828,0.031211661570429927,0.005885048980014636,0.008402697871987868,0.006089850360204425,0.04192009703360693,0.03637808181199449,0.11121198991945473,0.008193113238775859
0.2909483,0.03121939992382522,0.005857037994204741,0.008381520758997122,0.006273716634550643,0.041822981194311014,0.03635895254828297,0.1117915121155913,0.008199594985829341
0.2914138,0.031227662190515988,0.005829200858207854,0.008360105894802626,0.00646055092895223,0.041724161124887485,0.036339965117948896,0.11237482531341492,0.008205821145717747
0.2918793,0.031236452388017717,0.005801538437811009,0.00833845041486685,0.006650354389405945,0.04162363583787546,0.03632111969842056,0.1129618368826529,0.008211789114474002
0.2923448,0.031245774210522496,0.005774051589211572,0.00831655159495287,0.0068431275766010526,0.04152140481574709,0.036302416512774945,0.11355245290488832,0.008217496344663277
0.2928103,0.031255631027905496,0.005746741158824223,0.008294406851724433,0.007038870460874435,0.04141746801451152,0.0362838558295329,0.11414657818653585,0.008222940346406249
0.2932759,0.03126602588487145,0.005719607983086871,0.00827201374325424,0.007237582417263759,0.04131182586708787,0.03626543796244561,0.11474411627221,0.008228118688351226
0.2937414,0.03127696150024226,0.005692652888265595,0.008249369969441887,0.007439262220660784,0.04120447928644818,0.03624716327027321,0.11534496945848526,0.008233028998594672
0.2942069,0.03128844026638702,0.005665876690258745,0.00822647337234326,0.007643908041066961,0.041095429668531906,0.03622903215655679,0.11594903880805014,0.008237668965549873
0.2946724,0.03130046424879555,0.005639280194400396,0.00820332193641334,0.007851517438953617,0.04098467889493398,0.03621104506938487,0.11655622416425665,0.008242036338763565
0.2951379,0.03131303518579663,0.005612864195263449,0.008179913788664537,0.00806208736072907,0.04087222933536881,0.03619320250115558,0.11716642416606834,0.008246128929680338
0.2956034,0.03132615448842192,0.005586629476462726,0.008156247198742661,0.00827561413431516,0.04075808384991301,0.036175504988335626,0.11777953626340984,0.008249944612354622
0.296069,0.03133982324041659,0.005560576810458477,0.008132320578922735,0.008492093464835761,0.04064224579103002,0.03615795311121687,0.11839545673292083,0.00825348132411012
0.2965345,0.03135404219839791,0.005534706958360792,0.008108132484026802,0.008711520430419915,0.04052471900538031,0.03614054749367138,0.11901408069411809,0.0082567370661466
0.297,0.03136881179216293,0.005509020669735474,0.00808368161126594,0.00893388947812231,0.04040550783542114,0.036123288802905405,0.11963530212596983,0.008259709904094201
0.2974655,0.03138413212514685,0.0054835186824119175,0.008058966800008581,0.009159194419963807,0.04028461712080002,0.03610617774921263,0.12025901388388781,0.008262397968515764
0.297931,0.03140000297503349,0.005458201722293601,0.008033987031477287,0.009387428429094787,0.04016205219954566,0.036089215085726906,0.12088510771714363,0.008264799455358103
0.2983966,0.03141642379451956,0.005433070503171802,0.008008741428376025,0.009618584036084031,0.04003781890906059,0.03607240160817442,0.12151347428671652,0.008266912626353509
0.2988621,0.03143339371223448,0.005408125726543105,0.007983229254450016,0.00985265312533592,0.039911923586918856,0.03605573815462495,0.1221440031835793,0.008268735809372952
0.2993276,0.031450911533817204,0.005383368081431268,0.007957449913980194,0.010089626931638779,0.03978437307147265,0.03603922560524175,0.122776582947429,0.008270267398732694
0.2997931,0.031468975743151814,0.005358798244213982,0.0079314029512143,0.010329496036847229,0.0396551747022711,0.036022864882029354,0.12341110108586795,0.008271505855455937
0.3002586,0.031487584503763114,0.005334416878455035,0.007905088049736627,0.010572250366701431,0.03952433632029472,0.03600665694857859,0.12404744409404034,0.008272449707491261
0.3007241,0.03150673566037356,0.00531022463474236,0.007878505031778348,0.010817879187786143,0.03939186626800898,0.03599060280980774,0.12468549747472893,0.008273097549889518
0.3011897,0.031526426740622546,0.005286222150532438,0.007851653857470369,0.011066371104632483,0.039257773389240254,0.03597470351169897,0.12532514575891515,0.008273448044940889
0.3016552,0.031546654956948736,0.005262410050001431,0.007824534624040544,0.01131771405696533,0.039122067028878056,0.03595896014102899,0.12596627252680595,0.008273499922273792
0.3021207,0.03156741720863612,0.005238788943903458,0.007797147564957044,0.011571895317099266,0.03898475703240701,0.03594337382509253,0.12660876042932884,0.008273251978917345
0.3025862,0.03158871008402409,0.005215359429436337,0.007769493049019634,0.011828901487486023,0.038845853745272066,0.03592794573141732,0.12725249121009619,0.008272703079329091
0.3030517,0.031610529862881806,0.005192122090115092,0.007741571579400547,0.012088718498416322,0.03870536801208051,0.03591267706746878,0.1278973457278383,0.00827185215538966
0.3035172,0.031632872518946926,0.005169077495653504,0.0077133837926366,0.012351331605879104,0.03856331117564405,0.03589756908034263,0.12854320397930405,0.008270698206366042
0.3039828,0.03165573372262878,0.005146226201853943,0.0076849304575741925,0.012616725389581175,0.038419695075864145,0.03588262305644375,0.12918994512262635,0.008269240298845149
0.3044483,0.03167910884387573,0.005123568750505728,0.007656212474268777,0.012884883751130276,0.038274532048463726,0.035867840321149515,0.1298374475011498,0.008267477566639314
0.3049138,0.03170299295520654,0.00510110566929223,0.007627230872840421,0.013155789912384632,0.03812783492356853,0.03585322223845655,0.13048558866771542,0.008265409210665446
0.3053793,0.03172738083490532,0.0050788374717069245,0.007597986812287035,0.013429426413972064,0.03797961702414102,0.03583877021060959,0.13113424540939803,0.008263034498799475
0.3058448,0.0317522669703795,0.00505676465697861,0.007568481579256828,0.013705775113981675,0.03782989216427014,0.03582448567771171,0.13178329377269057,0.008260352765707725
0.3063103,0.03177764556168002,0.005034887710005975,0.007538716586781549,0.013984817186831106,0.037678674647319985,0.035810370117314916,0.13243260908912882,0.00825736341265688
0.3067759,0.03180351052518284,0.005013207101301738,0.007508693372972018,0.014266533122312311,0.037525979263940655,0.035796425043990165,0.13308206600134906,0.008254065907304143
0.3072414,0.031829855497430656,0.004991723286946541,0.0074784135996774454,0.014550902724818656,0.03737182128994461,0.03578265200887562,0.13373153848957142,0.008250459783469201
0.3077069,0.031856673839133515,0.004970436708552842,0.0074478790511100035,0.014837905112756136,0.03721621648405176,0.03576905259920211,0.13438089989850038,0.008246544640889598
0.3081724,0.03188395863932674,0.004949347793239025,0.007417091632436092,0.015127518718141407,0.03705918108550673,0.03575562843779473,0.13503002296463312,0.008242320144961094
0.3086379,0.03191170271968449,0.00492845695361399,0.007386053368335722,0.015419721286389191,0.03690073181157161,0.03574238118254976,0.13567877984396606,0.008237786026464543
0.3091034,0.031939898638986906,0.004907764587772486,0.007354766401531445,0.01571448987629162,0.03674088585489754,0.03572931252588598,0.13632704214008864,0.008232942081280784
0.309569,0.03196853869773868,0.004887271079301448,0.007323232991288247,0.016011800860191844,0.03657966088077848,0.03571642419416986,0.13697468093265214,0.008227788170095018
0.3100345,0.031997614942936674,0.004866976797297643,0.007291455511885812,0.01631162992435421,0.036417075024290285,0.03570371794711382,0.13762156680620075,0.008222324218092103
0.3105,0.03202711917298378,0.004846882096396893,0.00725943645106458,0.016613952069533176,0.03625314688731855,0.035691195577147276,0.13826756987935024,0.00821655021464411
0.3109655,0.03205704294274596,0.004826987316815146,0.007227178408447004,0.01691874161174303,0.036087895535478066,0.035678858908760186,0.13891255983429912,0.008210466212991447
0.311431,0.03208737756874934,0.004807292784401673,0.007194684093935447,0.01722597218323032,0.035921340494927165,0.03566670979781937,0.13955640594665591,0.008204072329918823
0.3118966,0.03211811413451382,0.004787798810704619,0.007161956326088087,0.01753561673365086,0.035753501749079805,0.03565475013085799,0.14019897711556487,0.008197368745427225
0.3123621,0.032149243496019345,0.004768505693049095,0.007128998030474232,0.017847647531452987,0.035584399735218444,0.03564298182433876,0.1408401418941119,0.008190355702403073
0.3128276,0.03218075628730091,0.004749413714628024,0.007095812238010389,0.018162036165468756,0.03541405534101078,0.03563140682389165,0.14147976851999117,0.008183033506285632
0.3132931,0.032212642926168,0.004730523144605905,0.007062402083278392,0.0184787535467147,0.03524248990093332,0.03562002710352714,0.14211772494641228,0.008175402524733736
0.3137586,0.03224489362004398,0.0047118342382356515,0.007028770802826862,0.018797769910403706,0.03506972519260466,0.03560884466482654,0.14275387887322732,0.00816746318729282
0.3142241,0.03227749837192061,0.004693347236988691,0.006994921733457212,0.01911905481816967,0.03489578343303126,0.03559786153611116,0.14338809777825615,0.008159215985063244
0.3146897,0.03231044698642282,0.0046750623686984735,0.006960858310495367,0.019442577160506447,0.03472068727476854,0.03558707977159247,0.14402024894878868,0.008150661470370772
0.3151552,0.03234372907597836,0.004656979847717511,0.006926584066050297,0.019768305159422735,0.03454445980199945,0.035576501450505574,0.14465019951324293,0.008141800256440105
0.3156207,0.032377334067086934,0.004639099875088086,0.0068921026272604465,0.020096206371314502,0.03436712452653313,0.035566128676228013,0.1452778164729585,0.008132633017072219
0.3160862,0.032411251206683055,0.004621422638726684,0.006857417714529075,0.020426247690056496,0.034188705383725496,0.03555596357538625,0.14590296673410533,0.008123160486326267
0.3165517,0.03244546956858655,0.004603948313622219,0.006822533139749482,0.020758395350314377,0.03400922672832386,0.035546008296951606,0.14652551713968756,0.008113383458206697
0.3170172,0.03247997806003444,0.0045866770620480715,0.006787452804521078,0.021092614931078914,0.033828713330237195,0.035536265011327665,0.14714533450162215,0.008103302786356197
