Time,Rectus Femoris right,Rectus Femoris left,Hamstrings right,Hamstrings left,TibilaisÂ Anterior right,TibilaisÂ Anterior left,Gastrocnemius right,Gastrocnemius left
0.0,0.0023776692656804605,0.005336040936359347,-0.00048284965775440686,0.009891111035690856,0.0038335347540985566,-0.0032129546042952268,-0.0024597758785290746,-0.0008141452018734892
0.0004655,0.002680286248511409,0.00549165707334123,-0.00040379654551623136,0.009967045574337663,0.003966727644312672,-0.00314981162495153,-0.0020680285981853337,-0.0007672789671682059
0.000931,0.0029813011262256445,0.005648532188029107,-0.000324460266648424,0.010041955366013624,0.004101820998852919,-0.0030853826975735113,-0.001677956049084003,-0.0007193729351365965
0.0013966,0.003280662069693486,0.005806656383355996,-0.0002448466873113334,0.010115824653788404,0.00423882276162041,-0.00301965902642672,-0.001289622046788744,-0.0006704201550619052
0.0018621,0.0035783176090079458,0.0059660194806219514,-0.00016496169925828797,0.010188637950492744,0.0043777406774465665,-0.002952631956391929,-0.000903090053928202,-0.0006204138080118019
0.0023276,0.00387421665232109,0.00612661101986334,-8.481121843643457e-05,0.010260380045707533,0.004518582288673079,-0.0028842929764923003,-0.0005184231586039416,-0.0005693472099329531
0.0027931,0.004168308504579026,0.006288420260273312,-4.4011836027775635e-06,0.010331036012661901,0.004661354931698949,-0.002814633723435644,-0.00013568405292704974,-0.0005172138147501655
0.0032586,0.0044605428861427925,0.006451436180672555,7.62624450432477e-05,0.010400591215034461,0.004806065733492553,-0.0027436459851715865,0.00024506498830097217,-0.0004640072174695226
0.0037241,0.004750869951282474,0.006615647480029384,0.00015717368720934987,0.01046903131365187,0.004952721608066922,-0.002671321704463346,0.0006237621287478951,-0.000409721157284899
0.0041897,0.005039240306531912,0.006781042578028189,0.00023832654384080135,0.010536342273078904,0.005101329252916634,-0.0025976529824736786,0.0010003459915366275,-0.00035434952068721904
0.0046552,0.0053256050288915,0.006947609615685195,0.0003197149984304111,0.010602510368094247,0.005251895145414789,-0.0025226320823644077,0.001374755680043829,-0.0002978863445758
0.0051207,0.005609915683866725,0.007115336456010497,0.00040133301830677296,0.010667522190046153,0.005404425539168615,-0.002446251432908784,0.001746930798498882,-0.0002403258193711109
0.0055862,0.00589212434333041,0.007284210684715278,0.00048317455589953095,0.010731364653082165,0.005558926460332272,-0.0023685036321158116,0.0021168114723717412,-0.0001816622921282586
0.0060517,0.006172183603196989,0.0074542196109630915,0.0005652335499804283,0.010794025000247114,0.005715403703875484,-0.0022893814508655966,0.002484338368538841,-0.00012189026965050189
0.0065172,0.006450046600897553,0.007625350268164061,0.0006475039268789326,0.01085549080944366,0.005873862829806657,-0.0022088778365547054,0.0028494527152166144,-6.1004421602079156e-05
0.0069828,0.006725667032644923,0.0077975894148108425,0.0007299796016712581,0.01091574999924979,0.0060343091593491995,-0.002126985916750486,0.0032120963216523794,1.0004163803800394e-06
0.0074483,0.0069989991704784305,0.007970923535355138,0.0008126544793416419,0.010974790834587658,0.006196747771069839,-0.002043699002853262,0.0035722115975624917,6.41292395786019e-05
0.0079138,0.007269997879078485,0.008145338841123511,0.0008955224559147754,0.011032601932238253,0.006361183496957798,-0.001959010593765234,0.003929741572307852,0.0001283868710863327
0.0083793,0.007538618632341297,0.00832082127127123,0.0009785774195583523,0.011089172266196356,0.006527620918453767,-0.0018729143795648848,0.004284629913797114,0.00019377795870669485
0.0088448,0.00780481752970438,0.008497356493772814,0.00106181325165476,0.011144491172860174,0.006696064362427645,-0.0017854042451856092,0.004636820947108281,0.00026030697185402745
0.0093103,0.008068551312213543,0.008674929906447932,0.001145223827841019,0.011198548356050112,0.006866517897104092,-0.0016964742740972455,0.004986259672819674,0.00032797819846102944
0.0097759,0.00832977737832214,0.008853526638021313,0.0012288030190161668,0.011251333891851088,0.007038985327934964,-0.00160611875198912,0.0053328917850415615,0.00039679574189205427
0.0102414,0.008588453799413332,0.009033131549215288,0.001312544692315374,0.011302838233272891,0.007213470193417838,-0.0015143321704531826,0.005676663689139927,0.0004667635178634449
0.0107069,0.008844539335036138,0.009213729233873615,0.0013964427120501557,0.011353052214723344,0.007389975760859999,-0.001421109230665762,0.006017522519144026,0.0005378852513718446
0.0111724,0.009097993447845973,0.00939530402011519,0.001480490940614108,0.011401967056289252,0.007568505022087581,-0.0013264448470664393,0.006355416154829728,0.0006101644736314678
0.0116379,0.009348776318240378,0.009577839971516193,0.001564683239353635,0.011449574367820499,0.007749060689099939,-0.0012303341510324878,0.006690293238470995,0.0006836045190213833
0.0121034,0.009596848858680606,0.009761320888319292,0.0016490134694031736,0.011495866152812995,0.007931645189669823,-0.0011327724945472814,0.007022103191252516,0.0007582085220439285
0.012569,0.009842172727689693,0.009945730308668405,0.0017334754924844618,0.01154083481208654,0.008116260662890281,-0.0010337554538610335,0.0073507962293371636,0.0008339794142954576
0.0130345,0.01008471034351765,0.01013105150986771,0.0018180631716694705,0.011584473147253858,0.008302908954669582,-0.000933278833142176,0.00767632337958265,0.0009109199214506913
0.0135,0.01032442489746437,0.010317267509663745,0.0019027703721066803,0.011626774363977315,0.008491591613175623,-0.0008313386681176468,0.007998636494902246,0.0009890325602619962
0.0139655,0.01056128036685086,0.010504361067549714,0.0019875909617104713,0.011667732075009865,0.008682309884231406,-0.0007279312297003175,0.008317688269264803,0.001068319635574954
0.014431,0.010795241527629475,0.010692314686091445,0.0020725188118134517,0.01170734030301686,0.008875064706663256,-0.0006230530276017609,0.008633432252329539,0.0011487832373615954
0.0148966,0.011026273966623921,0.010881110612274756,0.002157547797781589,0.01174559348317555,0.009069856707603548,-0.0005167008139285324,0.008945822863711282,0.0012304252377726942
0.0153621,0.011254344093389856,0.011070730838874339,0.002242671799592021,0.011782486465549318,0.009266686197749764,-0.0004088715867601249,0.00925481540687215,0.0013132472882105388
0.0158276,0.011479419151687102,0.01126115710584453,0.0023278847023734334,0.011818014517234033,0.009465553166581818,-0.0002995625937067348,0.009560366082635953,0.0013972508164236184
0.0162931,0.011701467230554556,0.011452370901732543,0.002413180396908901,0.011852173324274278,0.009666457277539703,-0.00018877133544495953,0.009862432002321984,0.0014824370236246765
0.0167586,0.01192045727497915,0.011644353465114972,0.002498552780101077,0.01188495899334762,0.00986939786316358,-7.649556922953134e-05,0.010160971200495212,0.0015688068816335995
0.0172241,0.012136359096150297,0.0118370857860585,0.002583995755399621,0.011916368053215668,0.01007437392019849,3.726668762082647e-05,0.010455942647330171,0.0016563611300466198
0.0176897,0.01234914338129154,0.012030548607605877,0.0026695032331907538,0.011946397455940987,0.010281384104665954,0.00015251715426534333,0.010747306260586058,0.001745100273433324
0.0181552,0.012558781703061324,0.012224722427288228,0.002755069131148817,0.011975044577869656,0.01049042672690498,0.00026925728291287635,0.011035022917190631,0.0018350245785629723
0.0186207,0.012765246528515125,0.012419587498664784,0.0028406873745497278,0.012002307220379604,0.010701499746585122,0.0003874882554252527,0.011319054464430591,0.001926134071661628
0.0190862,0.01296851122762149,0.012615123832891142,0.0029263518965462363,0.012028183610395442,0.010914600767694578,0.0005072109799542242,0.011599363730746184,0.002018428535701603
0.0195517,0.01316855008132497,0.012811311200317045,0.00301205663840494,0.012052672400670886,0.01112972703350645,0.0006284260876139932,0.01187591453612781,0.002111907507724707
0.0200172,0.01336533828914943,0.013008129132114667,0.0030977955497050575,0.012075772669840244,0.011346875421526396,0.0007511339291912849,0.012148671702112451,0.0022065702762007803
0.0204828,0.013558851976335672,0.013205556921938345,0.003183562588499047,0.012097483922240564,0.011566042438425038,0.0008753345718949686,0.012417601061377697,0.002302415878422983
0.0209483,0.013749068200507787,0.013403573627616648,0.0032693517214352056,0.01211780608750614,0.011787224214958439,0.0010010277961472504,0.012682669466931083,0.002399443097941305
0.0214138,0.01393596495786294,0.013602158072877771,0.0033551569238424897,0.01213673951993712,0.012010416500880057,0.0011282130924184796,0.012943844800892503,0.002497650462035749
0.0218793,0.01411952118887953,0.013801288849109292,0.003440972179777859,0.01215428499764403,0.012235614659847623,0.0012568896581076241,0.013201095982867419,0.0025970362392306466
0.0223448,0.014299716783538955,0.014000944317153393,0.0035267914820365297,0.012170443721470036,0.012462813664328365,0.001387056394470466,0.01345439297790876,0.002697598436851554
0.0228103,0.014476532586056544,0.014201102609138875,0.0036126088321256056,0.012185217313692893,0.012692008090505998,0.0015187119035975718,0.01370370680406552,0.002799334798626186
0.0232759,0.01464995039911788,0.014401741630351317,0.003698418240201616,0.012198607816508661,0.012923192113192778,0.0016518544854440848,0.013949009539516197,0.0029022428023308257
0.0237414,0.014819952987617672,0.014602839061143,0.0037842137249725523,0.012210617690299514,0.01315635950074997,0.0017864821349133841,0.014190274329285355,0.0030063196574836473
0.0242069,0.014986524081899566,0.014804372358884346,0.0038699893135649933,0.012221249811688135,0.013391503610019935,0.0019225925389966445,0.014427475391541841,0.003111562303086377
0.0246724,0.015149648380496582,0.015006318759958774,0.003955739041356926,0.012230507471381534,0.013628617381273049,0.002060183073970335,0.01466058802347746,0.0032179674054157057
0.0251379,0.01530931155237346,0.015208655281803036,0.004041456951776853,0.01223839437180748,0.013867693333172646,0.0021992508026536907,0.014889588606765276,0.00332553135586586
0.0256034,0.015465500238673574,0.015411358724995262,0.004127137096069795,0.012244914624547075,0.014108723557761115,0.0023397924717281967,0.015114454612597096,0.0034342502688437236
0.026069,0.015618202053974285,0.015614405675393099,0.00421277353303084,0.012250072747567325,0.014351699715470252,0.00248180450912111,0.015335164606300033,0.0035441199797178777
0.0265345,0.015767405587055555,0.015817772506324383,0.004298360328706982,0.01225387366225784,0.014596613030158898,0.0026252830214550634,0.015551698251532464,0.0036551360428229113
0.027,0.015913100401187156,0.016021435380833015,0.00438389155606811,0.012256322690276046,0.01484345428418085,0.0027702237915657652,0.015764036314059912,0.0037672937295203353
0.0274655,0.01605527703394023,0.01622537025398271,0.004469361294648196,0.012257425550205413,0.015092213813485935,0.0029166222760897997,0.015972160665111697,0.0038805880263174286
0.027931,0.0161939269965294,0.01642955287522143,0.004554763630157854,0.012257188354031426,0.015342881502757177,0.0030644736031245168,0.016176054284319393,0.003995013633045332
0.0283966,0.01632904277269215,0.016633958790809398,0.004640092654069628,0.012255617603440043,0.015595446780586854,0.0032137725699619853,0.01637570126223836,0.0041105649610977185
0.0288621,0.016460617817112628,0.016838563346313607,0.004725342463177506,0.012252720185943597,0.015849898614694276,0.0033645136408989463,0.016571086802454116,0.004227236131731389
0.0293276,0.016588646553397857,0.0170433416891718,0.004810507159132266,0.01224850337083914,0.016106225507188203,0.003516690945124697,0.016762197223275523,0.004345020974430127
0.0297931,0.016713124371614593,0.01724826877132887,0.004895580847954394,0.012242974805004244,0.016364415489876844,0.0036702982746888305,0.016949019959017222,0.004463913025333188
0.0302586,0.016834047625395792,0.017453319351948663,0.004980557639526422,0.012236142508535329,0.016624456119628442,0.0038253290825507494,0.017131543560873805,0.004583905525729813
0.0307241,0.016951413628625872,0.017658468000204153,0.005065431647066553,0.012228014870233502,0.016886334473785555,0.003981776480712869,0.017309757697388403,0.004704991420621172
0.0311897,0.01706522065171426,0.017863689098148814,0.005150196986585504,0.012218600642942848,0.01715003714563612,0.004139633238439442,0.017483653154518688,0.004827163357351181
0.0316552,0.01717546791746701,0.018068956843672018,0.005234847776328503,0.012207908938746041,0.017415550239944344,0.00429889178056295,0.017653221835303476,0.004950413684307654
0.0321207,0.01728215559656622,0.018274245253541165,0.005319378136204324,0.012195949224022064,0.0176828593685444,0.004459544185880023,0.01781845675913345,0.005074734449695252
0.0325862,0.017385284802667208,0.018479528166533133,0.005403782187203271,0.012182731314370797,0.017951949645999842,0.00462158218563883,0.017979352060629613,0.005200117400381744
0.0330517,0.017484857587123266,0.018684779246657547,0.005488054050805947,0.012168265369409209,0.018222805685331665,0.0047849971621199226,0.018135902988133154,0.005326553980819033
0.0335172,0.017580876933347967,0.018889971986474186,0.005572187848384638,0.012152561887443757,0.018495411593817835,0.004949780147312494,0.01828810590181054,0.0054540353320404605
0.0339828,0.017673346750824787,0.01909507971050679,0.005656177700599113,0.012135631700023594,0.01876975096886712,0.005115921821688024,0.01843595827137755,0.005582552290735863
0.0344483,0.01776227186877381,0.019300075578755453,0.005740017726788653,0.012117485966379151,0.01904580689396998,0.005283412513073295,0.018579458673446222,0.005712095388405863
0.0349138,0.017847658029485167,0.019504932590309595,0.005823702044362073,0.012098136167750557,0.01932356193472916,0.005452242195624738,0.0187186067884985,0.00584265485059686
0.0353793,0.017929511881328766,0.019709623587063442,0.005907224768187513,0.012077594101610396,0.019602998134972533,0.005622400488906045,0.018853403397490594,0.005974220596218179
0.0358448,0.01800784097144968,0.019914121257535895,0.005990580009983716,0.012055871875785322,0.019884097012950654,0.005793876657070974,0.01898385037809187,0.006106782236942823
0.0363103,0.0180826537381585,0.02011839814079646,0.006073761877714548,0.012032981902480984,0.020166839557621496,0.005966659608153229,0.019109950700562133,0.00624032907669325
0.0367759,0.01815395950302581,0.020322426630498817,0.006156764474988416,0.012008936892214812,0.0204512062250248,0.006140737893465248,0.019231708423271033,0.006374850111213548
0.0372414,0.018221768462689737,0.0205261789790235,0.006239581900464237,0.01198374984766117,0.02073717693474862,0.006316099707107707,0.019349128687863343,0.006510334027729379
0.0377069,0.018286091680385447,0.020729627301730922,0.006322208247265593,0.011957434057413435,0.021024731066490627,0.006492732885591481,0.019462217714073714,0.006646769204697003
0.0381724,0.018346941077205255,0.02093274358132602,0.0064046376024046526,0.011930003089667582,0.02131384745671691,0.006670624907573781,0.01957098279419455,0.006784143711642646
0.0386379,0.018404329423097904,0.021135499672335474,0.006486864046217432,0.01190147078583183,0.021604504395421168,0.0068497628937100995,0.019675432287200558,0.006922445309093513
0.0391034,0.018458270327615413,0.021337867305698473,0.006568881651811928,0.011871851254066883,0.021896679622987518,0.0070301336066236125,0.019775575612533645,0.0070616614486016934
0.039569,0.018508778230415805,0.021539818093471746,0.006650684484530673,0.011841158862761393,0.022190350327160484,0.007211723450993618,0.019871423243552153,0.007201779272862258
0.0400345,0.01855586839152992,0.021741323533649534,0.00673226660142923,0.011809408233947058,0.02248549314012603,0.007394518473764601,0.019962986700648694,0.007342785615926801
0.0405,0.018599556881400393,0.0219423550150989,0.00681362205077212,0.011776614236657853,0.022782084135708057,0.0075785043644774975,0.020050278544041233,0.007484667003513686
0.0409655,0.01863986057070098,0.022142883822610624,0.0068947448715476495,0.011742791980237689,0.023080098826684863,0.0077636664557246765,0.020133312366242398,0.007627409653416216
0.041431,0.018676797119944223,0.02234288114206578,0.006975629093003125,0.0117079568076008,0.023379512162230432,0.007949989723730155,0.02021210278421226,0.007770999476009919
0.0418966,0.018710384968885527,0.022542318065717912,0.007056268734201873,0.011672124288448962,0.02368029852548536,0.008137458789056447,0.020286665431199967,0.00791542207486013
0.0423621,0.018740643325731682,0.02274116559759042,0.007136657803603507,0.011635310212449644,0.023982431731262726,0.008326057917439443,0.02035701694827962,0.008060662747431035
0.0428276,0.018767592156161767,0.0229393946589887,0.007216790298668813,0.011597530582379095,0.024285885023894394,0.008515771020752648,0.020423174975585847,0.008206706485897358
0.0432931,0.01879125217216831,0.02313697609412641,0.007296660205490617,0.011558801607234274,0.02459063107522363,0.008706581658102047,0.020485158143254304,0.00835353797805997
0.0437586,0.018811644820726434,0.023333880675865,0.007376261498451956,0.011519139695317496,0.024896641982750364,0.008898473037052844,0.02054298606207237,0.008501141608366715
0.0442241,0.01882879227229866,0.0235300791115655,0.007455588139912871,0.011478561447297649,0.025203889267935604,0.009091428014989238,0.020596679313845123,0.008649501459039843
0.0446897,0.018842717409182832,0.023725542049051647,0.007534634079927123,0.011437083649251775,0.02551234387467186,0.009285429100608382,0.020646259441481647,0.00879860131131138
0.0451552,0.01885344381371054,0.023920240082683203,0.007613393255990158,0.011394723265690743,0.025821976167926353,0.00948045845554964,0.020691748938806757,0.008948424646767808
0.0456207,0.01886099575630347,0.0241141437595382,0.007691859592819628,0.011351497432572676,0.02613275593256393,0.009676497896160192,0.020733171240103182,0.009098954648805339
0.0460862,0.01886539818339484,0.024307223585703003,0.00777002700216979,0.011307423450307746,0.026444652372356395,0.009873528895398016,0.02077055070938922,0.009250174204197046
0.0465517,0.018866676705223216,0.024499450032668884,0.007847889382681071,0.011262518776757902,0.026757634109184907,0.01007153258487317,0.02080391262943686,0.00940206590477304
0.0470172,0.018864857583505746,0.02469079354383383,0.00792544061976608,0.011216801020235005,0.027071669182441888,0.010270489757028309,0.020833283190535363,0.009554612049214817
0.0474828,0.01885996771899794,0.0248812245411083,0.008002674585533316,0.011170287932500892,0.027386725048638847,0.01047038086745924,0.020858689479005186,0.009707794644964853
0.0479483,0.01885203463894677,0.025070713431623533,0.008079585138749795,0.011122997401772782,0.027702768581226327,0.010671186037376318,0.020880159465467233,0.009861595410252515
0.0484138,0.01884108648444397,0.02525923061454107,0.008156166124843753,0.011074947445737454,0.028019766070632116,0.010872885056207381,0.020897721992872258,0.01001599577623727
0.0488793,0.01882715199768615,0.02544674648796207,0.008232411375948573,0.011026156204577545,0.028337683224523666,0.011075457384342884,0.020911406764295606,0.01017097688927019
0.0493448,0.018810260509148448,0.025633231455934897,0.008308314710988989,0.01097664193401329,0.028656485168300598,0.011278882156023818,0.020921244330502624,0.01032651961327472
0.0498103,0.018790441924678252,0.02581865593555941,0.008383869935810568,0.01092642299836296,0.028976136445822937,0.011483138182372862,0.020927266077290584,0.010482604532247683
0.0502759,0.01876772671251548,0.026002990364186268,0.008459070843353416,0.010875517863625169,0.029296601020380838,0.011688203954569248,0.020929504212613574,0.010639211952881474
0.0507414,0.018742145890245872,0.02618620520670946,0.008533911213870933,0.010823945090586234,0.029617842275911428,0.011894057647167578,0.020927991753497428,0.010796321907308415
0.0512069,0.018713731011693657,0.026368270962950056,0.008608384815194487,0.010771723327955595,0.02993982301846858,0.012100677121560854,0.020922762512752192,0.01095391415596817
0.0516724,0.01868251415375991,0.02654915817512915,0.00868248540304471,0.010718871305532316,0.030262505477951403,0.012308039929587851,0.020913851085490046,0.011111968190599172
0.0521379,0.018648527903212954,0.026728837435427664,0.008756206721390138,0.010665407827405531,0.030585851310097206,0.012516123317284874,0.020901292835456674,0.011270463237354951
0.0526034,0.018611805343436958,0.02690727939363057,0.008829542502853779,0.010611351765191707,0.03090982159874483,0.012724904228781824,0.020885123881184218,0.011429378260046216
0.053069,0.018572380041144747,0.027084454764852963,0.008902486469168209,0.010556722051311453,0.031234376858374,0.012934359310342453,0.020865381081973975,0.01158869196350944
0.0535345,0.01853028603306083,0.027260334337345322,0.008975032331679641,0.010501537672308606,0.03155947703692655,0.013144464914548579,0.020842102023717047,0.011748382797102688
0.054,0.01848555781258045,0.027434888980374956,0.009047173791901399,0.0104458176622142,0.03188508151891524,0.013355197104627967,0.02081532500456104,0.011908428958329251
0.0544655,0.01843823031641042,0.027608089652180628,0.009118904542117145,0.010389581095957867,0.032211149128826035,0.013566531658925522,0.020785089020430882,0.012068808396589683
0.054931,0.018388338911197306,0.02777990740799711,0.009190218266034125,0.010332847082829178,0.03253763813481928,0.013778444075517331,0.020751433750411732,0.012229498817062612
0.0553966,0.01833591938014864,0.027950313408146375,0.009261108639486652,0.010275634759991362,0.03286450625273542,0.013990909576967029,0.02071439954200205,0.012390477684714745
0.0558621,0.01828100790965255,0.02811927892619192,0.009331569331189976,0.010217963286049764,0.03319171065041015,0.014203903115223834,0.02067402739624468,0.012551722228440386
0.0563276,0.0182236410759013,0.02828677535715286,0.009401594003544709,0.010159851834677354,0.033519207952304064,0.014417399376661571,0.020630358952743823,0.012713209445330668
0.0567931,0.0181638558315241,0.028452774225774184,0.009471176313491833,0.010101319588299514,0.03384695424445141,0.01463137278725785,0.020583436474575483,0.012874916105072673
0.0572586,0.018101689492234473,0.02861724719484963,0.009540309913418357,0.01004238573184028,0.034174905079732275,0.014845797517912526,0.020533302833099034,0.01303681875447853
0.0577241,0.018037179723497523,0.02878016607359372,0.009608988452113658,0.009983069446532135,0.03450301548347242,0.015060647489904428,0.020480001492677185,0.013198893722144481
0.0581897,0.017970364527222216,0.028941502826059277,0.00967720557577647,0.009923389903791326,0.034831239959374705,0.015275896380485305,0.020423576495311617,0.013361117123239804
0.0586552,0.017901282228483847,0.02910122957959689,0.009744954929072496,0.009863366259160664,0.03515953249578577,0.015491517628609824,0.020364072445201352,0.013523464864425423
0.0591207,0.01782997146228177,0.029259318633352613,0.009812230156242588,0.009803017646321611,0.03548784657230145,0.015707484440800328,0.02030153449323082,0.013685912648901878
0.0595862,0.017756471160337326,0.02941574246680023,0.009879024902261382,0.009742363171177442,0.03581613516671415,0.015923769797145024,0.02023600832139454,0.013848435981586214
0.0600517,0.01768082053793689,0.02957047374830433,0.00994533281404619,0.009681421906009116,0.03614435076230503,0.016140346457428092,0.02016754012716508,0.014011010174417237
0.0605172,0.017603059080824757,0.029723485343710512,0.010011147541715903,0.009620212883705532,0.03647244535548372,0.01635718696739014,0.020096176607811034,0.014173610351788468
0.0609828,0.017523226532150535,0.029874750324958753,0.010076462739899553,0.009558755092069712,0.036800370463777834,0.01657426366511732,0.020021964944671542,0.01433621145610804
0.0614483,0.01744136287947563,0.030024241978716282,0.01014127206909413,0.009497067468202437,0.037128077134174424,0.016791548687557376,0.019944952787393912,0.014498788253484616
0.0619138,0.017357508341843235,0.030171933815025923,0.01020556919707118,0.009435168892964856,0.03745551595181511,0.017009013977160783,0.01986518823814062,0.014661315339538333
0.0623793,0.017271703356916156,0.030317799575965934,0.010269347800331627,0.009373078185521513,0.037782637049046365,0.0172266312886452,0.019782719835772063,0.014823767145335646
0.0628448,0.01718398856818662,0.030461813244317258,0.010332601565608232,0.009310814097965204,0.03810939011482614,0.01744437219588126,0.019697596540011235,0.014986117943446845
0.0633103,0.01709440481226217,0.03060394905223381,0.01039532419141504,0.009248395310025014,0.038435724404487774,0.017662208098897837,0.0196098677155965,0.015148341854124912
0.0637759,0.017002993106231504,0.030744181489911475,0.010457509389643118,0.00918584042385883,0.03876158874986188,0.017880110231004814,0.019519583116428478,0.015310412851604338
0.0642414,0.01690979463511402,0.03088248531425137,0.010519150887201864,0.009123167958931545,0.03908693156975657,0.018098049666031287,0.01942679286971705,0.015472304770518449
0.0647069,0.01681485073939673,0.031018835557513055,0.010580242427705104,0.009060396346980115,0.0394117008807962,0.018315997325677045,0.019331547460134206,0.015633991312433773
0.0651724,0.016718202902661992,0.031153207535953624,0.010640777773201285,0.008997543927066547,0.039735844308618484,0.018533923986975055,0.019233897713978498,0.015795446052499853
0.0656379,0.016619892739309396,0.031285576858448814,0.010700750705946921,0.008934628940719867,0.040059309099429403,0.01875180028986255,0.019133894783356618,0.015956642446212872
0.0661034,0.01651996198237499,0.03141591943509264,0.010760155030222542,0.008871669527168016,0.04038204213191527,0.01896959674485818,0.019031590130387566,0.016117553836291345
0.066569,0.016418452471450906,0.031544211485772286,0.010818984574190314,0.008808683718660622,0.040703989929510825,0.019187283740842685,0.018927035511434723,0.016278153459662034
0.0670345,0.01631540614070829,0.03167042954871517,0.010877233191792445,0.008745689435883478,0.04102509867302191,0.019404831552940392,0.018820282961371042,0.016438414454554247
0.0675,0.016210865007026336,0.03179455048900546,0.010934894764689458,0.008682704483465557,0.04134531421360111,0.01962221035049891,0.01871138477788254,0.016598309867700497
0.0679655,0.01610487115823005,0.03191655150706726,0.010991963204237272,0.008619746545579312,0.04166458208607428,0.01983939020516429,0.01860039350581509,0.016757812661641683
0.068431,0.0159974667414393,0.032036410147111935,0.011048432453502054,0.00855683318163493,0.04198284752261563,0.02005634109904907,0.018487361921569564,0.016916895722134697
0.0688966,0.015888693951531505,0.03215410430554705,0.011104296489311723,0.00849398182206917,0.042300055466768745,0.020273032932990497,0.018372343017550186,0.01707553186566052
0.0693621,0.01577859501972024,0.03226961223934427,0.011159549324342847,0.008431209764229342,0.04261615058781055,0.020489435534896322,0.018255389986671044,0.017233693847030766
0.0698276,0.015667212202251844,0.03238291257436368,0.01121418500924181,0.008368534168352886,0.042931077295455,0.020705518668175472,0.01813655620692552,0.017391354367090557
0.0702931,0.015554587769222084,0.032493984313631735,0.011268197634778895,0.008305972053642953,0.04324477975489281,0.020921252040250977,0.018015895226023423,0.017548486080515624
0.0707586,0.015440763993514673,0.03260280684556983,0.011321581334033963,0.00824354029444031,0.04355720190216321,0.02113660531115232,0.017893460746100456,0.01770506160370145
0.0712241,0.0153257831398634,0.03270935995217043,0.011374330284612275,0.00818125561649184,0.04386828745985336,0.02135154810218436,0.017769306608504603,0.017861053522742306
0.0716897,0.0152096874540395,0.03281362381711736,0.01142643871088895,0.008119134593315813,0.044177979953120734,0.021566050004669914,0.017643486778663887,0.018016434401497822
0.0721552,0.01509251915216581,0.032915579033846676,0.011477900886280428,0.008057193642664029,0.04448622272603337,0.02178008058876281,0.017516055331039924,0.01817117678974472
0.0726207,0.014974320410159088,0.033015206613544505,0.01152871113554136,0.007995449023080928,0.044792958958222565,0.021993609412328176,0.01738706643417149,0.018325253231411206
0.0730862,0.014855133353301872,0.03311248799307789,0.011578863837085193,0.00793391683055963,0.04509813168184208,0.022206606029886448,0.01725657433581232,0.018478636272891286
0.0735517,0.014735000045945048,0.03320740504285462,0.011628353425326681,0.007872612995294844,0.045401683798827794,0.02241904000161751,0.01712463334816717,0.018631298471436332
0.0740172,0.014613962481342344,0.03329994007460796,0.011677174393044552,0.007811553278532502,0.04570355809845104,0.022630880902421133,0.01699129783323015,0.01878321240362088
0.0744828,0.014492062571617805,0.03339007584910189,0.011725321293762464,0.007750753269515927,0.04600369727515899,0.022842098331029743,0.01685662218822916,0.018934350673879684
0.0749483,0.0143693421378673,0.03347779558375242,0.011772788744146301,0.0076902283825282585,0.04630204394669452,0.023052661919169347,0.016720660831180092,0.019084685923112885
0.0754138,0.014245842900395057,0.033563082960160175,0.011819571426415865,0.007629993854030835,0.046598540672488094,0.023262541340764248,0.016583468186554377,0.019234190837356016
0.0758793,0.014121606469086183,0.03364592213154946,0.011865664090768982,0.007570064739897127,0.04689312997231342,0.02347170632118099,0.016445098671063314,0.019382838156511435
0.0763448,0.013996674333916145,0.03372629773010871,0.011911061557816134,0.007510455912741815,0.0471857543451987,0.023680126646506757,0.01630560667956242,0.019530600683137632
0.0768103,0.01387108785559808,0.03380419487422724,0.01195575872102378,0.007451182059344482,0.047476356288584425,0.023887772172857247,0.016165046571078923,0.01967745129129271
0.0772759,0.013744888256368794,0.03387959917562303,0.011999750549164679,0.0073922576781673705,0.04776487831771867,0.02409461283570893,0.016023472654965426,0.019823362935428246
0.0777414,0.013618116610914265,0.03395249674635628,0.012043032088773612,0.007333697076966576,0.048051262985280216,0.024300618659250393,0.015880939177182574,0.019968308659329553
0.0782069,0.013490813837435297,0.03402287420572325,0.012085598466606978,0.007275514370495995,0.04833545290121964,0.02450575976574733,0.015737500306713437,0.0201122616050984
0.0786724,0.013363020688853984,0.0340907186870249,0.012127444892104777,0.0072177234783032795,0.04861739075280789,0.024710006384915696,0.015593210122112174,0.020255195022174096
0.0791379,0.0132347777441614,0.03415601784420474,0.01216856665985343,0.007160338122616986,0.04889701932488179,0.024913328863297564,0.015448122598189486,0.02039708227638894
0.0796034,0.013106125399906935,0.03421875985835036,0.012208959152047907,0.007103371826324086,0.049174281520275455,0.02511569767363409,0.015302291592837164,0.02053789685905394
0.080069,0.012977103861829471,0.03427893344405298,0.012248617840951524,0.007046837911036916,0.049449120380426065,0.025317083424230016,0.015155770833994003,0.0206776123960708
0.0805345,0.012847753136630597,0.03433652785561929,0.012287538291351784,0.006990749495248624,0.049721479106142226,0.025517456868304113,0.015008613906755149,0.02081620265706615
0.081,0.012718113023889872,0.03439153289313014,0.01232571616301068,0.006935119492576149,0.049991301078522836,0.02571678891331978,0.01486087424062691,0.020953641564543973
0.0814655,0.012588223108122059,0.0344439389083405,0.012363147213107828,0.006879960610089691,0.050258529880013676,0.025915050630289985,0.014712605096928856,0.021089903203052117
0.081931,0.012458122750976207,0.034493736810415274,0.012399827298674799,0.006825285346727615,0.05052310931558896,0.02611221326305066,0.01456385955634496,0.021224961828358698
0.0823966,0.012327851083576409,0.034540918071495695,0.012435752379019017,0.006771105991795698,0.05078498343404436,0.026308248237496442,0.014414690506625395,0.02135879187663413
0.0828621,0.012197446999003974,0.03458547473209129,0.012470918518135525,0.006717434623549536,0.05104409654938807,0.026503127170772658,0.014265150630440497,0.0214913679736345
0.0833276,0.012066949144920753,0.034627399406292725,0.012505321887104895,0.006664283107858928,0.05130039326231595,0.02669682188041723,0.014115292393388204,0.02162266494388202
0.0837931,0.011936395916333383,0.03466668528680112,0.012538958766475549,0.006611663096952997,0.051553818481756414,0.02688930439344636,0.013965168032156253,0.02175265781983823
0.0842586,0.011805825448498215,0.03470332614976989,0.012571825548628736,0.006559586028244748,0.05180431744647047,0.02708054695537775,0.013814829542840228,0.02188132185106563
0.0847241,0.011675275609966675,0.0347373163594554,0.012603918740124405,0.006508063123233719,0.052051835746692025,0.027270522039185188,0.013664328669418456,0.022008632513373462
0.0851897,0.011544783995770806,0.03476865087267289,0.012635234964026267,0.00645710538648534,0.05229631934579314,0.027459202354178314,0.013513716892384715,0.02213456551794344
0.0856552,0.011414387920748729,0.03479732524305428,0.012665770962204346,0.006406723604685544,0.05253771460195863,0.027646560854801407,0.013363045417539523,0.022259096820431146
0.0861207,0.011284124413009708,0.03482333562510438,0.012695523597613357,0.006356928345769171,0.052775968289854314,0.02783257074934509,0.01321236516494083,0.022382202630038907
0.0865862,0.011154030207538588,0.034846678778052045,0.012724489856545318,0.0063077299581206355,0.05301102762227301,0.02801720550856481,0.01306172675801478,0.0225038594185557
0.0870517,0.01102414173993927,0.03486735206949324,0.012752666850854737,0.006259138569845349,0.053242840271742295,0.02820043887419985,0.012911180512827147,0.022624043929359492
0.0875172,0.010894495140316924,0.03488535347882304,0.012780051820154792,0.006211164088110297,0.053471354392078015,0.028382244867386792,0.012760776427516008,0.022742733186377345
0.0879828,0.010765126227298645,0.0349006816004541,0.012806642133982932,0.00616381619855224,0.053696518639868046,0.028562597796961384,0.012610564171886081,0.02285990450299837
0.0884483,0.010636070502192339,0.03491333564681972,0.012832435293934361,0.006117104364751922,0.053918282195870325,0.02874147226764302,0.012460593077165034,0.02297553549093436
0.0889138,0.01050736314328361,0.03492331545115971,0.012857428935761996,0.006071037827772694,0.054136594786309646,0.028918843188096555,0.012310912125922058,0.023089604069023006
0.0893793,0.010379039000270469,0.03493062147008794,0.01288162083144139,0.006025625605761946,0.05435140670405754,0.02909468577886662,0.01216156994214878,0.023202088471968172
0.0898448,0.010251132588835761,0.03493525478594055,0.012905008891199133,0.005980876493613776,0.054562668829679646,0.02926897558017993,0.012012614781502607,0.023312967259011667
0.0903103,0.010123678085357132,0.034937217108903997,0.012927591165503275,0.005936799062691306,0.054770332652334976,0.029441688459611856,0.011864094521712505,0.023422219322530784
0.0907759,0.009996709321754454,0.03493651077892245,0.012949365847014222,0.005893401660607149,0.05497435029051162,0.02961280061961353,0.011716056653147188,0.02352982389655564
0.0912414,0.009870259780474564,0.034933138767383916,0.01297033127249462,0.005850692411060571,0.055174674512583705,0.029782288604896116,0.01156854826954573,0.023635760565200357
0.0917069,0.009744362589613127,0.03492710467858453,0.01299048592467666,0.005808679213729928,0.055371258757174774,0.029950129309668876,0.011421616058910594,0.023740009271001943
0.0921724,0.009619050518173404,0.034918412750970525,0.013009828434085253,0.005767369744219041,0.05556405715331319,0.030116299984727677,0.011275306294563142,0.023842550323160898
0.0926379,0.009494355971461607,0.03490706785815724,0.01302835758081556,0.005726771454056209,0.0557530245403662,0.03028077824439081,0.011129664826361584,0.023943364405677497
0.0931034,0.009370310986618485,0.03489307550972439,0.013046072296263258,0.005686891570744544,0.05593811648774007,0.03044354207327914,0.010984737072081464,0.02404243258537763
0.093569,0.009246947228286718,0.03487644185178688,0.013062971664806196,0.005647737097862339,0.05611928931433423,0.03060456983293758,0.01084056800895859,0.02413973631982206
0.0940345,0.009124295984413633,0.03485717366734014,0.013079054925436078,0.005609314815212138,0.056296500107738026,0.030763840268295196,0.010697202165394382,0.024235257465092894
0.0945,0.009002388162188658,0.03483527837637887,0.013094321473339054,0.005571631279017164,0.05646970674315932,0.030921332513961033,0.010554683612823506,0.02432897828345096
0.0949655,0.008881254284114898,0.03481076403578789,0.01310877086142419,0.0055346928221637354,0.05663886790207501,0.031077026100352942,0.01041305595774367,0.024420881450857843
0.095431,0.008760924484214151,0.034783639339003934,0.013122402801798876,0.005498505554488257,0.056803943090594354,0.031230900959656534,0.010272362333907398,0.02451095006435624
0.0958966,0.008641428504364588,0.03475391361544722,0.013135217167190271,0.0054630753631073675,0.05696489265752647,0.03138293743161172,0.010132645394675534,0.024599167649302464
0.0963621,0.008522795690770284,0.034721596829721674,0.013147213992311911,0.005428407912789779,0.05712167781214355,0.031533116269124604,0.009993947305532167,0.024685518166444737
0.0968276,0.008405054990561801,0.034686699580582986,0.013158393475174647,0.005394508646368357,0.057274260641631866,0.03168141864370303,0.009856309736760693,0.02476998601884106
0.0972931,0.008288234948526976,0.03464923309967356,0.01316875597834118,0.005361382785190957,0.057422604128222796,0.03182782615071454,0.009719773856280681,0.024852556058610586
0.0977586,0.008172363703971177,0.03460920925002357,0.013178302030123476,0.005329035329608525,0.05756667216599669,0.031972320814466125,0.009584380322645246,0.024933213593512485
0.0982241,0.008057468987706248,0.03456664052431711,0.01318703232572244,0.005297471059498999,0.057706429577352766,0.03211488509310523,0.009450169278198656,0.025011944393346558
0.0986897,0.00794357811916746,0.03452154004292254,0.013194947728309307,0.005266694534825606,0.05784184212913856,0.03225550188334156,0.009317180342393974,0.025088734696169887
0.0991552,0.007830718003657778,0.03447392155168568,0.013202049270048359,0.0052367100962281265,0.05797287654843268,0.03239415452498927,0.009185452605270478,0.025163571214323745
0.0996207,0.007718915129718783,0.03442379941948469,0.01320833815306071,0.005207521865645805,0.05809950053797491,0.03253082680532889,0.009055024621090651,0.025236441140264874
0.1000862,0.0076081955666276084,0.034371188635544885,0.013213815750329042,0.005179133746970636,0.05822168279123765,0.0326655029632885,0.008925934402136475,0.02530733215219514
0.1005517,0.007498584962019205,0.034316104806512086,0.013218483606543206,0.005151549426729819,0.05833939300713283,0.03279816769344367,0.008798219412664742,0.02537623241948345
0.1010172,0.007390108539633266,0.03425856415328251,0.013222343438886728,0.0051247723747962414,0.05845260190434824,0.03292880614983624,0.008671916563020996,0.02544313060787382
0.1014828,0.007282791097185141,0.0341985835075874,0.01322539713776444,0.005098805845125964,0.058561281235306836,0.03305740394961223,0.008547062203911713,0.025508015884473725
0.1019483,0.007176657004360007,0.03413618030833064,0.013227646767471549,0.005073652876521745,0.058665403799742895,0.033183947176479635,0.008423692120834247,0.025570877922517336
0.1024138,0.007071730200929587,0.034071372597677764,0.013229094566804761,0.0050493162934217625,0.058764943457888394,0.03330842238398727,0.008301841528664016,0.025631706905898662
0.1028793,0.0069680341949906474,0.03400417901689502,0.01322974294961619,0.005025798706712786,0.058859875143263636,0.033430816598626074,0.008181545066398323,0.02569049353347015
0.1033448,0.006865592061324419,0.03393461880193754,0.013229594505310848,0.005003102514567132,0.05895017487506638,0.033551117322754495,0.008062836792056166,0.025747229023102648
0.1038103,0.0067644264398761455,0.03386271177878602,0.013228651999288544,0.004981229903302827,0.05903581977015439,0.033669312537349456,0.007945750177733376,0.025801905115502986
0.1042759,0.006664559534353813,0.033788478358531826,0.01322691837333095,0.004960182848266478,0.05911678805461604,0.033785390704584486,0.007830318104812394,0.025854514077785662
0.1047414,0.006566013110945131,0.033711939532210765,0.01322439674593452,0.0049399631147383685,0.05919305907492393,0.03389934077023629,0.0077165728593260536,0.02590504870679573
0.1052069,0.006468808497151754,0.03363311686538651,0.013221090412589846,0.004920572258859347,0.05926461330866607,0.034011152165921,0.007604546127474787,0.025953502332179943
0.1056724,0.006372966580739707,0.03355203249248526,0.013217002846007984,0.004902011628579086,0.059331432374848926,0.034120814811161304,0.007494268991296702,0.02599986881920347
0.1061379,0.00627850780880487,0.03346870911088359,0.013212137696294255,0.0048842823646252686,0.05939349904376641,0.03422831911528564,0.007385771924490053,0.02604414257130941
0.1066034,0.0061854521869524216,0.03338316997475236,0.013206498791069865,0.004867385401493286,0.05945079724642928,0.03433365597916093,0.007279084788387647,0.026086318532418364
0.107069,0.006093819278589005,0.033295438888659816,0.013200090135541782,0.004851321468455994,0.05950331208354912,0.03443681679676025,0.007174236828082702,0.026126392188965408
0.1075345,0.006003628204326396,0.03320554020093759,0.013192915912521176,0.0048360910905930615,0.05955102983407139,0.03453779345656732,0.007071256668705699,0.02616435957167177
0.108,0.005914897641495379,0.03311349879681379,0.013184980482390618,0.004821694589839414,0.059593937963251825,0.03463657834282001,0.006970172311851714,0.026200217257048734
0.1084655,0.005827645823768511,0.03301934009131746,0.013176288383020287,0.004808132086052267,0.05963202513027033,0.03473316433659543,0.006871011132157766,0.026233962368631594
0.108931,0.005741890540890407,0.03292309002195939,0.013166844329633349,0.004795403498096216,0.05966528119537635,0.034827544816739366,0.0067737998740297215,0.02626559257794178
0.1093966,0.005657649138514124,0.032824775041193854,0.013156653214620633,0.004783508544945855,0.05969369722655972,0.03491971366064302,0.00667856464851828,0.026295106105175433
0.1098621,0.0055749385181422285,0.032724422108666905,0.01314572010730475,0.004772446746805442,0.059717265505740934,0.035009665244869724,0.0065853309303436,0.02632250171961703
0.1103276,0.0054937751371710464,0.03262205868325615,0.013134050253653813,0.004762217426245161,0.05973597953447524,0.03509739444563443,0.00649412355506807,0.026347778739776704
0.1107931,0.005414175009036594,0.03251771271490751,0.013121649075944848,0.004752819709353591,0.05974983403916497,0.03518289663913819,0.006404966716416769,0.026370937033250223
0.1112586,0.005336153703460679,0.03241141263627441,0.013108522172376893,0.004744252526906069,0.05975882497577475,0.035266167701760116,0.006317883963745117,0.02639197701630093
0.1117241,0.005259726346795621,0.032303187354164445,0.013094675316633735,0.004736514615548691,0.05976294953404503,0.03534720401010878,0.006232898199653212,0.02641089965316321
0.1121897,0.005184907622466023,0.03219306624079896,0.013080114457396154,0.004729604518997774,0.05976220614119987,0.03542600244093511,0.006150031677746301,0.026427706455067396
0.1126552,0.005111711771506011,0.032081079124890784,0.013064845717803452,0.004723520589254662,0.0597565944651462,0.03550256037090865,0.00606930600054083,0.026442399478986044
0.1131207,0.0050401525931903675,0.031967256282545604,0.01304887539486398,0.004718260987835839,0.05974611541716345,0.03557687567625891,0.005990742117515433,0.026454981326101388
0.1135862,0.004970243445758025,0.03185162842799285,0.013032209958814307,0.004713823687018386,0.059730771154083324,0.03564894673228356,0.005914360323306247,0.026465455139993894
0.1140517,0.004901997247226399,0.03173422670415215,0.013014856052426584,0.004710206471100879,0.05971056507996083,0.03571877241272503,0.005840180256045899,0.026473824604551666
0.1145172,0.004835426476295139,0.031615082673041854,0.012996820490263664,0.004707406937679943,0.059685501847237976,0.03578635208901686,0.005768220895845496,0.026480093941600537
0.1149828,0.004770543173337928,0.031494228306036376,0.01297811025788152,0.004705422498942723,0.05965558735740186,0.03585168562940114,0.005698500563418927,0.026484267908255223
0.1154483,0.004707358941481013,0.03137169597397929,0.012958732510978574,0.004704250382975628,0.05962082876113868,0.03591477339791808,0.005631036918848805,0.02648635179399236
0.1159138,0.00464588494776723,0.031247518437159318,0.012938694574491616,0.0047038876350897416,0.059581234457985084,0.035975616253268866,0.0055658469604933335,0.026486351417447134
0.1163793,0.004586131924404255,0.03112172883515629,0.012918003941637998,0.0047043311191633476,0.05953681409547786,0.03603421554755316,0.005502947024033377,0.026484273122935914
0.1168448,0.004528110170095874,0.03099436067656416,0.012896668272903967,0.004705577519002026,0.05948757856780308,0.036090573124882654,0.005442352781659,0.026480123776707908
0.1173103,0.004471829551454991,0.030865447828598055,0.012874695394979105,0.004707623339716759,0.05943354001394581,0.03614469131987232,0.005384079241394721,0.02647391076292929
0.1177759,0.004417299504497101,0.030735024506592035,0.012852093299636953,0.0047104649091204865,0.05937471181534146,0.036196572956010774,0.005328140746562686,0.026465641979403876
0.1182414,0.004364529036212904,0.030603125263394194,0.012828870142562081,0.0047140983791435125,0.059311108593029974,0.03624622134391124,0.005274550975382942,0.026455325833035122
0.1187069,0.004313526726218704,0.030469784978665364,0.012805034242123899,0.004718519727268153,0.05924274620431386,0.03629364027944435,0.0052233229407099456,0.02644297123503493
0.1191724,0.0042643007284832056,0.03033503884808746,0.012780594078097555,0.004723724757982976,0.059169641738920545,0.03633883404175385,0.005174468989904411,0.026428587595885518
0.1196379,0.004216858773129312,0.030198922372487273,0.012755558290332234,0.004729709104256956,0.05909181351466974,0.03638180739115651,0.005128000804839589,0.026412184820061326
0.1201034,0.004171208168309461,0.030061471346881277,0.012729935677367155,0.004736468229033827,0.05900928107264611,0.03642256556692783,0.005083929402041,0.02639377330051826
0.120569,0.004127355802153043,0.029922721849446804,0.01270373519499558,0.004743997426746927,0.058922065171878146,0.03646111428497566,0.005042265132958631,0.026373363912957647
0.1210345,0.004085308144784394,0.02978271023042485,0.012676965954777221,0.004752291824854726,0.058830187783524675,0.03649745973540441,0.005003017684370572,0.02635096800987256
0.1215,0.004045071250409835,0.029641473100959638,0.012649637222499593,0.004761346385397269,0.05873367208457148,0.03653160857997266,0.004966196078917079,0.026326597414383833
0.1219655,0.004006650759472191,0.029499047321880075,0.012621758416589114,0.004771155906573683,0.058632542451041325,0.036563567949447325,0.004931808675764025,0.026300264413873176
0.122431,0.003970051900871214,0.029355469992428346,0.01259333910647297,0.00478171502434091,0.05852682445072105,0.036593345440857496,0.004899863171394748,0.02627198175342071
0.1228966,0.003935279494248308,0.02921077843894096,0.012564389010892943,0.004793018214033781,0.058416544835410096,0.036620949114650865,0.0048703666005292835,0.02624176262905395
0.1233621,0.0039023379523339423,0.029065010203487677,0.012534917996172502,0.004805059792006545,0.058301731532694495,0.0366463874917555,0.0048433253371699785,0.026209620680815237
0.1238276,0.0038712312833561286,0.028918203032473794,0.012504936074438472,0.004817833917295961,0.05818241363725063,0.036669669550549684,0.0048187450957725125,0.02617556998565458
0.1242931,0.0038419630935083633,0.028770394865211463,0.012474453401798589,0.004831334593306035,0.05805862140168348,0.036690804723742095,0.004796630932541359,0.02613962505015462
0.1247586,0.0038145365894754466,0.028621623822465723,0.01244348027647614,0.00484555566951447,0.05793038622690443,0.036709802895164595,0.004776987246848768,0.026101800803094433
0.1252241,0.003788954581015639,0.028471928194980966,0.012412027136902919,0.004860490843200888,0.05779774065205447,0.03672667439647956,0.004759817782776432,0.026062112587858836
0.1256897,0.0037652194835976487,0.02832134643199356,0.012380104559771642,0.004876133661196805,0.0576607183439789,0.03674143000380352,0.0047451256307790455,0.026020576154699788
0.1261552,0.0037433333210909986,0.02816991712973632,0.012347723258048893,0.0048924775216573685,0.057519354086260244,0.03675408093424855,0.004732913229469058,0.025977207652856583
0.1266207,0.003723297728508405,0.028017679019940504,0.012314894078949642,0.004909515675854788,0.05737368376781583,0.036764638842382694,0.004723182367521934,0.025932023622541586
0.1270862,0.003705113954798884,0.027864670958340863,0.012281628001874266,0.0049272412299934225,0.0572237443710667,0.03677311581661047,0.004715934185701275,0.025885040986798186
0.1275517,0.003688782865690365,0.02771093191318931,0.012247936136309027,0.004945647147046472,0.05706957395968408,0.03677952437547421,0.0047111691790031615,0.025836277043237613
0.1280172,0.003674304946580672,0.027556500953782596,0.012213829719690789,0.004964726248614202,0.056911211665919885,0.03678387746387676,0.004708887198919034,0.025785749455661172
0.1284828,0.0036616803054757736,0.027401417239009383,0.012179320115236732,0.004984471216803654,0.05674869767752729,0.036786188449225855,0.004709087455816467,0.025733476245574264
0.1289483,0.0036509086759742276,0.02724572000592199,0.012144418809739783,0.005004874596129783,0.05658207322427768,0.036786471117500004,0.004711768521437149,0.02567947578359839
0.1294138,0.0036419894202967375,0.027089448558338163,0.01210913741133033,0.005025928795437957,0.05641138056408002,0.03678473966923573,0.0047169283315113865,0.025623766780787212
0.1298793,0.003634921532359756,0.02693264225547807,0.012073487647204818,0.005047626089847738,0.0562366629687092,0.036781008715435694,0.00472456418848843,0.025566368279852356
0.1303448,0.003629703640892041,0.02677534050064158,0.012037481361321623,0.005069958622717888,0.056057964709150004,0.03677529327339701,0.004734672764381947,0.02550729964630459
0.1308103,0.003626334012593069,0.026617582729930818,0.012001130512064629,0.005092918407632492,0.05587533104056347,0.03676760876245908,0.004747250103729911,0.025446580559515836
0.1312759,0.0036248105553321843,0.026459408401022785,0.011964447169874817,0.005116497330408135,0.05568880818688318,0.0367579709996701,0.004762291626668228,0.025384231003707312
0.1317414,0.0036251308213873634,0.0263008569819966,0.011927443514850112,0.00514068715112201,0.05549844332504949,0.03674639619537101,0.004779792132117433,0.025320271258868994
0.1322069,0.0036272920107224336,0.026141967940219873,0.011890131834313679,0.0051654795061608595,0.05530428456889035,0.036732900948696,0.004799745801081844,0.025254721891615557
0.1326724,0.0036312909743015944,0.025982780731298265,0.011852524520350826,0.005190865910290599,0.05510638095265751,0.03671750224298779,0.004822146200060692,0.025187603745983972
0.1331379,0.003637124217440068,0.02582333478809232,0.01181463406731451,0.005216837758746488,0.05490478241422726,0.03670021744112622,0.004846986284570808,0.025118937934177604
0.1336034,0.0036447879031896962,0.025663669509805285,0.011776473069299504,0.0052433863293436436,0.0546995397779744,0.036681064280768325,0.004874258402780544,0.025048745827261798
0.134069,0.0036542778557583037,0.025503824251145456,0.011738054217585173,0.005270502784607721,0.05449070473732819,0.03666006086949759,0.004903954299254672,0.02497704904581553
0.1345345,0.0036655895639616178,0.025343838311566416,0.01169939029804676,0.005298178173925485,0.05427832983701876,0.03663722567987998,0.00493606511881003,0.024903869450543778
0.135,0.003678718184706564,0.025183750924588227,0.01166049418853504,0.0053264034357150295,0.05406246845502199,0.036612577544424055,0.00497058141048172,0.024829229132855114
0.1354655,0.0036936585465047094,0.02502360124720254,0.011621378856224211,0.005355169399615298,0.0538431747842112,0.03658613565044222,0.005007493131599624,0.02475315040540897
0.135931,0.0037104051530146443,0.024863428349364194,0.011582057354927785,0.005384466788694561,0.05362050381372353,0.036557919534809837,0.005046789651975065,0.02467565579263711
0.1363966,0.003728952186612053,0.02470327120357197,0.01154254282238225,0.005414286221677427,0.05339451131004944,0.03652794907861898,0.005088459758197449,0.024596768021243998
0.1368621,0.003749293511986221,0.02454316867454079,0.011502848477498199,0.005444618215189933,0.05316525379785425,0.03649624450172351,0.00513249165804076,0.024516510010690617
0.1373276,0.0037714226797617074,0.024383159508967557,0.011462987617578522,0.005475453186022215,0.05293278854054124,0.03646282635717204,0.00517887298497985,0.024434904863666597
0.1377931,0.0037953329301439074,0.024223282325392802,0.011422973615503224,0.0055067814534082195,0.05269717352056614,0.03642771552552561,0.005227590802816465,0.024351975856555342
0.1382586,0.003821017196587229,0.02406357560416011,0.011382819916880307,0.005538593241321853,0.052458467419512884,0.03639093320905654,0.005278631610414993,0.024267746429896844
0.1387241,0.003848468109484623,0.023904077677475315,0.01134254003716215,0.00557087868078897,0.05221672959794066,0.03635250092582546,0.00533198134654782,0.024182240178853013
0.1391897,0.0038776779998772252,0.02374482671956724,0.011302147558726692,0.005603627812214589,0.05197202007501198,0.036312440503633366,0.005387625394850246,0.02409548084368038
0.1396552,0.003908638903182876,0.02358586073695186,0.011261656127922726,0.005636830587724705,0.051724399507911197,0.036270774073846095,0.005445548588884805,0.024007492300214903
0.1401207,0.003941342562942323,0.023427217558801575,0.011221079452078557,0.005670476873522094,0.051473929171062555,0.036227524065088966,0.005505735217314862,0.023918298550373647
0.1405862,0.0039757804345819416,0.023268934827421265,0.011180431296473343,0.005704556452255518,0.051220670935157565,0.036182713196810046,0.005568169029187355,0.023827923712678285
0.1410517,0.004011943689191791,0.02311104998883272,0.01113972548127055,0.005739059025401772,0.05096468724600113,0.03613636447271102,0.005632833239324575,0.023736392012805314
0.1415172,0.004049823217317887,0.02295360028346903,0.011098975878413098,0.005773974215659984,0.0507060411031865,0.03608850117404498,0.005699710533824866,0.023643727774168215
0.1419828,0.00408940963276749,0.0227966227369804,0.011058196408479881,0.005809291569357589,0.05044479603860963,0.036039146852780785,0.005768783075672179,0.023549955408537007
0.1424483,0.004130693276426258,0.02264015415115292,0.011017401037503639,0.005845000558867396,0.05018101609483393,0.035988325324633835,0.005840032510454378,0.023455099406700722
0.1429138,0.004173664220086064,0.0224842310949419,0.010976603773750192,0.005881090585035084,0.04991476580331637,0.03593606066196345,0.005913439972190153,0.023359184329178283
0.1433793,0.004218312270282278,0.022328889895621293,0.01093581866445931,0.005917550979616439,0.049646110162505884,0.03588237718653698,0.005988986089264463,0.02326223479698327
0.1438448,0.004264626972139358,0.022174166630050895,0.010895059792547535,0.005954371007723622,0.04937511461582473,0.03582729946216097,0.006066650990472318,0.023164275482447733
0.1443103,0.004312597613223535,0.02202009711606299,0.010854341273273466,0.0059915398702797065,0.04910184502954362,0.0357708522871801,0.006146414311170781,0.02306533110011019
0.1447759,0.004362213227401437,0.021866716903970226,0.010813677250866096,0.0060290467064806974,0.04882636767056098,0.03571306068684542,0.006228255199539054,0.02296542639767272
0.1452414,0.004413462598703477,0.021714061268196402,0.01077308189511675,0.006066880596264267,0.04854874918409699,0.03565394990555448,0.006312152322946479,0.022864586147032077
0.1457069,0.004466334265190826,0.021562165199031903,0.010732569397935217,0.006105030562784518,0.04826905657131346,0.035593545398967016,0.006398083874428311,0.02276283513538942
0.1461724,0.004520816522824802,0.02141106339451547,0.010692153969870543,0.006143485574892189,0.04798735716687079,0.03553187282600086,0.006486027579269031,0.02266019815644338
0.1466379,0.004576897429337493,0.021260790252443942,0.010651849836596986,0.006182234549619855,0.047703718616433945,0.035468958040713386,0.006575960701692988,0.02255670000167086
0.1471034,0.004634564808102381,0.021111379862511593,0.010611671235365487,0.00622126635467181,0.047418208854139554,0.035404827084074,0.006667860051662059,0.022452365451699974
0.147569,0.00469380625200372,0.020962865998580566,0.01057163241142099,0.006260569810918491,0.047130896080036164,0.035339506175633174,0.0067617019917800185,0.022347219267779217
0.1480345,0.0047546091273034065,0.02081528211108383,0.010531747614385956,0.00630013369489536,0.046841848737509816,0.035273021705093714,0.006857462444303237,0.02224128618334698
0.1485,0.004816960577504005,0.020668661319562007,0.01049203109461042,0.006339946741306272,0.046551135490706816,0.03520540022378941,0.00695511689825735,0.0221345908957052
0.1489655,0.0048808475272066176,0.02052303640533535,0.010452497099488998,0.006379997645531381,0.046258825201965115,0.03513666843607648,0.007054640416659461,0.022027158057800825
0.149431,0.004946256685962245,0.020378439804312132,0.010413159869745366,0.006420275066139648,0.045964986909265496,0.03506685319064266,0.00715600764384546,0.02191901227011856
0.1498966,0.005013174552115312,0.02023490359993452,0.010374033635684706,0.00646076762740607,0.045669689803713415,0.034995981471738824,0.0072591928129019665,0.02181017807268834
0.1503621,0.005081587416638022,0.020092459516262998,0.010335132613414674,0.006501463921833786,0.045373003207062015,0.03492408039033803,0.0073641697532024295,0.021700679937210685
0.1508276,0.005151481366954189,0.019951138911200345,0.01029647100103544,0.006542352512681333,0.04507499654928673,0.034851177175226775,0.007470911898046873,0.021590542259303014
0.1512931,0.005222842290751247,0.01981097276985598,0.010258062974799345,0.006583421936495331,0.04477573934622161,0.034777299164033146,0.007579392292404771,0.02147978935086978
0.1517586,0.0052956558797790714,0.01967199169805151,0.010219922685240697,0.0066246607056489795,0.044475301177266904,0.03470247379419681,0.007689583600760472,0.021368445432599154
0.1522241,0.005369907633634279,0.019534225915968158,0.010182064253276314,0.006666057310886712,0.04417375166317762,0.034626728593885485,0.007801458115060586,0.021256534626588844
0.1526897,0.0054455828635286765,0.01939770525193677,0.010144501766277365,0.006707600223875382,0.04387116044394178,0.03455009117286263,0.007914987762762686,0.021144080949103337
0.1531552,0.005522666696040561,0.01926245913637083,0.010107249274113082,0.006749277899762294,0.04356759715675713,0.034472589213311075,0.008030144114984634,0.02103110830346493
0.1536207,0.00560114407684761,0.01912851659584297,0.010070320785166977,0.006791078779740391,0.043263131414114676,0.03439425046061695,0.00814689839475375,0.020917640473080548
0.1540862,0.005680999774440117,0.01899590624730523,0.01003373026232618,0.00683299129362087,0.042957832781996864,0.03431510271411863,0.00826522148535505,0.020803701114606263
0.1545517,0.005762218383813401,0.018864656292453222,0.009997491618944547,0.006875003862413431,0.04265177075819805,0.034235173817825065,0.008385083938777698,0.020689313751251305
0.1550172,0.005844784330138149,0.018734794512234202,0.009961618714780247,0.006917104900914341,0.042345014750774575,0.034154491651108114,0.008506455984258775,0.020574501766223195
0.1554828,0.00592868187240751,0.018606348261498876,0.009926125351908526,0.00695928282030247,0.04203763405663144,0.034073084119373945,0.008629307536923477,0.020459288396315483
0.1559483,0.006013895107059712,0.01847934446379664,0.00989102527061042,0.007001526030743395,0.041729697840252745,0.03399097914471869,0.008753608206520802,0.02034369672563936
0.1564138,0.006100407971574966,0.018353809606313845,0.009856332145238242,0.007043822944001652,0.04142127511258252,0.03390820465657388,0.00887932730625375,0.02022774967950022
0.1568793,0.006188204248045423,0.018229769734954517,0.009822059580058653,0.007086161976061188,0.04111243471006284,0.033824788582347345,0.009006433861703033,0.020111470018420192
0.1573448,0.006277267566717012,0.01810725044956288,0.009788221105074265,0.007128531549754026,0.04080324527383613,0.03374075883806547,0.009134896619843276,0.01999488033230733
0.1578103,0.006367581409502097,0.017986276899286897,0.009754830171824698,0.007170920097397094,0.040493775229118636,0.03365614331902239,0.009264684058150598,0.019878003034772117
0.1582759,0.006459129113462007,0.017866873778081983,0.009721900149168123,0.007213316063437181,0.040184092764751884,0.033570969890441824,0.009395764393800472,0.019760860357591732
0.1587414,0.006551893874258725,0.01774906532035385,0.009689444319044355,0.007255707907103916,0.03987426581293915,0.033485266378157005,0.00952810559295467,0.019643474345322452
0.1592069,0.0066458587495751694,0.01763287529673951,0.00965747587222061,0.007298084105070618,0.03956436202917378,0.0333990605593142,0.009661675380136106,0.019525866850060573
0.1596724,0.006741006662503726,0.017518327010025245,0.009626007904021109,0.007340433154122848,0.039254448772366335,0.033312380153105066,0.009796441247690376,0.019408059526352175
0.1601379,0.00683732040490281,0.017405443291200376,0.00959505341004179,0.007382743573834441,0.03894459308517748,0.03322525281153324,0.009932370465332734,0.01929007382625217
0.1606034,0.0069347826407214,0.017294246495645652,0.009564625281851449,0.00742500390925072,0.038634861674563384,0.03313770611022036,0.010069430089779228,0.01917193099453311
0.161069,0.007033375909291571,0.01718475849945492,0.009534736302680638,0.007467202733578557,0.03832532089254044,0.03304976753925662,0.010207586974460687,0.01905365206404416
0.1615345,0.007133082628589078,0.017077000695888876,0.00950539914309975,0.007509328650882878,0.03801603671717568,0.03296146449410118,0.01034680777931814,0.018935257851220598
0.162,0.007233885098462066,0.01697099399195958,0.009476626356687766,0.007551370298789159,0.037707074733809014,0.03287282426653749,0.010487058980678234,0.018816768951744178
0.1624655,0.007335765503828044,0.016866758805144526,0.009448430375693196,0.007593316351191397,0.03739850011651318,0.03278387403568885,0.010628306881207068,0.018698205736354553
0.162931,0.007438705917839239,0.016764315060229015,0.009420823506688795,0.007635155520964968,0.03709037760979707,0.03269464085909931,0.010770517619940884,0.018579588346811813
0.1633966,0.007542688305016603,0.016663682186275727,0.009393817926221647,0.007676876562683734,0.036782771510557595,0.03260515166388497,0.010913657182391916,0.018460936692010134
0.1638621,0.007647694524352778,0.0165648791137203,0.00936742567646032,0.007718468275340746,0.03647574565028526,0.03251543323796056,0.011057691410727665,0.01834227044424235
0.1643276,0.007753706332384482,0.016467924271591838,0.009341658660840923,0.007759919505071779,0.03616936337752814,0.03242551222134592,0.011202586014021824,0.018223609035615332
0.1647931,0.007860705386234804,0.01637283558485726,0.009316528639714015,0.007801219147880935,0.035863687540618853,0.03233541509755687,0.011348306578574904,0.01810497165461595
0.1652586,0.007968673246626045,0.01627963047188851,0.009292047225994532,0.007842356152367492,0.035558780470668974,0.03224516818508485,0.01149481857830263,0.01798637724282725
0.1657241,0.008077591380863778,0.016188325842051498,0.009268225880816945,0.007883319522453152,0.03525470396483515,0.03215479762896928,0.011642087385190021,0.01786784449179461
0.1661897,0.00818744116579292,0.01609893809341581,0.009245075909198045,0.007924098320108777,0.03495151926986111,0.03206432939246692,0.01179007827980901,0.017749391840041442
0.1666552,0.00829820389072675,0.016011483110584167,0.009222608455709774,0.007964681668079687,0.03464928706589957,0.03197378924882206,0.011938756461897322,0.017631037470233965
0.1671207,0.008409860760349977,0.015925976262640536,0.009200834500164705,0.008005058752608584,0.03434806745061777,0.03188320277314175,0.012088087060996318,0.01751279930649451
0.1675862,0.008522392897597103,0.015842432401215873,0.00917976485331676,0.00804521882615516,0.03404791992359043,0.03179259533438015,0.012238035147145297,0.01739469501186263
0.1680517,0.008635781346507502,0.015760865858670405,0.009159410152579869,0.008085151210111408,0.033748903370983394,0.031701992087436084,0.012388565741629743,0.017276741985903284
0.1685172,0.008750007075058625,0.015681290446391237,0.009139780857767336,0.00812484529751171,0.03345107605053138,0.03161141796536768,0.012539643827780856,0.0171589573624611
0.1689828,0.00886505097797873,0.01560371945320411,0.009120887246854621,0.008164290555736703,0.03315449557681312,0.03152089767172776,0.012691234361823628,0.017041358007559834
0.1694483,0.008980893879540578,0.015528165643897847,0.009102739411768314,0.008203476529209965,0.032859218906827095,0.03143045567302369,0.012843302283770622,0.01692396051744594
0.1699138,0.009097516536337493,0.015454641257860127,0.00908534725420408,0.00824239284208652,0.03256530232587123,0.03134011619130503,0.012995812528358526,0.016806781216775125
0.1703793,0.009214899640043125,0.015383158007823004,0.009068720481476313,0.008281029200932138,0.03227280143372961,0.03124990319688253,0.013148730036024486,0.016689836156940835
0.1708448,0.00933302382015628,0.015313727078716595,0.009052868602402262,0.008319375397392394,0.03198177113116947,0.031159840401181662,0.013302019763919147,0.01657314111454332
0.1713103,0.009451869646732156,0.015246359126629291,0.009037800923223371,0.008357421310850384,0.031692265606751376,0.031069951249734034,0.013455646696953252,0.01645671158999818
0.1717759,0.009571417633101272,0.01518106427787288,0.009023526543566564,0.008395156911072042,0.031404338323955644,0.030980258915309797,0.013609575858874562,0.016340562806283047
0.1722414,0.009691648238577375,0.015117852128150963,0.009010054352448142,0.008432572260837887,0.031118042008627875,0.030890786291194083,0.013763772323371835,0.01622470970782105
0.1727069,0.009812541871155493,0.015056731741829131,0.008997393024322961,0.008469657518560035,0.030833428636746568,0.030801555984610537,0.0139182012252025,0.01610916695949968
0.1731724,0.009934078890201271,0.014997711651305428,0.008985551015181472,0.008506402940883243,0.030550549422515685,0.030712590310294975,0.014072827771340652,0.01599394894582349
0.1736379,0.010056239609132697,0.014940799856479713,0.008974536558697191,0.008542798885268727,0.030269454806785,0.030623911284222146,0.014227617252141845,0.015879069770199004
0.1741034,0.010179004298095215,0.014886003824320626,0.008964357662427135,0.008578835812559391,0.02999019444580081,0.03053554061748858,0.01438253505252117,0.015764543254350026
0.174569,0.010302353186631225,0.01483333048852897,0.008955022104067737,0.008614504289525036,0.02971281720028939,0.03044749971035462,0.01453754666314095,0.015650382937861484
0.1750345,0.010426266466344904,0.014782786249296452,0.008946537427768717,0.008649794991386075,0.029437371124875388,0.030359809646448414,0.014692617691604333,0.015536602077849787
0.1755,0.010550724293563307,0.014734376973158792,0.008938910940507323,0.008684698704314205,0.02916390345783707,0.030272491187134706,0.01484771387365105,0.015423213648757582
0.1759655,0.01067570679199465,0.014688107992942331,0.00893214970852531,0.008719206327908404,0.028892460611200356,0.030185564766050912,0.015002801084351458,0.01531023034227065
0.176431,0.010801194055384848,0.014643984107803385,0.008926260553830974,0.00875330887764458,0.028623088161173343,0.030099050483812874,0.015157845349294928,0.015197664567354609
0.1768966,0.01092716615017344,0.014602009583359643,0.00892125005076849,0.008786997487297186,0.02835583083892305,0.030012968102892532,0.015312812855768475,0.015085528450408977
0.1773621,0.01105360311815021,0.014562188151913041,0.008917124522656772,0.008820263411331037,0.02809073252169607,0.02992733704266933,0.01546766996392151,0.014973833835536002
0.1778276,0.011180484979113975,0.014524523012763512,0.008913890038500074,0.008853098027261579,0.027827836224284606,0.029842176374657116,0.015622383217912329,0.014862592284921627
0.1782931,0.011307791733535124,0.014489016832613019,0.008911552409772506,0.008885492837981812,0.027567184090839365,0.029757504817907846,0.015776919357031956,0.014751815079325796
0.1787586,0.011435503365223594,0.014455671746059287,0.0089101171872787,0.008917439474054045,0.027308817387030383,0.029673340734593392,0.015931245326800725,0.014641513218679248
0.1792241,0.01156359984400402,0.0144244893561786,0.008909589658092798,0.00894892969596459,0.027052776492556878,0.029589702125766327,0.01608532829003287,0.014531697422783839
0.1796897,0.011692061128399798,0.014395470735196944,0.008909974842577972,0.00897995539633945,0.02679910089400692,0.029506606627300497,0.016239135637864305,0.014422378132113384
0.1801552,0.011820867168327776,0.014368616425248752,0.008911277491488652,0.009010508602119013,0.026547829178067688,0.029424071506011982,0.016392635000738627,0.01431356550871202
0.1806207,0.011949997907805257,0.014343926439222455,0.008913502083157658,0.009040581476689655,0.026298999025086853,0.029342113655960882,0.016545794259346144,0.01420526943718696
0.1810862,0.012079433287670962,0.01432140026169214,0.00891665282077039,0.00907016632197013,0.026052647202985574,0.029260749594934243,0.016698581555510718,0.014097499525792572
0.1815517,0.012209153248321511,0.014301036849934643,0.008920733629728258,0.009099255580450563,0.02580880956152348,0.029179995461110258,0.016850965303018953,0.013990265107602684
0.1820172,0.01233913773246489,0.014282834635031756,0.008925748155103467,0.009127841837181808,0.025567521026915913,0.0290998670099038,0.017002914198386215,0.013883575241768075
0.1824828,0.012469366687892315,0.014266791523057409,0.008931699759187303,0.00915591782171288,0.025328815596803785,0.02902037961099307,0.017154397231553774,0.013777438714856224
0.1829483,0.012599820070269756,0.01425290489634995,0.008938591519133968,0.009183476409974124,0.025092726335576108,0.02894154824552713,0.017305383696511217,0.013671864042270415
0.1834138,0.01273047784595038,0.014241171614869918,0.008946426224702073,0.00921051062610377,0.02485928537004543,0.028863387503514033,0.017455843201838104,0.01356685946974557
0.1838793,0.012861319994809023,0.014231588017643874,0.00895520637609577,0.009237013644215464,0.02462852388547619,0.0287859115813891,0.017605745681158826,0.013462432974918358
0.1843448,0.012992326513099698,0.014224149924294984,0.008964934181907486,0.009262978790104364,0.024400472121965874,0.028709134279762988,0.017755061403504357,0.013358592268969455
0.1848103,0.013123477416337103,0.014218852636661167,0.008975611557164235,0.009288399542889337,0.024175159371178905,0.028633069001349164,0.01790376098357447,0.013255344798336061
0.1852759,0.013254752742202917,0.014215690940501612,0.00898724012147931,0.009313269536588878,0.02395261397343275,0.028557728749070376,0.01805181539189388,0.013152697746492973
0.1857414,0.013386132553477648,0.014214659107292521,0.008999821197311205,0.00933758256162829,0.02373286331513584,0.028483126124343602,0.018199195964855704,0.013050658035800602
0.1862069,0.013517596940998635,0.014215750896112909,0.009013355808331468,0.009361332566275813,0.023515933826576515,0.02840927332554281,0.01834587441464528,0.012949232329418496
0.1866724,0.013649126026644776,0.01421895955562123,0.009027844677903166,0.009384513658005453,0.023301850980062017,0.028336182146638793,0.0184918228390375,0.012848427033282981
0.1871379,0.013780699966348434,0.014224277826123483,0.009043288227671531,0.009407120104784327,0.023090639288406614,0.028263863976015123,0.018637013731060456,0.012748248298147571
0.1876034,0.013912298953134955,0.014231697941733418,0.009059686576268322,0.009429146336282453,0.022882322303767508,0.02819232979545933,0.018781419988518244,0.012648702021684787
0.188069,0.014043903220190163,0.014241211632625319,0.009077039538131318,0.009450586945003005,0.02267692261682715,0.02812159017932832,0.01892501492336547,0.012549793850648049
0.1885345,0.014175493043956176,0.014252810127379778,0.009095346622440327,0.00947143668733119,0.022474461856320467,0.028051655293887166,0.019067772270925962,0.012451529183092145
0.189,0.014307048747255762,0.014266484155422834,0.009114607032171025,0.009491690484499988,0.022274960688905318,0.02798253489682024,0.019209666198947997,0.012353913170650793
0.1894655,0.014438550702445438,0.014282223949558793,0.009134819663267837,0.009511343423471208,0.022078438819374484,0.027914238336913835,0.01935067131648831,0.012256950720869684
0.189931,0.014569979334597447,0.014300019248597069,0.009155983103937091,0.009530390757730538,0.021884914991207323,0.027846774553909052,0.019490762682617034,0.012160646499593385
0.1903966,0.014701315124710653,0.014319859300073411,0.00917809563406154,0.009548827907995524,0.02169440698745916,0.0277801520785238,0.019629915814935773,0.012065004933404387
0.1908621,0.014832538612950382,0.014341732863065847,0.00920115522473734,0.009566650462835731,0.0215069316319862,0.02771437903264254,0.01976810669790112,0.01197003021211258
0.1913276,0.014963630401917241,0.014365628211105704,0.009225159537934496,0.009583854179204668,0.02132250479100379,0.027649463129672237,0.019905311790946116,0.011875726291293392
0.1917931,0.015094571159944762,0.014391533135183954,0.009250105926281721,0.009600434982883262,0.02114114137497546,0.027585411675062926,0.02004150803639231,0.01178209689487291
0.1922586,0.015225341624425801,0.014419434946853117,0.009275991432976626,0.009616388968834905,0.020962855340830238,0.027522231566990938,0.02017667286714526,0.011689145517758268
0.1927241,0.015355922605167547,0.014449320481424803,0.009302812791822076,0.00963171240147216,0.02078765969450533,0.02745992929720299,0.02031078421416682,0.011596875428511576
0.1931897,0.015486294987774932,0.014481176101262927,0.009330566427389483,0.00964640171483534,0.02061556649381118,0.027398510952019117,0.020443820513717882,0.011505289672065714
0.1936552,0.015616439737062235,0.014514987699172525,0.00935924845530976,0.00966045351268315,0.020446586851615805,0.027337982213492235,0.020575760714366047,0.011414391072480289
0.1941207,0.015746337900492683,0.014550740701883988,0.009388854682692582,0.009673864568495692,0.02028073093934511,0.02727834836072207,0.02070658428375303,0.011324182235736025
0.1945862,0.015875970611645782,0.014588420073632587,0.009419380608674557,0.009686631825390342,0.020118007990795748,0.027219614271321052,0.02083627121511701,0.011234665552565856
0.1950517,0.01600531909371213,0.014628010319833063,0.009450821425096788,0.009698752395951148,0.019958426306257007,0.027161784423029606,0.020964802033565537,0.01114584320132101
0.1955172,0.016134364663015394,0.014669495490849168,0.009483172017312278,0.009710223561972708,0.01980199325693805,0.02710486289547826,0.021092157802095102,0.011057717150870325
0.1959828,0.01626308873256113,0.014712859185857973,0.00951642696512354,0.00972104277411974,0.01964871528969681,0.027048853372094034,0.02121832012735413,0.01097028916353102
0.1964483,0.01639147281561192,0.014758084556808812,0.00955058054385067,0.009731207651503882,0.019498597932066628,0.026993759142148514,0.021343271165146876,0.01088356079802913
0.1969138,0.01651949852928843,0.014805154312476643,0.009585626725530105,0.00974071598117946,0.019351645797576793,0.026939583102945055,0.021466993625676525,0.010797533412487799
0.1973793,0.016647147598195685,0.014854050722609551,0.009621559180244169,0.009749565717560141,0.019207862591362843,0.0268863277621424,0.0215894707785262,0.010712208167441645
0.1978448,0.016774401858073894,0.014904755622170049,0.009658371277581434,0.00975775498175861,0.019067251116062632,0.026833995240212027,0.02171068645737698,0.010627586028875313
0.1983103,0.016901243259473012,0.014957250415669695,0.009696056088227866,0.009765282060851395,0.01892981327799389,0.02678258727302617,0.021830625064462292,0.010543667771284463
0.1987759,0.017027653871450114,0.015011516081596501,0.009734606385688578,0.009772145407071152,0.018795550093609052,0.02673210521457339,0.02194927157475837,0.010460453980757359
0.1992414,0.017153615885288537,0.015067533176934494,0.009774014648140018,0.009778343636928715,0.018664461696223034,0.02668255003979827,0.022066611539910696,0.010377945058075353
0.1997069,0.01727911161823771,0.015125281841774717,0.009814273060412264,0.009783875530267244,0.018536547343009527,0.02663392234756181,0.02218263109189732,0.010296141221830495
0.2001724,0.017404123517272385,0.01518474180401689,0.009855373516101077,0.009788740029250875,0.018411805422261326,0.026586222363718635,0.02229731694643038,0.01021504251155853
0.2006379,0.01752863416286993,0.015245892384160934,0.009897307619809231,0.009792936237290207,0.018290233460910164,0.026539449944307274,0.022410656406097906,0.010134648790885548
0.2011034,0.01765262627280421,0.015308712500187496,0.009940066689516552,0.00979646341790708,0.01817182813230138,0.0264936045788494,0.02252263736324828,0.010054959750686442
0.201569,0.017776082705954415,0.015373180672526623,0.00998364175907806,0.009799320993541041,0.01805658526421871,0.026448685393753925,0.022633248302620014,0.009975974912253358
0.2020345,0.017898986466127077,0.015439275029113811,0.010028023580849478,0.009801508544299955,0.01794449984715428,0.026404691155821607,0.022742478303719692,0.009897693630472191
0.2025,0.018021320705889403,0.015506973310532598,0.010073202628439332,0.00980302580665726,0.01783556604281877,0.026361620275845526,0.02285031704295087,0.009820115097005245
0.2029655,0.018143068730411962,0.015576252875242932,0.010119169099586718,0.00980387267209836,0.017729777192886615,0.02631947081230282,0.02295675479549683,0.009743238343478141
0.203431,0.018264214001318686,0.015647090704894596,0.01016591291916382,0.00980404918571866,0.017627125827970942,0.02627824047513271,0.023061782436960082,0.009667062244669044
0.2038966,0.018384740140542012,0.01571946340972503,0.010213423742302132,0.009803555544775761,0.017527603676822785,0.02623792662959581,0.023165391444761485,0.009591585521698285
0.2043621,0.01850463093418096,0.015793347234040883,0.010261690957641293,0.009802392097198255,0.01743120167574896,0.0261985263002097,0.023267573899301747,0.009516806745216454
0.2048276,0.018623870336359864,0.015868718061782607,0.010310703690699372,0.00980055934005355,0.017337909978242947,0.02616003617475556,0.023368322484888102,0.00944272433858902
0.2052931,0.01874244247308536,0.015945551422171564,0.010360450807363383,0.009798057917977119,0.01724771796482291,0.02612245260835071,0.023467630490428843,0.009369336581075569
0.2057586,0.018860331646099102,0.01602382249543906,0.010410920917498767,0.009794888621565535,0.0171606142530709,0.026085771627582122,0.023565491809898517,0.009296641611001851
0.2062241,0.018977522336723698,0.016103506118636913,0.010462102378676485,0.009791052385735587,0.01707658670786722,0.026049988934696025,0.02366190094257661,0.009224637428922933
0.2066897,0.019093999209699203,0.016184576791529258,0.010513983300016355,0.009786550288051738,0.01699562245181389,0.02601509991183904,0.023756852993062603,0.009153321900775897
0.2071552,0.019209747117007573,0.016267008682565445,0.010566551546145221,0.00978138354702412,0.01691770787584115,0.025981099625346546,0.023850343671070324,0.009082692761020786
0.2076207,0.01932475110168243,0.016350775634933968,0.01061979474126848,0.00977555352037919,0.016842828649991082,0.025947982830073973,0.023942369291004642,0.009012747615768707
0.2080862,0.019438996401601467,0.01643585117269744,0.010673700273353424,0.009769061703305146,0.0167709697343723,0.025915743973767117,0.024032926771323536,0.008943483945896257
0.2085517,0.019552468453258746,0.01652220850700845,0.01072825529842287,0.009761909726674053,0.016702115390279784,0.02588437720146775,0.024122013633688613,0.008874899110145558
0.2090172,0.019665152895514154,0.016609820542406183,0.010783446744957466,0.00975409935524264,0.016636249191473888,0.025853876359951494,0.02420962800190726,0.00880699034820926
0.2094828,0.019777035573317035,0.01669865988319365,0.010839261318405019,0.009745632485833588,0.016573354035612442,0.025824235002195495,0.024295768600669693,0.008739754783799986
0.2099483,0.01988810254140101,0.016788698839895186,0.010895685505795184,0.0097365111454992,0.016513412155829875,0.025795446391873877,0.02438043475408424,0.008673189427703634
0.2104138,0.019998340067946766,0.016879909435794024,0.01095270558045777,0.009726737489669233,0.016456405132457094,0.025767503507879524,0.02446362638401432,0.008607291180816129
0.2108793,0.020107734638209574,0.016972263413549668,0.011010307606842896,0.009716313800284758,0.0164023139048759,0.02574039904887085,0.024545344008220636,0.00854205683716318
0.2113448,0.020216272958108055,0.017065732241894782,0.01106847744544114,0.009705242483919832,0.0163511187835017,0.025714125437842555,0.02462558873831208,0.008477483086902757
0.2118103,0.02032394195777069,0.017160287122411376,0.01112720075780183,0.009693526069892872,0.016302799461888156,0.025688674826719486,0.024704362277508836,0.008413566519310045
0.2122759,0.020430728795036546,0.017255898996385938,0.011186463011647507,0.009681167208369507,0.01625733502894753,0.025664039100972875,0.024781666918221264,0.008350303625744734
0.2127414,0.020536620858906635,0.01735253855174308,0.011246249486082573,0.009668168668458793,0.01621470398128031,0.025640209884258306,0.024857505539447797,0.008287690802600481
0.2132069,0.020641605772942488,0.017450176230057197,0.011306545276894023,0.009654533336304514,0.01617488423560785,0.025617178543074683,0.02493188160399524,0.00822572435423644
0.2136724,0.020745671398608577,0.0175487822336415,0.011367335301942089,0.0096402642131733,0.016137853141301655,0.025594936191443558,0.02500479915552471,0.008164400495890674
0.2141379,0.0208488058385553,0.017648326532713657,0.011428604306638581,0.009625364413541225,0.016103587493003165,0.025573473695608036,0.02507626281542641,0.008103715356575378
0.2146034,0.020950997439839338,0.01774877887263719,0.011490336869510592,0.009609837163180443,0.01607206354332788,0.02555278167875033,0.0251462777795263,0.008043664981953826
0.215069,0.02105223479707826,0.017850108781237765,0.011552517407847095,0.00959368579724739,0.016043257015647707,0.02553285052572694,0.02521484981462756,0.007984245337199018
0.2155345,0.02115250675553615,0.017952285576193328,0.011615130183425953,0.009576913758373997,0.016017143116945486,0.025513670387820382,0.025281985254889776,0.007925452309833977
0.216,0.021251802414136975,0.018055278372497284,0.011678159308318711,0.00955952459476326,0.015993696550735622,0.02549523118750616,0.02534769099804846,0.007867281712553667
0.2164655,0.02135011112840238,0.018159056089993707,0.011741588750770488,0.009541521958290469,0.0159728915300447,0.025477522623233828,0.025411974501477565,0.007809729286028434
0.216931,0.021447422513310423,0.018263587460983687,0.011805402341152182,0.009522909602611264,0.015954701790446005,0.025460534174220905,0.02547484377809736,0.007752790701688838
0.2173966,0.021543726446071762,0.018368841037901935,0.011869583777982126,0.009503691381277692,0.015939100603141874,0.02544425510525857,0.02553630739212998,0.007696461564491662
0.2178621,0.02163901306881986,0.01847478520106274,0.011934116634014285,0.009483871245863319,0.01592606078808767,0.02542867447152829,0.025596374454704716,0.007640737415666895
0.2183276,0.021733272791211844,0.018581388166474363,0.011998984362389994,0.009463453244098436,0.015915554727151282,0.025413781123428795,0.02565505461931514,0.007585613735445367
0.2187931,0.02182649629293685,0.018688617993721034,0.012064170302850214,0.009442441518016313,0.015907554377301892,0.025399563711413036,0.025712358077129863,0.00753108594576671
0.2192586,0.021918674526128962,0.018796442593911687,0.01212965768800522,0.0094208403021114,0.015902031283821942,0.025386010690834755,0.025768295552158916,0.0074771494129672635
0.2197241,0.02200979871768198,0.018904829737694584,0.01219542964965853,0.009398653921510283,0.015898956593536198,0.025373110326804275,0.025822878296277867,0.007423799450447492
0.2201897,0.022099860371463696,0.019013747063337007,0.0122614692251819,0.009375886790156144,0.015898301068051984,0.025360850699052966,0.025876118084111818,0.007371031321318463
0.2206552,0.022188851270427752,0.019123162084869246,0.01232775936393812,0.009352543409007418,0.015900035097004658,0.025349219706805648,0.025928027207781555,0.007318840241026912
0.2211207,0.022276763478621557,0.01923304220029205,0.012394282933748337,0.009328628364251221,0.01590412871130244,0.025338205073660094,0.025978618471514225,0.007267221379958326
0.2215862,0.022363589343089154,0.01934335469984675,0.012461022727400572,0.009304146325532121,0.01591055159636469,0.025327794352472496,0.02602790518612089,0.007216169866017495
0.2220517,0.022449321495668216,0.019454066774347283,0.012527961469196025,0.009279102044196758,0.01591927310534772,0.025317974930247737,0.026075901163343258,0.007165680787185889
0.2225172,0.02253395285468066,0.019565145523573253,0.012595081821529745,0.009253500351554813,0.015930262272352322,0.025308734033033096,0.026122620710071855,0.007115749194055173
0.2229828,0.022617476626516426,0.01967655796472317,0.012662366391502223,0.009227346157156754,0.015943487825607002,0.025300058730813927,0.026168078622437915,0.007066370102336133
0.2234483,0.022699886307110017,0.01978827104092688,0.01272979773755837,0.009200644447088811,0.015958918200621067,0.025291935942409773,0.026212290179781127,0.007017538495342217
0.2239138,0.02278117568330961,0.019900251629816186,0.01279735837615035,0.00917340028228562,0.015976521553301575,0.025284352440369307,0.02625527113849526,0.006969249326446897
0.2243793,0.022861338834138926,0.020012466552152483,0.012865030788420655,0.00914561879686094,0.01599626577302831,0.02527729485586227,0.026297037725753536,0.006921497521514015
0.2248448,0.022940370131952367,0.02012488258051008,0.012932797426901734,0.009117305196456893,0.016018118495680994,0.025270749683566643,0.026337606633115494,0.006874277981300266
0.2253103,0.02301826424348457,0.020237466448013837,0.013000640722228517,0.009088464756612135,0.01604204711661305,0.02526470328654914,0.02637699501001703,0.00682758558382898
0.2257759,0.023095016130795728,0.020350184857129458,0.013068543089860085,0.009059102821149329,0.01606801880356636,0.02525914190113698,0.026415220457145182,0.006781415186734363
0.2262414,0.02317062105211452,0.02046300448850474,0.013136486936806675,0.009029224800582322,0.016096000509521546,0.025254051641778893,0.026452301019699354,0.006735761629575424
0.2267069,0.023245074562580372,0.020575892009859834,0.013204454668358174,0.008998836170543369,0.016125958985478448,0.025249418505893306,0.0264882551805406,0.006690619736118777
0.2271724,0.02331837251488701,0.020688814084924498,0.013272428694810197,0.00896794247023069,0.016157860793161737,0.02524522837870177,0.02652310185323059,0.006645984316589594
0.2276379,0.023390511059828957,0.020801737382420166,0.013340391438183809,0.008936549300876612,0.016191672317646733,0.02524146703804583,0.026556860374961754,0.006601850169889908
0.2281034,0.02346148664675273,0.020914628585084583,0.013408325338934882,0.008904662324236503,0.016227359779900613,0.025238120159185824,0.02658955049938,0.006558212085783495
0.228569,0.023531296023914242,0.021027454398736677,0.013476212862649063,0.008872287261098646,0.016264889249234356,0.025235173319580306,0.026621192389301364,0.006515064847046537
0.2290345,0.023599936238744068,0.02114018156137925,0.013544036506718227,0.008839429889815118,0.01630422665566077,0.02523261200364499,0.02665180660932371,0.0064724032315832585
0.2295,0.02366740463802217,0.021252776852336955,0.013611778806994311,0.0088060960448537,0.016345337802154206,0.025230421607490283,0.02668141411833445,0.0064302220145057015
0.2299655,0.023733698867963678,0.021365207101427093,0.013679422344416348,0.008772291615370758,0.01638818837680785,0.025228587443636815,0.026710036261915183,0.0063885159701768685
0.230431,0.023798816874217574,0.021477439198160607,0.01374694975160645,0.00873802254380498,0.01643274396488489,0.025227094745708264,0.026737694764643983,0.006347279874216451
0.2308966,0.023862756901780063,0.021589440100970685,0.013814343719430522,0.008703294824491763,0.016478970060760177,0.025225928673100913,0.026764411722296235,0.006306508505468478
0.2313621,0.02392551749482458,0.02170117684646631,0.013881587003519331,0.008668114502298017,0.016526832079749313,0.025225074315629405,0.026790209593945007,0.006266196647930279
0.2318276,0.023987097496450407,0.021812616558708097,0.013948662430745638,0.008632487671277077,0.016576295369822223,0.025224516698148146,0.02681511119396213,0.006226339092642305
0.2322931,0.024047496048351793,0.02192372645850375,0.014015552905653015,0.00859642047334336,0.016627325223198316,0.025224240785147914,0.026839139683921653,0.0061869306395385005
0.2327586,0.024106712590409442,0.0220344738727205,0.014082241416832113,0.008559919096966314,0.016679886887820364,0.025224231485327445,0.02686231856440731,0.006147966099257034
0.2332241,0.024164746860205963,0.022144826243611887,0.014148711043240047,0.008522989775883227,0.016733945578704255,0.02522447365613986,0.02688467166672606,0.00610944029491134
0.2336897,0.024221598892466823,0.022254751138156226,0.014214944960458732,0.008485638787830348,0.016789466489161804,0.025224952108314064,0.026906223144529746,0.0060713480638215096
0.2341552,0.024277269018428155,0.022364216257404205,0.014280926446888031,0.00844787245329179,0.016846414801893837,0.02522565161035158,0.026926997465346835,0.006033684259206173
0.2346207,0.024331757865132492,0.02247318944583304,0.014346638889869555,0.008409697134265698,0.01690475569995095,0.02522655689299937,0.026947019402026023,0.005996443751835061
0.2350862,0.024385066354653425,0.022581638700704613,0.014412065791736957,0.00837111923304717,0.016964454377559366,0.025227652653699622,0.026966314024093496,0.00595962143164247
0.2355517,0.024437195703249964,0.022689532181425005,0.014477190775788568,0.008332145191027509,0.01702547605080947,0.025228923561017857,0.026984906689025267,0.005923212209301844
0.2360172,0.024488147420451283,0.022796838218902875,0.014541997592178306,0.008292781487509455,0.017087785968204715,0.02523035425905115,0.027002823033435968,0.005887211017761698
0.2364828,0.024537923308072362,0.022903525324904007,0.01460647012372091,0.008253034638538104,0.01715134942106871,0.025231929371818708,0.027020088964185292,0.005851612813743101
0.2369483,0.024586525459161124,0.023009562201399294,0.014670592391607794,0.00821291119574725,0.017216131753808296,0.02523363350763717,0.027036730649403148,0.005816412579198862
0.2374138,0.02463395625687775,0.02311491774990345,0.014734348561030166,0.00817241774522095,0.017282098374030417,0.025235451263482905,0.027052774509434704,0.005781605322734563
0.2378793,0.024680218373306986,0.023219561080801573,0.014797722946706405,0.008131560906370093,0.01734921476251068,0.02523736722934356,0.027068247207706318,0.005747186080991545
0.2383448,0.024725314768204533,0.02332346152266055,0.014860700018311048,0.008090347330823783,0.017417446483011478,0.025239365992560964,0.02708317564151366,0.005713149919991889
0.2388103,0.024769248687678738,0.023426588631522288,0.014923264405803155,0.008048783701335343,0.01748675919194761,0.025241432142167133,0.02709758693273329,0.005679491936445448
0.2392759,0.024812023662808845,0.02352891220017563,0.014985400904652247,0.008006876730702724,0.0175571186478975,0.025243550273215128,0.027111508418459145,0.0056462072590189455
0.2397414,0.024853643508201087,0.02363040226740358,0.015047094480960326,0.007964633160703147,0.01762849072095797,0.025245704991106243,0.027124967641565426,0.005613291049567165
0.2402069,0.02489411232048374,0.02373102912720247,0.01510833027647885,0.007922059761041772,0.01770084140194087,0.025247880915914758,0.027137992341197344,0.00558073850432625
0.2406724,0.02493343447674221,0.0238307633379695,0.015169093613519685,0.007879163328314153,0.017774136811409873,0.02525006268671123,0.02715061044319105,0.005548544855069123
0.2411379,0.02497161463289502,0.023929575731654853,0.015229369999759148,0.007835950684982239,0.0178483432085561,0.02525223496588523,0.027162850050423928,0.005516705370223059
0.2416034,0.025008657722011413,0.024027437422874602,0.015289145132934345,0.007792428678363617,0.017923426999911406,0.025254382443468167,0.027174739433096687,0.005485215355949455
0.242069,0.025044568952571136,0.024124319817980338,0.01534840490543102,0.007748604179633698,0.017999354747898325,0.025256489841456484,0.02718630701894839,0.005454070157185847
0.2425345,0.02507935380666701,0.02422019462408136,0.01540713540876231,0.007704484082840451,0.018076093179215772,0.02525854191813561,0.027197581383406277,0.005423265158650275
0.243,0.025113018038150713,0.024315033858015013,0.015465322937937936,0.00766007530393128,0.018153609193059833,0.02526052347240469,0.027208591239672477,0.005392795785808083
0.2434655,0.0251455676707224,0.024408809855260703,0.015522953995723572,0.007615384779791559,0.018231869869179258,0.025262419348102066,0.027219365428750416,0.005362657505801293
0.243931,0.025177008995964686,0.02450149527879287,0.015580015296790225,0.007570419467294303,0.018310842475765747,0.0252642144383313,0.027229932909414216,0.005332845828340671
0.2443966,0.025207348571321467,0.024593063127868093,0.015636493771753596,0.0075251863423603845,0.018390494477179546,0.02526589368978731,0.02724032274812482,0.005303356306560682
0.2448621,0.025236593218021915,0.02468348674674125,0.01569237657110342,0.007479692399028661,0.018470793541511175,0.025267442107082275,0.02725056410889696,0.005274184537837499
0.2453276,0.02526475001894989,0.024772739833305565,0.01574765106902283,0.007433944648535348,0.018551707547980325,0.0252688447570705,0.027260686243121415,0.005245326164570296
0.2457931,0.025291826316458772,0.024860796447651073,0.015802304867097817,0.007387950118401944,0.01863320459417314,0.025270086773171673,0.027270718479347502,0.005216776874926047
0.2462586,0.02531782971013152,0.02494763102053585,0.015856325797916824,0.007341715851531015,0.018715253003119256,0.025271153359691483,0.02728069021303122,0.0051885324035481194
0.2467241,0.025342768054485654,0.025033218361764253,0.0159097019285607,0.007295248905309142,0.018797821330209876,0.02527202979613878,0.027290630896254723,0.005160588532228951
0.2471897,0.02536664945662261,0.025117533668466155,0.01596242156398319,0.007248556350716364,0.01888087836995835,0.025272701441538366,0.0273005700274232,0.005132941090547151
0.2476552,0.025389482273820776,0.025200552533270824,0.016014473250282355,0.007201645271441474,0.018964393162604475,0.025273153738738372,0.027310537140945303,0.0051055859564694125
0.2481207,0.025411275111071382,0.02528225095236906,0.01606584577786327,0.007154522763002557,0.01904833500056384,0.025273372218711235,0.02732056179690341,0.005078519056917643
0.2485862,0.02543203681855611,0.025362605333456942,0.01611652818449257,0.0071071959318721855,0.019132673434723368,0.025273342504847245,0.027330673570720037,0.0050517363683017505
0.2490517,0.025451776489065218,0.02544159250355428,0.0161665097582453,0.007059671894606726,0.019217378280584174,0.025273050317239587,0.02734090204282662,0.005025233917018521
0.2495172,0.025470503455354794,0.025519189716690743,0.016215780040344557,0.007011957776979275,0.019302419624252873,0.025272481476959548,0.027351276788341164,0.0049990077799170465
0.2499828,0.025488227287441476,0.0255953746614524,0.016264328827894338,0.0069640607131157715,0.019387767828282224,0.025271621910320494,0.027361827366761144,0.0049730540847311685
0.2504483,0.02550495778983284,0.025670125468381298,0.016312146176505917,0.00691598784463391,0.019473393537362008,0.02527045765312892,0.02737258331167818,0.0049473690104794325
0.2509138,0.025520704998691537,0.025743420717220338,0.01635922240281809,0.006867746319784512,0.01955926768386079,0.02526897485492083,0.027383574120520855,0.004921948787833101
0.2513793,0.02553547917893106,0.025815239443995674,0.016405548086911644,0.006819343292595055,0.01964536149321929,0.02526715978318155,0.027394829244332022,0.004896789699452813
0.2518448,0.025549290821240963,0.02588556114792846,0.01645111407461843,0.006770785922015128,0.019731646489195776,0.025264998827546993,0.027406378077586797,0.00487188808029451
0.2523103,0.025562150639039508,0.025954365798167733,0.016495911479725633,0.00672208137106359,0.019818094498963868,0.025262478503984425,0.027418249948057454,0.0048472403178852425
0.2527759,0.025574069565351645,0.026021633840335963,0.016539931686076023,0.006673236805977238,0.019904677658063,0.025259585458950816,0.027430474106731214,0.004822842852569452
0.2532414,0.02558505874961055,0.02608734620287862,0.016583166349565186,0.006624259395360847,0.019991368415201643,0.025256306473526596,0.027443079717786797,0.0047986921777263105
0.2537069,0.025595129554381094,0.026151484303209398,0.016625607400036897,0.00657515630933848,0.020078139536913307,0.02525262846752273,0.027456095848635436,0.004774784839958651
0.2541724,0.02560429355200366,0.026214030053642576,0.01666724704307794,0.006525934718705993,0.02016496411206514,0.02524853850355899,0.027469551460031855,0.00475111743925401
0.2546379,0.02561256252115682,0.026274965867104486,0.016708077761713794,0.0064766017940847045,0.02025181555621907,0.025244023791111042,0.02748347539626061,0.004727686629118312
0.2551034,0.02561994844333703,0.02633427466261625,0.016748092318006655,0.006427164705076249,0.02033866761584543,0.025239071690524098,0.027497896375402977,0.0047044891166826966
0.255569,0.025626463499253835,0.026391939870540657,0.016787283754557333,0.006377630619418636,0.020425494372389247,0.025233669716990793,0.027512842979689492,0.0046815216627839815
0.2560345,0.025632120065138535,0.026447945437586592,0.016825645395912615,0.006328006702143592,0.02051227024618961,0.02522780554449109,0.02752834364594305,0.00465878108201928
0.2565,0.025636930708964608,0.02650227583156535,0.01686317084987972,0.006278300114735249,0.020598970000252965,0.025221467009692276,0.027544426656117248,0.004636264242775256
0.2569655,0.025640908186578226,0.026554916045893974,0.01689985400874945,0.006228518014290228,0.020685568743881378,0.025214642115807567,0.027561120127934567,0.004613968067232523
0.257431,0.02564406543773743,0.026605851603841768,0.016935689050429737,0.006178667552679202,0.020772041936157115,0.025207319036411976,0.027578452005628626,0.004591889531345661
0.2578966,0.025646415582059,0.02665506856251703,0.016970670439491048,0.0061287558757099694,0.020858365389285125,0.025199486119214333,0.027596450050794724,0.004570025664799305
0.2583621,0.02564797191487251,0.02670255351659185,0.017004792928125317,0.006078790122292084,0.02094451527179503,0.025191131889784477,0.027615141833352667,0.004548373550940739
0.2588276,0.02564874790298158,0.026748293601763312,0.01703805155701988,0.0060287774236030735,0.021030468111604396,0.025182245055234673,0.0276345547226259,0.004526930326689395
0.2592931,0.02564875718033291,0.026792276497949824,0.017070441656148024,0.0059787249022562544,0.021116200798944936,0.02517281450785438,0.027654715878540844,0.0045056931824236585
0.2597586,0.025648013543594278,0.026834490432221397,0.017101958845477744,0.0059286396714701445,0.021201690589153464,0.025162829328697497,0.027675652242950325,0.004484659361845327
0.2602241,0.025646530947643218,0.026874924181462756,0.017132599035600327,0.005878528834239468,0.02128691510532926,0.025152278791121172,0.027697390531084835,0.00446382616182213
0.2606897,0.025644323500968336,0.026913567074768177,0.01716235842828044,0.005828399482507702,0.021371852340859577,0.025141152364275127,0.02771995722313519,0.004443190932208648
0.2611552,0.025641405460985575,0.02695040899556695,0.017191233516929364,0.005778258696341137,0.02145648066181494,0.02512943971654046,0.027743378555969984,0.004422751075646034
0.2616207,0.025637791229271695,0.02698544038347882,0.017219221087003016,0.005728113543104386,0.021540778809215892,0.025117130718916737,0.027767680514990976,0.004402504047340903
0.2620862,0.02563349534671763,0.02701865223589895,0.017246318216326523,0.005677971076637263,0.021624725901172932,0.02510421544835625,0.02779288882612942,0.004382447354823762
0.2625517,0.02562853248860448,0.02705003610931256,0.017272522275346952,0.005627838336432956,0.02170830143490155,0.025090684191044106,0.02781902894798608,0.004362578557687345
0.2630172,0.025622917459605127,0.027079584120340144,0.017297830927315964,0.005577722346817402,0.021791485288614187,0.0250765274456229,0.027846126064117554,0.004342895267305227
0.2634828,0.0256166651887147,0.0271072889465147,0.01732224212840398,0.005527630116129719,0.021874257723291164,0.025061735926360445,0.027874205075471187,0.00432339514653109
0.2639483,0.025609790724113145,0.027133143826793004,0.017345754127747623,0.005477568635903522,0.021956599384332753,0.02504630056625901,0.027903290592970885,0.004304075909379005
0.2644138,0.025602309227963166,0.027157142561803512,0.017368365467432034,0.005427544880048952,0.0220384913030947,0.02503021252010421,0.027933406930255717,0.004284935320685107
0.2648793,0.02559423597114651,0.027179279513833508,0.01739007498240975,0.005377565804035166,0.02211991489830961,0.025013463167451785,0.02796457809657316,0.004265971195751012
0.2653448,0.02558558632794155,0.027199549606558387,0.017410881800357696,0.005327638344073029,0.022200851977396796,0.024996044115550398,0.0279968277898285,0.00424718139996935
0.2658103,0.02557637577064488,0.027217948324515847,0.017430785341473888,0.0052777694162977375,0.02228128473766288,0.024977947202198595,0.028030179389791667,0.004228563848431744
0.2662759,0.02556661986413952,0.027234471712327624,0.017449785318215384,0.005227965915951047,0.022361195767395734,0.024959164498534213,0.028064655951462805,0.0042101165055195644
0.2667414,0.025556334260412185,0.027249116373671244,0.01746788173497898,0.005178234716562803,0.022440568046854115,0.02493968831175447,0.02810028019859754,0.004191837384477783
0.2672069,0.0255455346930221,0.027261879470004205,0.017485074887726052,0.005128582669131444,0.022519384949155726,0.02491951118776498,0.028137074517392786,0.004173724546972226
0.2676724,0.02553423697152371,0.02727275871904266,0.017501365363553036,0.005079016601303167,0.022597630241066584,0.02489862591375587,0.028175060950334077,0.004155776102630522
0.2681379,0.025522456975845757,0.02728175239299673,0.01751675404020885,0.005029543316549451,0.02267528808369476,0.024877025520703255,0.02821426119020508,0.004137990208567072
0.2686034,0.025510210650629268,0.027288859316564357,0.017531242085560537,0.00498016959334267,0.022752343033091683,0.024854703285794026,0.028254696574260104,0.004120365068892375
0.269069,0.025497513999526943,0.02729407886468568,0.01754483095700841,0.004930902184329582,0.022828780040764128,0.024831652734772197,0.028296388078560244,0.004102898934207096
0.2695345,0.025484383079466485,0.02729741096005981,0.017557522400851865,0.004881747815502468,0.022904584454100037,0.024807867644204805,0.02833935631247358,0.004085590101081306
0.27,0.025470833994880315,0.027298856070426307,0.017569318451607027,0.004832713185367753,0.022979742016711126,0.0247833420436656,0.028383621513339917,0.00406843691151938
0.2704655,0.02545688289190402,0.027298415205613633,0.01758022143127733,0.0047838049641119726,0.023054238868695086,0.0247580702178349,0.028429203541300282,0.004051437752411098
0.270931,0.025442545952545696,0.027296089914357363,0.01759023394857803,0.004735029792764958,0.023128061546820042,0.024732046708514217,0.02847612187429133,0.004034591054969501
0.2713966,0.02542783938882827,0.027291882280891373,0.017599358898115612,0.0046863942823601595,0.023201196984634,0.024705266316554238,0.028524395603204706,0.004017895294156094
0.2718621,0.02541277943690673,0.02728579492131575,0.017607599459523098,0.004637905013092059,0.023273632512501575,0.024677724103694742,0.028574043427211454,0.004001348988093955
0.2723276,0.02539738235116209,0.027277830979745725,0.017614959096552044,0.004589568533470642,0.023345355857570527,0.024649415394314922,0.028625083649251457,0.0039849506974693
0.2727931,0.025381664398273763,0.027267994124246263,0.017621441556122164,0.004541391359472977,0.02341635514367029,0.024620335777092488,0.02867753417168804,0.003968699024922043
0.2732586,0.025365641851272176,0.027256288542557613,0.017627050867329415,0.004493379973691938,0.023486618891144943,0.024590481106569674,0.02873141249212765,0.003952592614425831
0.2737241,0.025349330983573552,0.027242718937617042,0.017631791340413303,0.004445540824482171,0.023556136016622847,0.024559847504624255,0.028786735699404594,0.003936630150658056
0.2741897,0.025332748062999073,0.027227290522882374,0.017635667565684267,0.0043978803251034215,0.023624895832725326,0.024528431361843378,0.02884352046973052,0.0039208103583602775
0.2746552,0.02531590934578078,0.027210009017462965,0.017638684412411874,0.004350404852861366,0.02369288804771656,0.024496229338797932,0.02890178306300811,0.0039051320016895213
0.2751207,0.025298831070556922,0.027190880641063734,0.017640847027674534,0.004303120748246126,0.02376010276509683,0.024463238367215007,0.0289615393193084,0.0038895938835608714
0.2755862,0.025281529452359657,0.027169912108747873,0.017642160835171478,0.0042560343140686544,0.023826530483140998,0.024429455651045866,0.029022804655510864,0.00387419484498176
0.2760517,0.02526402067659813,0.027147110625523645,0.01764263153399767,0.00420915181459524,0.02389216209438411,0.024394878667426692,0.029085594062105192,0.0038589337643783403
0.2765172,0.025246320893040155,0.027122483880760665,0.017642265097382242,0.004162479474680394,0.02395698888505592,0.024359505167529334,0.02914992210015365,0.0038438095569143234
0.2769828,0.025228446209795762,0.027096040042440848,0.017641067771391013,0.0041160234788984165,0.024021002534465798,0.024323333177299164,0.029215802898412482,0.0038288211738026425
0.2774483,0.02521041268730582,0.02706778775124904,0.017639046073593574,0.004069789970673935,0.02408419511433958,0.024286360998077305,0.02928325015061074,0.00381396760161031
0.2779138,0.025192236332338948,0.027037736114508156,0.017636206791695277,0.004023785051411742,0.024146559088109736,0.02424858720710435,0.029352277112884705,0.0037992478615568185
0.2783793,0.025173933091999647,0.027005894699963503,0.017632556982134548,0.003978014779626252,0.02420808731015991,0.024210010657902712,0.029422896601365878,0.003784661008806444
0.2788448,0.025155518847750684,0.02697227352942086,0.01762810396864559,0.003932485170070902,0.02426877302502489,0.02417063048053492,0.029495120989920284,0.0037702061317548006
0.2793103,0.02513700940945257,0.02693688307224285,0.01762285534078662,0.00388720219286783,0.024328609866546808,0.024130446081735393,0.02956896220803674,0.003755882351309992
0.2797759,0.025118420509422992,0.026899734238708107,0.017616818952433524,0.0038421717726381446,0.024387591856988442,0.024089457144913718,0.02964443173886145,0.003741688820168705
0.2802414,0.025099767796519092,0.026860838373237744,0.01761000292023871,0.0037973997876331357,0.02444571340610423,0.02404766363002809,0.029721540617376245,0.003727624722087587
0.2807069,0.025081066830245437,0.02682020724749369,0.01760241562205487,0.003752892068866746,0.024502969310169615,0.024005065773328026,0.02980029942871767,0.0037136892711502464
0.2811724,0.02506233307489052,0.026777853053353562,0.017594065695323093,0.003708654399249632,0.02455935475096929,0.023961664086966122,0.0298807183066339,0.003699881711030227
0.2816379,0.025043581893694513,0.026733788395766744,0.017584962035424808,0.003664692512725117,0.02461486529474483,0.023917459358478856,0.029962806932076733,0.0036862013142502977
0.2821034,0.025024828543050957,0.026688026285496533,0.01757511379399678,0.003621012093407331,0.02466949689110217,0.023872452650137127,0.030046574531925826,0.003672647381438414
0.282569,0.02500608816674495,0.026640580131753376,0.017564530377208364,0.003577618774721803,0.0247232458718794,0.02382664529816744,0.03013202987784225,0.0036592192405806826
0.2830345,0.024987375790230516,0.026591463734724156,0.017553221444000067,0.0035345181385487497,0.024776108949975263,0.023780038911845224,0.03021918128524843,0.0036459162462716623
0.2835,0.024968706314949848,0.02654069127800278,0.017541196904282404,0.0034917157143693157,0.02482808321813872,0.023732635372461872,0.03030803661243138,0.0036327377789623283
0.2839655,0.024950094512697328,0.026488277320927178,0.01752846691709389,0.003449216978414988,0.02487916614771977,0.023684436832167192,0.030398603259766135,0.0036196832442060042
0.284431,0.024931555020031394,0.026434236790828052,0.017515041888716946,0.003407027352820446,0.024929355587381685,0.02363544571268882,0.0304908881690561,0.0036067520719026054
0.2848966,0.02491310233273735,0.02637858497519463,0.01750093247075039,0.003365152204780086,0.024978649761774628,0.02358566470393006,0.030584897822987008,0.0035939437155415215
0.2853621,0.02489475080034443,0.026321337513762835,0.017486149558137102,0.0033235968457084957,0.025027047270170483,0.023535096762447395,0.03068063824469117,0.003581257651443501
0.2858276,0.02487651462070031,0.026262510390531332,0.0174707042871453,0.003282366530405153,0.025074547085058543,0.02348374510980878,0.030778114997418466,0.003568693378001925
0.2862931,0.024858407834606258,0.026202119925710997,0.017454608033301754,0.00324146645622364,0.02512114855070159,0.023431613230833738,0.030877333184310518,0.003556250414923847
0.2867586,0.02484044432051588,0.02614018276761332,0.01743787240927515,0.003200901762245697,0.02516685138165167,0.023378704871716043,0.03097829744827434,0.0035439283024712213
0.2872241,0.024822637789300276,0.026076715884483414,0.01742050926270771,0.003160677528460444,0.025211655661224772,0.023325024038029787,0.03108101197195171,0.0035317266007026944
0.2876897,0.02480500177908232,0.02601173655628321,0.017402530673993038,0.0031207987749491345,0.02525556183993347,0.023270574992619458,0.031185480477780757,0.0035196448887163715
0.2881552,0.024787549650142654,0.025945262366430622,0.017383948953998064,0.0030812704610758144,0.025298570733876546,0.023215362253374592,0.031291706228146525,0.003507682763893943
0.2886207,0.024770294579899963,0.025877311193500254,0.017364776641726982,0.003042097484684266,0.0253406835230845,0.023159390590889666,0.031399692025617536,0.0034958398411465727
0.2890862,0.024753249557968208,0.02580790120289137,0.017345026501924904,0.0030032846813016407,0.025381901749819812,0.023102665026009668,0.03150944021326588,0.003484115752162921
0.2895517,0.02473642738129369,0.02573705083846876,0.017324711522619152,0.0029648368233491807,0.025422227316830803,0.023045190827261943,0.03162095267506846,0.003472510144659684
0.2900172,0.02471984064937486,0.02566477881418215,0.017303844912596067,0.0029267586193604256,0.025461662485557656,0.022986973508174857,0.03173423083638749,0.003461022681634996
0.2904828,0.02470350175956806,0.025591104105669796,0.017282440098811445,0.0028890547132072977,0.025500209874289307,0.022928018824483924,0.03184927566452865,0.003449653040625042
0.2909483,0.024687422902482367,0.02551604594185172,0.017260510723732858,0.002851729683334475,0.025537872456269723,0.022868332771226022,0.03196608766937608,0.0034384009129641967
0.2914138,0.0246716160574667,0.025439623796518075,0.017238070642612274,0.0028147880420024314,0.02557465355775205,0.022807921579722452,0.03208466690410374,0.00342726600304904
0.2918793,0.02465609298819221,0.02536185737991816,0.017215133920687475,0.002778234234539538,0.02561055685599916,0.02274679171445177,0.032205012965963245,0.003416248027606595
0.2923448,0.02464086523833326,0.02528276663035539,0.017191714830310914,0.00274207263860359,0.025645586377229114,0.022684949869813363,0.03232712499714831,0.00340534671496717
0.2928103,0.024625944127349943,0.025202371705793578,0.017167827848004698,0.002706307563453124,0.025679746494504024,0.022622402966783035,0.03245100168573613,0.0033945618043421995
0.2932759,0.0246113407463753,0.0251206929754797,0.017143487651440418,0.0026709432492288574,0.025713041925561033,0.022559158149461828,0.032576641266705716,0.003383893045107511
0.2937414,0.024597065954210243,0.02503775101158813,0.0171187091163427,0.0026359838662455806,0.025745477730583933,0.02249522278151946,0.03270404152303321,0.00337334019609244
0.2942069,0.024583130373429192,0.024953566580891217,0.01709350731331539,0.0026014335142947914,0.025777059309914,0.02243060444253382,0.032833199786864206,0.0033629030248752334
0.2946724,0.024569544386599154,0.024868160636460853,0.01706789750458937,0.0025672962219583715,0.02580779240169852,0.022365310924228034,0.03296411294076325,0.00335258130708518
0.2951379,0.024556318132614864,0.024781554309405533,0.017041895140690988,0.0025335759459335747,0.025837683079475555,0.02229935022660698,0.03309677741904067,0.003342374825711901
0.2956034,0.024543461503152505,0.024693768900647162,0.017015515857030074,0.002500276570369587,0.02586673774969325,0.02223273055399549,0.033231189209157214,0.003332283370422219
0.296069,0.024530984139244268,0.024604825872741723,0.016988775470406555,0.002467401906215908,0.02589496314916207,0.0221654603109812,0.0333673438532069,0.0033223067368850136
0.2965345,0.024518895427975876,0.024514746841747828,0.01696168997543476,0.0024349556905827723,0.025922366342438254,0.022097548098265474,0.033505236449478594,0.003312444726104453
0.297,0.02450720449930909,0.02442355356914696,0.01693427554088461,0.0024029415861138216,0.025948954719136632,0.02202900270842645,0.033644861654096886,0.003302697143761982
0.2974655,0.02449592022303089,0.024331267953819152,0.01690654850593905,0.00237136318037122,0.02597473599117114,0.02195983312159868,0.03378621368274313,0.0032930637995674176
0.297931,0.02448505120583119,0.024237912024077757,0.016878525376367318,0.0023402239852334,0.025999718189921164,0.021890048501073883,0.03392928631245753,0.0032835445066194836
0.2983966,0.02447460578851047,0.024143507929766793,0.01685022282061392,0.0023095274363056067,0.026023909663321968,0.02181965818882739,0.03407407288352351,0.0032741390807761103
0.2988621,0.024464592043318734,0.024048077934424254,0.016821657665803603,0.0022792768923434186,0.026047319072877374,0.021748671700974984,0.034220566301435634,0.0032648473400347993
0.2993276,0.024455017771427005,0.02395164440751471,0.016792846893662984,0.0022494756346893843,0.026069955390592692,0.02167709872316471,0.03436875903895234,0.003255669103923336
0.2997931,0.024445890500532405,0.02385422981673422,0.01676380763635996,0.00222012686672292,0.026091827895826026,0.021604949105908423,0.034518643138234925,0.0032466041929011392
0.3002586,0.024437217482597678,0.02375585672039049,0.016734557172262417,0.0021912337133235885,0.026112946172056107,0.021532232859857746,0.0346702102130742,0.0032376524277715007
0.3007241,0.024429005691725895,0.02365654775986101,0.01670511292161786,0.0021627992203478584,0.02613332010356504,0.021458960151029247,0.034823451451206265,0.0032288136291049687
0.3011897,0.0244212618221709,0.023556325652131702,0.01667549244215583,0.002134826354119444,0.026152959872034892,0.02138514129598358,0.03497835761671897,0.0032200876166740967
0.3016552,0.024413992286483967,0.023455213182418357,0.016645713424614884,0.002107318000933295,0.026171875953057547,0.021310786756963282,0.03513491905255045,0.003211474208899769
0.3021207,0.024407203213797107,0.023353233196873123,0.016615793688195903,0.0020802769665733047,0.02619007911255777,0.021235907136993908,0.03529312568308143,0.003202973222309303
0.3025862,0.02440090044824342,0.023250408595378073,0.016585751175943356,0.002053705975843789,0.026207580403129812,0.021160513174953027,0.03545296701682266,0.00319458447100651
0.3030517,0.02439508954751482,0.023146762324427785,0.01655560395005614,0.0020276076721147695,0.0262243911602883,0.0210846157406115,0.03561443214919886,0.0031863077661539057
0.3035172,0.02438977578155739,0.023042317370102667,0.01652537018712943,0.0020019846168810793,0.026240522998634244,0.021008225829651252,0.035777509765430336,0.0031781429154672386
0.3039828,0.024384964131404688,0.022937096751134613,0.016495068173328926,0.0019768392893352985,0.026255987807937604,0.02093135455866369,0.0359421881435133,0.003170089722722524
0.3044483,0.024380659288149153,0.022831123512066485,0.016464716299498708,0.001952174085954516,0.02627079774913808,0.020854013160132686,0.03610845515729978,0.0031621479872757435
0.3049138,0.024376865652051702,0.022724420716506707,0.016434333056203867,0.001927991320100898,0.02628496525026646,0.02077621297740589,0.03627629827967761,0.003154317503595395
0.3053793,0.024373587331789428,0.02261701144048024,0.01640393702870898,0.001904293221636042,0.02629850300228907,0.020697965459658137,0.03644570458585085,0.003146598060808043
0.3058448,0.02437082814384122,0.02250891876587707,0.016373546891893555,0.0018810819365490858,0.026311423954878024,0.020619282156850525,0.03661666075672078,0.003138989442257037
0.3063103,0.024368591612010833,0.022400165773999177,0.016343181405105402,0.001858359526598546,0.026323741312110106,0.02054017471468883,0.03678915308236738,0.003131491425074547
0.3067759,0.02436688096708681,0.022290775539206907,0.016312859406952977,0.001836127968967851,0.02633546852809684,0.02046065486958476,0.03696316746563106,0.003124103779767071
0.3072414,0.02436569914663861,0.02218077112266543,0.01628259981003764,0.0018143891559345396,0.02634661930254836,0.020380734443623486,0.03713868942579455,0.003116826269814561
0.3077069,0.02436504879494798,0.022070175566191966,0.016252421595626787,0.0017931448945530753,0.026357207576273387,0.020300425339540795,0.03731570410236501,0.0031096586512833315
0.3081724,0.024364932263074745,0.021959011886204118,0.016222343808268824,0.0017723969063512238,0.026367247526617583,0.020219739535713106,0.037494196258956315,0.0031026006724528907
0.3086379,0.024365351609056066,0.021847303067769535,0.01619238555035093,0.0017521468270399305,0.02637675356284255,0.020138689081163307,0.037674150287271606,0.0030956520734568495
0.3091034,0.02436630859823828,0.02173507205875702,0.01616256597660075,0.0017323962062366206,0.026385740321447526,0.020057286090585304,0.03785555021118621,0.0030888125859380383
0.309569,0.024367804703740465,0.021622341764088903,0.01613290428853307,0.0017131465072018422,0.026394222661435932,0.01997554273939001,0.03803837969093094,0.0030820819327179783
0.3100345,0.024369841107048894,0.021509135040094347,0.0161034197288429,0.0016943991065891631,0.02640221565952894,0.01989347125877534,0.03822262202737595,0.0030754598274808104
0.3105,0.024372418698741537,0.02139547468896316,0.016074131575746213,0.001676155294208234,0.026409734605328136,0.019811083930822693,0.038408260166415104,0.003068945974471811
0.3109655,0.024375538079341643,0.021281383453299444,0.016045059137269863,0.0016584162728009203,0.026416794996429228,0.01972839308362232,0.038595276703451004,0.003062540068210588
0.311431,0.024379199560299478,0.021166884010774375,0.016016221745492252,0.0016411831578304142,0.026423412533488785,0.019645411086429965,0.0387836538879808,0.0030562417932190433
0.3118966,0.02438340316510105,0.021051998968877175,0.015987638750736347,0.0016244569772832223,0.026429603115245757,0.019562150344857004,0.03897337362828292,0.003050050823764178
0.3123621,0.02438814863050262,0.020936750859763285,0.015959329515716776,0.0016082386714839148,0.02643538283349941,0.019478623296096377,0.03916441749620485,0.0030439668236157905
0.3128276,0.024393435407889498,0.020821162135198485,0.01593131340964277,0.0015925290929225163,0.0264407679680452,0.019394842404186586,0.03935676673205231,0.0030379894458190913
0.3132931,0.02439926266475752,0.020705255161597727,0.015903609802278645,0.001577329006094404,0.02644577498156995,0.019310820155315992,0.039550402249579945,0.0030321183324822456
0.3137586,0.024405629286315546,0.020589052215157288,0.015876238057963617,0.0015626390873525737,0.02645042051450744,0.019226569053169575,0.039745304641083744,0.0030263531145788185
0.3142241,0.024412533877207064,0.020472575477078845,0.015849217529592792,0.0015484599247721268,0.02645472137985542,0.019142101614320284,0.03994145418259536,0.003020693411765089
0.3146897,0.024419974763349086,0.020355847028884096,0.015822567552561232,0.001534792018026828,0.02645869455795473,0.019057430363667013,0.04013883083917844,0.003015138832212183
0.3151552,0.02442794999388649,0.020238888847818673,0.01579630743867309,0.001521635778277591,0.026462357191231165,0.018972567829921155,0.04033741427032715,0.0030096889724529493
0.3156207,0.024436457343259926,0.020121722802344116,0.01577045647001781,0.0015089915280727434,0.026465726578900454,0.018887526541143552,0.04053718383546716,0.003004343417243493
0.3160862,0.024445494313385264,0.020004370647716836,0.01574503389281545,0.001496859501259927,0.026468820171636615,0.01880231902033364,0.04073811859955969,0.002999101739439253
0.3165517,0.024455058135942655,0.01988685402165301,0.015720058911233126,0.0014852398429094837,0.026471655566203893,0.01871695778107249,0.04094019733880907,0.0029939634998854972
