Time,Rectus Femoris right,Rectus Femoris left,Hamstrings right,Hamstrings left,TibilaisÂ Anterior right,TibilaisÂ Anterior left,Gastrocnemius right,Gastrocnemius left
0.0,0.01139783710475106,-0.00011838748768928212,0.02866720590711667,-0.00893836172478735,-0.007634441741501769,0.004645652550399982,-0.09751994562492058,0.0007236555128746773
0.0004655,0.011923228056179487,-7.222354019347375e-05,0.02899978715692634,-0.008702588264844435,-0.006951588385213992,0.004835072598110655,-0.09511845518808276,0.000797353207404508
0.000931,0.012446661202579786,-2.470159872917188e-05,0.02933181227241016,-0.00846800011136949,-0.006266458971804709,0.00502430578182278,-0.0927220998282904,0.0008709241617415601
0.0013966,0.012968050483706714,2.4190669363855126e-05,0.029663222412003892,-0.008234630987080818,-0.0055791101942140545,0.005213322350925126,-0.09033121009965936,0.0009443575909513092
0.0018621,0.01348731023464802,7.446545911768135e-05,0.02999395863395259,-0.008002514224906773,-0.004889598967650577,0.005402092540448808,-0.08794611534103304,0.0010176427358005273
0.0023276,0.014004355215614021,0.0001261348234667125,0.030323961913365605,-0.007771682754329208,-0.004197982413700897,0.005590586580648539,-0.08556714357665682,0.0010907688663362486
0.0027931,0.0145191006416079,0.0001792106687556177,0.030653173159343843,-0.007542169087869362,-0.0035043178444770584,0.005778774706615063,-0.08319462141752396,0.0011637252854580862
0.0032586,0.015031462211954368,0.0002337047502248001,0.030981533232167173,-0.007314005307725892,-0.0028086627468130797,0.005966627167912464,-0.08082887396344664,0.0012365013324814127
0.0037241,0.015541356139664992,0.00028962866747358427,0.031308982960530064,-0.0070872230525746045,-0.0021110747665220243,0.006154114238234556,-0.0784702247059045,0.0013090863866890283
0.0041897,0.01604869918061939,0.0003469938599013959,0.03163546315881354,-0.006861853504539251,-0.0014116116927247355,0.006341206225074962,-0.0761189954317225,0.0013814698708690752
0.0046552,0.016553408662542263,0.00040581160212731546,0.0319609146443818,-0.006637927376342453,-0.0007103314422610882,0.006527873479405871,-0.07377550612762807,0.0014536412548370981
0.0051207,0.01705540251375713,0.00046609299938849664,0.03228527825489221,-0.006415474898645502,-7.292044194290282e-06,0.0067140864053607495,-0.07144007488573677,0.001525590058940306
0.0055862,0.017554599291698583,0.0005278489829180387,0.03260849486560789,-0.006194525807585369,0.0006974483755817059,0.006899815469916589,-0.06911301781001411,0.0015973058575422146
0.0060517,0.01805091821116565,0.0005910903053029933,0.03293050540670226,-0.005975109332516834,0.001403831609622088,0.0070850312125714365,-0.06679464892376023,0.001668778282485955
0.0065172,0.01854427917229984,0.0006558275358232582,0.03325125088054539,-0.0057572541839671955,0.0021117993840892193,0.007269704255013154,-0.06448528007816279,0.0017399970265346034
0.0069828,0.019034602788271966,0.0007220710557721555,0.03357067237896222,-0.005540988541810573,0.0028212933737800645,0.007453805310775473,-0.06218522086196216,0.0018109518467869254
0.0074483,0.019521810412662394,0.0007898310537595221,0.03388871110045249,-0.005326340043668352,0.0035322552170145853,0.0076373051948774575,-0.0598947785122707,0.0018816325680669763
0.0079138,0.020005824166519602,0.0008591175209981469,0.034205308367362304,-0.005113335773541927,0.004244626530377048,0.007820174833442481,-0.05761425782658545,0.0019520290862860205
0.0083793,0.020486566965082137,0.0009299402465743934,0.03452040564299702,-0.004902002250683489,0.00495834892330257,0.008002385273292965,-0.055343961076030616,0.0020221313717752915
0.0088448,0.02096396254414942,0.001002308812703848,0.03483394454866526,-0.004692365418710171,0.005673364012501595,0.008183907691517035,-0.053084187919862726,0.0020919294725881437
0.0093103,0.021437935486087353,0.0010762325899728508,0.035145866880643875,-0.004484450634966524,0.0063896134362153275,0.008364713405003296,-0.050835235321269344,0.0021614135177701844
0.0097759,0.021908411245455228,0.0011517207325667971,0.03545611462705416,-0.004278282660139847,0.00710703886829546,0.008544773879939878,-0.04859739746449002,0.002230573720595982
0.0102414,0.022375316174240902,0.001228782173486161,0.03576462998463991,-0.004073885648132566,0.007825582032101937,0.008724060741273866,-0.04637096567328711,0.0022994003817709725
0.0107069,0.022838577546691646,0.0013074256197512892,0.03607135537543881,-0.003871283136195476,0.008545184714213004,0.008902545782127208,-0.0441562283307931,0.0023678838925971944
0.0111724,0.023298123583728226,0.0013876595475971053,0.03637623346333916,-0.0036704980353253424,0.009265788777942483,0.009080200973165144,-0.04195347080076046,0.0024360147381014977
0.0116379,0.023753883476929853,0.0014694921976589697,0.03667920717051453,-0.0034715526209300775,0.009987336176659768,0.009256998471913136,-0.03976297535023858,0.0025037835001248685
0.0121034,0.02420578741207771,0.0015529315701510102,0.03698021969372975,-0.0032744685237644294,0.010709768966908558,0.009432910632018301,-0.03758502107370202,0.002571180860371538
0.012569,0.024653766592244875,0.0016379854200382936,0.03727921452051202,-0.0030792667211388667,0.01143302932132073,0.009607910012451303,-0.03541988381865227,0.0026381976034165664
0.0130345,0.02509775326042057,0.0017246612522042167,0.037576135445181374,-0.002885967528404126,0.012157059541322105,0.009781969386644648,-0.033267836112714444,0.0027048246196706245
0.0135,0.02553768072165685,0.0018129663166145144,0.03787092658473483,-0.002694590590713675,0.012881802069627375,0.009955061751563386,-0.031129147092248472,0.002771052908300758
0.0139655,0.025973483364726126,0.0019029076034792784,0.03816353239457866,-0.0025051548750661687,0.013607199502522028,0.010127160336704235,-0.029004082432493247,0.0028368735801059357
0.014431,0.026405096683278385,0.0019944918384143693,0.038453897684103296,-0.0023176786626298044,0.014333194601929803,0.01029823861301924,-0.02689290427926064,0.0029022778603462213
0.0148966,0.02683245729648691,0.0020877254776036293,0.03874196763209544,-0.0021321795413503358,0.015059730307264806,0.010468270301759987,-0.024795871182195114,0.002967257091524416
0.0153621,0.02725550296917171,0.0021826147029633206,0.039027687801982194,-0.0019486743988443682,0.015786749747067844,0.010637229383238444,-0.022713238029613208,0.0030318027361190217
0.0158276,0.02767417263138969,0.0022791654173102737,0.03931100415690193,-0.0017671794155794576,0.016514196250426872,0.010805090105500464,-0.020645255984935953,0.003095906379267368
0.0162931,0.02808840639748044,0.002377383239535299,0.039591863074596875,-0.0015877100583424337,0.017242013358181554,0.010971826992907961,-0.01859217242472595,0.003159559731397771
0.0167586,0.028498145584556444,0.0024772734997835005,0.03987021136212219,-0.0014102810739972974,0.01797014483391219,0.01113741485462589,-0.016554230878339796,0.0032227546308095756
0.0172241,0.028903332730426404,0.0025788412346432034,0.04014599627036646,-0.0012349064835339798,0.018698534674713375,0.01130182879301019,-0.014531670969205258,0.003285483046199965
0.0176897,0.029303911610940533,0.0026820911823452905,0.040419165508378894,-0.0010615995764091876,0.01942712712175292,0.011465044211893025,-0.012524728357731106,0.003347737079136413
0.0181552,0.02969982725674672,0.0027870277779747663,0.04068966725749888,-0.0008903729051805107,0.020155866670616727,0.011627036824761636,-0.010533634685855973,0.0034095089664736866
0.0186207,0.030091025969446957,0.0028936551486964117,0.040957450185284724,-0.0007212382804349051,0.020884698081440237,0.011787782662827349,-0.00855861752324092,0.003470791082714307
0.0190862,0.030477455337143973,0.0030019771089964046,0.041222463459239106,-0.0005542067660126387,0.021613566388826954,0.01194725808298121,-0.006599900315109273,0.003531575942311387
0.0195517,0.030859064249368323,0.003111997155941827,0.04148465676033,-0.000389288674527743,0.02234241691155455,0.012105439775632785,-0.004657702331736335,0.0035918562019127322
0.0200172,0.031235802911377068,0.0032237184644600247,0.041743980296306306,-0.00022649356318598247,0.02307119526206878,0.012262304772428666,-0.0027322386195910457,0.003651624662545115
0.0204828,0.03160762285781521,0.0033371438826398257,0.04200038481480789,-6.5830229901303e-05,0.023799847355765315,0.012417830453847296,-0.0008237199541311106,0.003710874271737602
0.0209483,0.031974476965731996,0.0034522759270566943,0.042253821616269886,9.269329028834022e-05,0.02452831942005958,0.012571994556666579,0.001067647205747321,0.003769598125582852
0.0214138,0.03233631946694452,0.003569116778123949,0.04250424256662092,0.00024906972850495757,0.025256558003244358,0.012724775181300808,0.0029416607616048166,0.0038277894707353225
0.0218793,0.032693105959741696,0.003687668275472259,0.0427516001097748,0.0004032925850135825,0.02598450998313494,0.012876150799003396,0.004798123017698416,0.0038854417063453584
0.0223448,0.033044793419922294,0.003807931913359697,0.04299584727991521,0.0005553561319038136,0.02671212257550146,0.013026100258931942,0.00663684072156617,0.003942548385928218
0.0228103,0.033391340211161046,0.003929908836114705,0.04323693771357271,0.0007052554154693909,0.027439343342288047,0.013174602795072262,0.00845762510295701,0.0039991032191671536
0.0232759,0.03373270609469714,0.004053599833614383,0.04347482566149356,0.0008529862582855339,0.02816612019961848,0.013321638033018137,0.010260291911106846,0.004055100073649749
0.0237414,0.03406885223833952,0.004179005336800581,0.043709466000300096,0.000998545260983968,0.028892401425588236,0.01346718599660369,0.012044661450362,0.004110532976536807
0.0242069,0.034399741224784015,0.0043061254132362664,0.04394081424394261,0.0011419298037257818,0.02961813566784292,0.013611227114385465,0.01381055861415149,0.004165396116163147
0.0246724,0.03472533705923821,0.004434959762704672,0.04416882655494318,0.001283138047372483,0.03034327195094348,0.013753742225971342,0.01555781291731001,0.004219683843569742
0.0251379,0.03504560517635101,0.004565507712853696,0.04439345975543174,0.0014221689343558506,0.031067759683518454,0.013894712588193497,0.017286258526753907,0.004273390673966652
0.0256034,0.035360512446445724,0.004697768214888018,0.044614671337975066,0.0015590221892474118,0.031791548665203714,0.014034119881122707,0.018995734290513037,0.004326511288126215
0.026069,0.03567002718105685,0.00483173983931133,0.044832419476199245,0.0016936983190286266,0.03251458909337033,0.014171946213921333,0.020686083765121526,0.004379040533705998
0.0265345,0.035974119137772716,0.004967420771721134,0.04504666303520613,0.001826198613063107,0.03323683156964131,0.014308174130532541,0.022357155241370934,0.004430973426501026
0.027,0.036272759524387375,0.00510480880865849,0.04525736158178433,0.001956525142772451,0.033958227106198634,0.014442786615203533,0.02400880176842958,0.004482305151624863
0.0274655,0.036565921002366795,0.005243901353515163,0.0454644753944155,0.0020846807610175096,0.0346787271318824,0.014575767097840836,0.025640881176332203,0.004533031064619199
0.027931,0.036853577689635396,0.005384695412500606,0.04566796547307648,0.002210669101187111,0.03539828349808473,0.014707099459196078,0.027253256096844692,0.004583146692491682
0.0283966,0.03713570516268996,0.005527187590671237,0.04586779354883769,0.0023344945759964787,0.036116848484441695,0.01483676803588102,0.028845793982709343,0.004632647734681823
0.0288621,0.037412280458048376,0.0056713740880244955,0.04606392209325811,0.002456162375997759,0.03683437480432706,0.014964757625210942,0.03041836712527667,0.004681530063954925
0.0293276,0.037683282073041176,0.005817250695660103,0.046256314327576965,0.002575678467805257,0.037550815610151826,0.01509105348987574,0.03197085267053048,0.00472978972722411
0.0297931,0.0379486899659535,0.005964812792010986,0.046444934231701825,0.002693049592038147,0.03826612449847385,0.015215641362438217,0.03350313263351329,0.004777422946300677
0.0302586,0.03820848555552567,0.006114055339146321,0.046629746552993095,0.0028082832609835936,0.03898025551492167,0.015338507449659124,0.03501509391115947,0.004824426118573121
0.0307241,0.038462651719820405,0.006264972879149144,0.04681071681484451,0.00292138775598336,0.03969316315893672,0.015459638436648639,0.03650662829354371,0.004870795817615306
0.0311897,0.03871117279446522,0.006417559530571037,0.04698781132505931,0.0030323721245471076,0.040404802388337734,0.015579021490844024,0.03797763247355242,0.0049165287937243595
0.0316552,0.038954034570278795,0.0065718089849664246,0.047160997184021614,0.0031412461771956916,0.04111512862371126,0.01569664426581337,0.03942800805498608,0.004961621974388915
0.0321207,0.039191224290290656,0.006727714503509032,0.04733024229266222,0.003248020484037823,0.04182409775263183,0.015812494904885482,0.04085766155910051,0.005006072464688397
0.0325862,0.039422730646164,0.006885268913693052,0.047495515360218156,0.0033527063710835415,0.04253166613371515,0.015926562044606168,0.042266504429595377,0.005049877547624001
0.0330517,0.03964854377403191,0.007044464606121579,0.04765678591178471,0.0034553159162979646,0.043237790600507364,0.016038834818021392,0.04365445303605799,0.005093034684382094
0.0335172,0.03986865524975785,0.007205293531384839,0.0478140242956589,0.003555861945398814,0.04394242846521335,0.016149302857787786,0.045021428675871,0.005135541514530737
0.0339828,0.040083058083631655,0.007367747197030685,0.047967201690472916,0.00365435802740122,0.04464553752226686,0.016257956299111125,0.046367357574592226,0.005177395856150133
0.0344483,0.04029174671451296,0.007531816664629872,0.048116290112116024,0.0037508184699133113,0.04534707605174497,0.016364785782513293,0.04769217088481557,0.0052185957058978015
0.0349138,0.04049471700343415,0.007697492546938497,0.048261262420443325,0.003845258314186093,0.04604700282262932,0.016469782456428148,0.04899580468352173,0.00525913923900934
0.0353793,0.04069196622667561,0.00786476500516003,0.04840209232576974,0.00393769332992114,0.04674527709591622,0.016572937979626633,0.05027819996792822,0.005299024809235624
0.0358448,0.040883493068325984,0.008033623746309273,0.0485387543951477,0.004028140009839637,0.04744185862757739,0.016674244523471427,0.05153930264984817,0.005338250948717332
0.0363103,0.041069297612340655,0.008204058020680579,0.04867122405842721,0.004116615564016377,0.04813670767137314,0.016773694774001282,0.05277906354856788,0.005376816367797653
0.0367759,0.04124938133411143,0.00837605661942261,0.04879947761409658,0.0042031379139823135,0.048829784981519124,0.016871281933845173,0.053997438382253383,0.005414719954774073
0.0372414,0.041423747091560395,0.008549607872221957,0.048923492234902645,0.004287725686599359,0.049521051815208016,0.01696699972396636,0.05519438775789666,0.005451960775590151
0.0377069,0.0415923991157711,0.008724699645097858,0.04904324597324883,0.004370398207711124,0.05021046993498696,0.01706084238523632,0.056369877159812114,0.00548853807346814
0.0381724,0.04175534300116971,0.008901319338310258,0.04915871776636978,0.004451175495573365,0.050898001610992054,0.017152804679838613,0.057523876936694085,0.0055244512684833776
0.0386379,0.04191258569526882,0.00907945388438342,0.04926988744128097,0.004530078254067934,0.05158360962304117,0.01724288189250262,0.05865636228724612,0.00555969995708128
0.0391034,0.04206413548798639,0.009259089746247217,0.049376735719501845,0.004607127865704074,0.05226725726258644,0.01733106983156732,0.059767313244392876,0.005594283911537841
0.039569,0.04221000200055196,0.009440212915498234,0.0494792442215508,0.004682346384410978,0.05294890833452816,0.017417364829875038,0.060856714658085384,0.0056282030793645375
0.0400345,0.04235019617401201,0.00962280891078273,0.04957739547120991,0.004755756528125527,0.05362852715889195,0.017501763745495225,0.06192455617671021,0.005661457582658638
0.0405,0.04248473025734612,0.009806862776303459,0.04967117289955733,0.004827381671179166,0.05430607857237159,0.017584263962278343,0.06297083222711292,0.0056940477173999604
0.0409655,0.04261361779520509,0.009992359080452401,0.04976056084876504,0.004897245836487872,0.05498152792973949,0.01766486339023999,0.06399554199324577,0.005725973952695153
0.041431,0.04273687361528201,0.010179281914571457,0.0498455445756592,0.004965373687549136,0.055654841105127376,0.017743560465775392,0.06499868939344937,0.00575723692997066
0.0418966,0.042854513815326845,0.010367614891843194,0.049926110255040256,0.005031790520249867,0.05632598449317949,0.017820354151704555,0.06598028305637782,0.005787837462115492
0.0423621,0.04296655574981475,0.01055734114631381,0.0500022449827597,0.005096522254489077,0.05699492501008098,0.017895243937148215,0.06694033629557675,0.005817776532575006
0.0428276,0.04307301801627806,0.010748443332050522,0.050073936778549884,0.00515959542561922,0.05766163009446396,0.01796822983723498,0.06787886708272386,0.00584705529439688
0.0432931,0.04317392044131176,0.010940903622435683,0.05014117458860362,0.0052210371757099696,0.058326067708194144,0.018039312392639992,0.06879589801954206,0.0058756750692305435
0.0437586,0.043269284066261855,0.011134703709599915,0.05020394828790029,0.005280875244638248,0.05898820633704094,0.018108492668955468,0.06969145630839589,0.00590363734628134
0.0442241,0.04335913113260608,0.01132982480399666,0.050262248682275495,0.005339137961008291,0.05964801499123432,0.018175772255893563,0.07056557372158333,0.005930943781220684
0.0446897,0.04344348506703619,0.011526247634120567,0.05031606751023203,0.005395854232905523,0.060305463205911805,0.01824115326632186,0.07141828656933577,0.005957596195053444
0.0451552,0.04352237046625072,0.011723952446372072,0.05036539744449048,0.005451053538488018,0.06096052104145892,0.018304638335131962,0.07224963566654045,0.005983596572943796
0.0456207,0.04359581308146682,0.011922919005070616,0.050410232093278204,0.005504765916419332,0.061613159083746774,0.018366230617941782,0.0730596662982004,0.0060089470630007155
0.0460862,0.04366383980265949,0.012123126592618811,0.05045056600135634,0.0055570219561464655,0.06226334844426988,0.018425933789632393,0.07384842818364858,0.006033649975024336
0.0465517,0.043726478642536266,0.01232455400981989,0.050486394650784104,0.005607852788026712,0.06291106076018779,0.018483752042720476,0.07461597543953405,0.0060577077792143995
0.0470172,0.043783758720254966,0.012527179576350621,0.050517714461420185,0.005657290073307097,0.06355626819427358,0.018539690085567703,0.07536236654159946,0.006081123104842102
0.0474828,0.04383571024489194,0.012730981131391875,0.05054452279116064,0.005705365993960144,0.0641989434347725,0.018593753140428396,0.07608766428526964,0.0061038987388866445
0.0479483,0.04388236449866806,0.01293593603441889,0.05056681793591252,0.005752113242379621,0.06483905969517409,0.018645946941336942,0.07679193574507273,0.0061260376246378865
0.0484138,0.043923753819939376,0.013142021166153262,0.05058459912930262,0.00579756501093995,0.0654765907139009,0.018696277731836602,0.07747525223291477,0.006147542860266468
0.0488793,0.04395991158595924,0.01334921292967855,0.05059786654212072,0.005841754981422892,0.06611151075391743,0.01874475226255146,0.07813768925522944,0.006168417697362767
0.0493448,0.04399087219541841,0.01355748725172129,0.05060662128149714,0.005884717314315121,0.06674379460226237,0.01879137778860364,0.07877932646902437,0.006188665539446024
0.0498103,0.04401667105077015,0.013766819584099099,0.050610865389814574,0.005926486637980256,0.06737341756950745,0.018836162066878128,0.07940024763684467,0.006208289940444901
0.0502759,0.04403734454034675,0.013977184905337506,0.05061060184335505,0.005967098037708926,0.06800035548914596,0.018879113353137862,0.08000054058067502,0.0062272946031507355
0.0507414,0.04405293002027457,0.014188557722457,0.05060583455068366,0.006006587044650456,0.06862458471691392,0.018920240398991827,0.08058029713480112,0.006245683377644684
0.0512069,0.04406346579619425,0.014400912072931708,0.050596568350771025,0.006044989624629754,0.06924608213004624,0.018959552448719073,0.08113961309765173,0.006263460259699952
0.0516724,0.044068991104793016,0.014614221526821106,0.050582809010857335,0.006082342166853014,0.06986482512647019,0.01899705923595143,0.08167858818264276,0.006280629389160258
0.0521379,0.04406954609515584,0.014828459189076068,0.05056456322406137,0.006118681472505867,0.07048079162393762,0.019032770980217738,0.08219732596804595,0.006297195048295668
0.0526034,0.0440651718099419,0.01504359770202054,0.05054183860673828,0.006154044743247564,0.0710939600590978,0.019066698383352298,0.08269593384590553,0.0063131616601369385
0.053069,0.04405591016639266,0.015259609248010066,0.05051464369559032,0.006188469569604828,0.0717043093865117,0.01909885262577014,0.08317452297002799,0.0063285337867894685
0.0535345,0.04404180393717786,0.015476465552268347,0.050482987944534576,0.006221993919268933,0.07231181907760949,0.019129245362611794,0.08363320820307207,0.006343316127727931
0.054,0.04402289673108518,0.015694137885902994,0.05044688172133224,0.006254656125299589,0.07291646911959174,0.019157888719759993,0.0840721080627678,0.0063575135180726355
0.0544655,0.04399923297355928,0.015912597069101576,0.05040633630398345,0.006286494874239196,0.07351824001427562,0.019184795289730744,0.08449134466729533,0.006371130926848661
0.054931,0.043970857887095795,0.016131813474509083,0.050361363876891885,0.00631754919414102,0.07411711277688662,0.019209978127441036,0.08489104367985587,0.006384173455228816
0.0553966,0.043937817471495506,0.016351757030787954,0.05031197752680304,0.0063478584425148464,0.07471306893479669,0.0192334507458554,0.08527133425246758,0.006396646334761465
0.0558621,0.043900158483983945,0.01657239722636181,0.05025819123851979,0.006377462294193689,0.07530609052620901,0.019255227111513364,0.0856323489690194,0.006408554925584322
0.0563276,0.0438579284192018,0.016793703113344112,0.05020001989039856,0.006406400729125108,0.07589616009879004,0.01927532163993971,0.08597422378761613,0.006419904714625263
0.0567931,0.04381117548907206,0.01701564331165293,0.050137479249629524,0.006434714020090739,0.07648326070824904,0.019293749190939416,0.08629709798224697,0.006430701313791245
0.0572586,0.043759948602550114,0.017238186013313176,0.05007058596730353,0.0064624427203576005,0.07706737591686569,0.019310525063778866,0.0866011140838101,0.006440950458146463
0.0577241,0.043704297345263994,0.017461298986947527,0.04999935757326879,0.00648962765126477,0.07764848979196566,0.01932566499225503,0.08688641782052481,0.006450658004080838
0.0581897,0.04364427195905232,0.017684949582457317,0.04992381247078017,0.006516309889749014,0.07822658690434485,0.019339185139654057,0.0871531580577627,0.0064598299274698946
0.0586552,0.04357992332140818,0.017909104735894747,0.04984396993094362,0.0065425307558129725,0.0788016523266422,0.019351102093600685,0.08740148673732966,0.006468472321827073
0.0591207,0.04351130292483752,0.01813373097452751,0.04975985008695804,0.006568331799939522,0.07937367163166117,0.019361432860799818,0.0876315588162293,0.00647659139644949
0.0595862,0.04343846285614135,0.018358794422097015,0.049671473928156615,0.006593754790455926,0.0799426308906396,0.01937019486167151,0.08784353220493983,0.006484193474558062
0.0600517,0.043361455775630976,0.018584260804271138,0.049578863293849404,0.0066188417008513824,0.0805085166714672,0.019377405924880423,0.08803756770523487,0.00649128499143292
0.0605172,0.04328033489628611,0.01881009545429248,0.04948204086696881,0.006643634697051555,0.08107131603684979,0.01938308428176092,0.08821382894757951,0.006497872492544991
0.0609828,0.04319515396286572,0.01903626331882291,0.04938103016751923,0.006668176124653615,0.0816310165424186,0.01938724856063869,0.0883724823281325,0.006503962631684572
0.0614483,0.04310596723098184,0.01926272896398513,0.04927585554583212,0.006692508496125312,0.08218760623478277,0.01938991778105002,0.08851369694538473,0.006509562169087745
0.0619138,0.04301282944614666,0.01948945658160215,0.04916654217562746,0.006716674477971514,0.08274107364952284,0.019391111347859768,0.08863764453646396,0.006514677969561409
0.0623793,0.042915795822803256,0.019716409995635457,0.04905311604688248,0.006740716877871634,0.0832914078091224,0.01939084904527922,0.08874449941313477,0.006519317000607724
0.0628448,0.04281492202335038,0.0199435526688228,0.04893560395850876,0.006764678631791293,0.08383859822083543,0.019389151030785,0.08883443839752238,0.006523486330548673
0.0633103,0.042710264137171335,0.02017084770951664,0.04881403351083856,0.006788602791071572,0.08438263487448576,0.01938603782894025,0.08890764075758761,0.006527193126651471
0.0637759,0.04260187865967696,0.020398257878724294,0.048688433097921216,0.00681253250949912,0.08492350824019543,0.01938153032511931,0.0889642881423808,0.006530444653255484
0.0642414,0.04248982247137241,0.020625745597351,0.04855883189963039,0.00683651103036043,0.08546120926603847,0.01937564975913716,0.08900456451710105,0.006533248269901289
0.0647069,0.042374152816957035,0.020853272953646924,0.04842525987358294,0.006860581673483549,0.0859957293756166,0.01936841771878511,0.08902865609798802,0.006535611429462468
0.0651724,0.042254927284466844,0.02108080171085923,0.04828774774687043,0.006884787822270423,0.08652706046555386,0.019359856133274247,0.0890367512870724,0.006537541676280713
0.0656379,0.04213220378446875,0.021308293315090134,0.048146327007604475,0.006909172910723125,0.08705519490290746,0.019349987266588257,0.08902904060681154,0.006539046644304735
0.0661034,0.042006040529315704,0.021535708903361813,0.04800102989627773,0.006933780410467134,0.08758012552249188,0.01933883371074718,0.08900571663463623,0.0065401340552334935
0.066569,0.04187649601247222,0.021763009311888785,0.04785188939694312,0.0069586538177748136,0.08810184562411404,0.019326418378983624,0.08896697393743457,0.006540811716664218
0.0670345,0.04174362898791945,0.021990155084558347,0.04769893922821403,0.0069838366405922635,0.08862034896971631,0.019312764498832846,0.0889130090059976,0.006541087520245653
0.0675,0.0416074984496495,0.02221710648161941,0.047542213834088694,0.007009372385572638,0.08913562978042387,0.019297895605137925,0.0888440201894518,0.006540969439836918
0.0679655,0.04146816361125821,0.022443823488580022,0.04738174837460196,0.007035304545119047,0.08964768273349269,0.019281835532971366,0.08876020762970241,0.006540465529672357
0.068431,0.04132568388564624,0.022670265825313757,0.0472175787163077,0.007061676584440147,0.09015650295915341,0.01926460841047437,0.08866177319591143,0.00653958392253272
0.0688966,0.0411801188648376,0.022896392955375024,0.047049741422594854,0.007088531928621468,0.0906620860373468,0.019246238651615205,0.08854892041903373,0.006538332827923034
0.0693621,0.04103152829992545,0.023122164095523267,0.04687827374384009,0.007115913949715569,0.09116442799434647,0.019226750948868315,0.08842185442643458,0.006536720530257479
0.0698276,0.04087997208115436,0.023347538225455898,0.046703213607399624,0.007143865953854042,0.09166352529926547,0.019206170265815965,0.08828078187661123,0.0065347553870516144
0.0702931,0.040725510218148485,0.023572474097749593,0.04652459960744308,0.0071724311683844305,0.09215937486044427,0.01918452182967441,0.08812591089404155,0.006532445827122264
0.0707586,0.040568202820295,0.023796930248009388,0.046342470994632,0.007201652729035094,0.09265197402171921,0.01916183112374672,0.08795745100418181,0.00652980034879542
0.0712241,0.04040811007729204,0.024020865005224906,0.04615686766564558,0.007231573667111085,0.09314132055857086,0.019138123879804476,0.08777561306863606,0.006526827518122479
0.0716897,0.04024529223987034,0.024244236502332806,0.04596783015255644,0.007262236896724145,0.09362741267415256,0.019113426070400504,0.08758060922051901,0.006523535967105127
0.0721552,0.040079809600697666,0.024467002686984377,0.0457753996120588,0.007293685202059954,0.09411024899519918,0.01908776390111475,0.08737265280003428,0.006519934391929165
0.0726207,0.039911722475474906,0.024689121332517102,0.045579617814551596,0.007325961224685826,0.09458982856781654,0.01906116380273545,0.08715195829028898,0.006516031551207512
0.0730862,0.03974109118423267,0.02491055004912871,0.04538052713307926,0.00735910745090205,0.09506615085315254,0.019033652423377716,0.08691874125336546,0.006511836264232641
0.0735517,0.03956797603283688,0.025131246295252114,0.04517817053213282,0.0073931661991401085,0.09553921572295093,0.01900525662054161,0.08667321826667083,0.006507357409238637
0.0740172,0.03939243729471179,0.02535116738912944,0.04497259155631457,0.007428179607410996,0.09600902345498968,0.018976003453112,0.08641560685958356,0.006502603921673103
0.0744828,0.03921453519278847,0.025570270520583246,0.04476383431887002,0.007464189620806837,0.096475574728406,0.018945920173302475,0.08614612545041656,0.006497584792479122
0.0749483,0.039034329881686446,0.025788512762982573,0.04455194349009104,0.007501237979058985,0.09693887061890978,0.01891503421854583,0.08586499328371616,0.006492309066387484
0.0754138,0.03885188143013617,0.026005851085401554,0.044336964285594326,0.0075393662041557145,0.09739891259388726,0.018883373203333907,0.08557243036791534,0.006486785840219395
0.0758793,0.03866724980364929,0.02622224236496797,0.04411894245447949,0.007578615588022616,0.09785570250739622,0.018850964911009637,0.08526865741335972,0.00648102426119987
0.0763448,0.038480494847443605,0.026437643399398997,0.04389792426737082,0.007619027180268732,0.09830924259505365,0.01881783728551441,0.08495389577072428,0.006475033525281975
0.0768103,0.03829167626962925,0.026652010919721213,0.04367395650434702,0.007660641776001431,0.09875953546881654,0.018784018423093886,0.08462836736983861,0.0064688228754820635
0.0772759,0.038100853624662166,0.02686530160317163,0.04344708644276289,0.007703499903712961,0.09920658411165566,0.018749536563965375,0.08429229465893809,0.006462401600226123
0.0777414,0.037908086297070875,0.02707747208627658,0.04321736184496713,0.0077476418132415795,0.0996503918721215,0.018714420083949995,0.08394590054435795,0.006455779031707312
0.0782069,0.03771343348546219,0.027288478978105005,0.04298483094592023,0.007793107463810078,0.10009096245880145,0.018678697486072718,0.0835894083306878,0.006448964544254735
0.0786724,0.03751695418681118,0.027498278873692626,0.0427495424407167,0.007839936512144508,0.10052829993466642,0.018642397392133518,0.08322304166140276,0.00644196755271341
0.0791379,0.037318707181040564,0.027706828367633378,0.0425115454720155,0.00788816830067586,0.10096240871130588,0.01860554853425301,0.08284702445998825,0.0064347975108353704
0.0796034,0.03711875101589419,0.027914084067834282,0.042270889617382804,0.007937841845827394,0.1013932935430498,0.018568179746395966,0.08246158087157429,0.0064274639096817635
0.080069,0.03691714399210921,0.028120002609429883,0.04202762487655052,0.007988995826390274,0.10182095952097753,0.018530319955876205,0.08206693520509555,0.006419976276035778
0.0805345,0.036713944148891085,0.028324540668852108,0.04178180165859439,0.008041668571990105,0.10224541206681327,0.018491998174846175,0.08166331187599242,0.006412344170826171
0.081,0.036509209249695355,0.028527654978051275,0.041533470769035186,0.008095898051646913,0.10266665692670879,0.018453243491774744,0.08125093534946833,0.006404577187561113
0.0814655,0.0363029967683198,0.028729302338863724,0.0412826833968667,0.008151721862431117,0.10308470016491442,0.018414085062916363,0.08083003008431783,0.006396684950772073
0.081931,0.03609536387531034,0.02892943963752137,0.04102949110151428,0.008209177218217921,0.103499548157339,0.01837455210377488,0.0804008204773396,0.006388677114467409
0.0823966,0.035886367424683735,0.02912802385929829,0.04077394579972814,0.008268300938542633,0.10391120758499957,0.018334673880565103,0.07996353080834795,0.006380563360595342
0.0828621,0.035676063940969775,0.029325012103289194,0.040516099752415755,0.008329129437559347,0.1043196854273613,0.018294479701675078,0.07951838518579608,0.006372353397515926
0.0833276,0.03546450960657556,0.02952036159731444,0.040256005551417805,0.008391698713105484,0.10472498895556784,0.018253998909132006,0.07906560749302409,0.006364056958481695
0.0837931,0.03525176024947408,0.029714029712946115,0.039993716106232424,0.008456044335874702,0.10512712572556225,0.01821326087007479,0.0786054213351439,0.006355683800126595
0.0842586,0.03503787133121918,0.029905973980649536,0.03972928463069258,0.00852220143870074,0.10552610357109812,0.01817229496823605,0.0781380499865728,0.006347243700962892
0.0847241,0.03482289793528867,0.030096152105034465,0.03946276462960141,0.008590204705954762,0.10592193059664093,0.018131130595436654,0.0776637163392267,0.006338746459885753
0.0851897,0.03460689475575729,0.03028452198021012,0.03919420988533047,0.008660088363058817,0.1063146151701595,0.018089797143095734,0.07718264285138343,0.006330201894685306
0.0856552,0.0343899160863008,0.03047104170523785,0.0389236744443858,0.008731886166118058,0.1067041659158089,0.018048323993759195,0.07669505149722611,0.006321619840565999
0.0861207,0.03417201580953244,0.030655669599675264,0.038651212603946765,0.008805631391674345,0.10709059170650673,0.01800674051264971,0.07620116371707542,0.006313010148673213
0.0865862,0.03395324738667277,0.030838364219205345,0.03837687889838256,0.008881356826583873,0.10747390165640588,0.01796507603924123,0.07570120036831954,0.006304382684627081
0.0870517,0.03373366384755354,0.031019084371343916,0.03810072808575112,0.008959094758021405,0.10785410511326791,0.017923359878860748,0.07519538167704955,0.006295747327063608
0.0875172,0.03351331778095628,0.03119778913121886,0.03782281513428526,0.009038876963613678,0.10823121165074032,0.017881621294320253,0.07468392719040737,0.006287113966183187
0.0879828,0.03329226132528587,0.031374437857414235,0.03754319520887044,0.009120734701704469,0.10860523106054196,0.01783988949758136,0.07416705572965335,0.006278492502306696
0.0884483,0.03307054615957915,0.031548990207872434,0.03726192365751877,0.009204698701753843,0.10897617334455927,0.01779819364145525,0.0736449853439594,0.0062698928444393535
0.0889138,0.03284822349484858,0.031721406155847204,0.03697905599784355,0.00929079915487402,0.10934404870685614,0.01775656281134036,0.07311793326493377,0.006261324908842549
0.0893793,0.03262534406576065,0.031891646005900304,0.03669464790353904,0.00937906570450434,0.10970886754559891,0.017715026017000198,0.07258611586188302,0.006252798617613898
0.0898448,0.032401958122648296,0.03205967040993443,0.03640875519086988,0.009469527437227813,0.1100706404448981,0.01767361218438377,0.0720497485978164,0.00624432389727571
0.0903103,0.03217811542385669,0.032225440383254866,0.03612143380517495,0.009562212873731778,0.110429378166567,0.01763235014749093,0.07150904598619792,0.0062359106773721105
0.0907759,0.03195386522842119,0.03238891732065236,0.035832739807390476,0.009657149959915179,0.11078509164179685,0.017591268640285013,0.07096422154845054,0.006227568889075029
0.0912414,0.03172925628907618,0.03255006301249988,0.035542729360597644,0.009754366058145008,0.1111377919627477,0.017550396288654974,0.07041548777221791,0.006219308463799283
0.0917069,0.03150433684559318,0.03270883966085582,0.035251458716599536,0.009853887938664475,0.11148749037405395,0.017509761602429313,0.06986305607038791,0.00621113933182705
0.0921724,0.03127915461844644,0.03286520989556653,0.0349589842025326,0.009955741771155397,0.11183419826424264,0.017469392967443934,0.06930713674088258,0.006203071420942109
0.0926379,0.031053756802803912,0.03301913679036113,0.03466536220751754,0.010059953116457344,0.11217792715706319,0.017429318637666003,0.06874793892721877,0.006195114655074341
0.0931034,0.030828190062841366,0.03317058387893161,0.0343706491693545,0.010166546918445972,0.1125186887027266,0.017389566727375943,0.06818567057984322,0.006187278952955071
0.093569,0.03060250052637742,0.033319515170991326,0.03407490156126699,0.010275547496073041,0.11285649466905362,0.01735016520340964,0.0676205384182457,0.006179574226783953
0.0940345,0.030376733779826637,0.03346589516830506,0.03377817587869908,0.010386978535570478,0.1131913569325322,0.017311141877463024,0.06705274789385318,0.006172010380908164
0.0945,0.030150934863468107,0.033609688880684,0.033480528626169924,0.01050086308282087,0.11352328746928647,0.017272524398461088,0.06648250315370757,0.006164597310514716
0.0949655,0.029925148267026504,0.03375086184193858,0.03318201630418977,0.010617223535896676,0.11385229834596171,0.01723434024499349,0.06591000700492872,0.006157344900336756
0.095431,0.029699417925562365,0.03388938012578259,0.03288269539624146,0.010736081637770373,0.1141784017105311,0.017196616717818834,0.06533546087996404,0.006150263023374699
0.0958966,0.029473787215668238,0.03402521036168134,0.032582622355831085,0.01085745846919771,0.11450160978303228,0.017159380932439645,0.06475906480262551,0.006143361539633062
0.0963621,0.029248298951967,0.03415831975063726,0.03228185359361173,0.010981374441776161,0.11482193484624122,0.017122659811750228,0.06418101735491401,0.006136650294873834
0.0968276,0.029022995383908453,0.034288676080905654,0.0319804454645837,0.01110784929118064,0.11513938923629242,0.01708648007875948,0.06360151564463079,0.006130139119387196
0.0972931,0.028797918192859987,0.034416247743633645,0.031678454255374945,0.01123690207057849,0.11545398533325363,0.017050868249391005,0.06302075527377526,0.0061238378267803395
0.0977586,0.028573108489487076,0.03454100374841507,0.03137593617160511,0.011368551144225742,0.11576573555166347,0.017015850625362913,0.062438930307727576,0.006117756212785135
0.0982241,0.028348606811418906,0.03466291373875405,0.031072947325336945,0.011502814181246556,0.11607465233104097,0.016981453287149707,0.06185623324521449,0.006111904054085311
0.0986897,0.028124453121194538,0.034781948007429654,0.030769543722618496,0.011639708149597762,0.11638074812637578,0.01694770208702877,0.06127285498905631,0.006106291107163805
0.0991552,0.027900686804484584,0.03489807751175402,0.03046578125111983,0.011779249310220346,0.11668403539860867,0.016914622642213967,0.06068898481769253,0.006100927107170893
0.0996207,0.027677346668583486,0.03501127388871626,0.030161715667867746,0.011921453211379737,0.11698452660511159,0.01688224032807882,0.060104810357483406,0.006095821766813643
0.1000862,0.027454470941167132,0.0351215094700045,0.029857402587082086,0.012066334683196706,0.11728223419017626,0.016850580271471734,0.0595205175557848,0.00609098477526724
0.1005517,0.027232097269310567,0.03522875729689847,0.029552897468117168,0.012213907832370667,0.11757717057552045,0.016819667344125554,0.05893629065479343,0.006086425797108625
0.1010172,0.0270102627187603,0.03533299113502537,0.02924825560351182,0.012364186037097184,0.11786934815082112,0.016789526156163748,0.0583523121661597,0.006082154471272917
0.1014828,0.026789003773455698,0.035434185488971946,0.028943532107151525,0.012517181942181379,0.11815877926428407,0.016760181049705267,0.05776876284636525,0.006078180410032968
0.1019483,0.026568356335293756,0.03553231561674599,0.02863878190254614,0.012672907454348977,0.11844547621325999,0.01673165609257017,0.057185821672861986,0.006074513198002432
0.1024138,0.026348355724131446,0.03562735754408069,0.028334059711226607,0.012831373737756606,0.11872945123491757,0.016703975072087936,0.05660366582096938,0.006071162391162635
0.1028793,0.026129036678019673,0.03571928807857551,0.02802942004126391,0.012992591209702893,0.11901071649698433,0.016677161489010228,0.056022470641526545,0.00606813751591357
0.1033448,0.02591043335366266,0.035808084823667374,0.027724917175913556,0.013156569536541917,0.1192892840885655,0.016651238551529834,0.05544240963929544,0.0060654480681492685
0.1038103,0.025692579327096385,0.035893726192425805,0.02742060516238859,0.013323317629800413,0.1195651660110514,0.01662622916940738,0.05486365445211112,0.006063103512357782
0.1042759,0.025475507594579446,0.035976191421165746,0.027116537800764118,0.01349284364250015,0.11983837416912226,0.016602155948207305,0.05428637483077483,0.006061113280746012
0.1047414,0.025259250573689662,0.03605546058287171,0.026812768633016276,0.013665154965686791,0.12010892036186037,0.016579041183644665,0.053710738619685644,0.006059486772389573
0.1052069,0.025043840104619436,0.03613151460042704,0.02650935093219842,0.013840258225166522,0.12037681627397784,0.01655690685604416,0.05313691173820582,0.00605823335240787
0.1056724,0.024829307451662706,0.036204335259642055,0.0262063376917575,0.014018159278451613,0.12064207346716839,0.016535774624912847,0.052565058162754905,0.00605736235116456
0.1061379,0.024615683304886178,0.036273905222075006,0.025903781614993383,0.01419886321191603,0.1209047033715911,0.016515665823627904,0.05199533990962733,0.006056883063493489
0.1066034,0.02440299778197733,0.03634020803763971,0.025601735104663945,0.014382374338162073,0.12116471727749382,0.016496601454240655,0.05142791701852782,0.006056804747950214
0.107069,0.024191280430261412,0.036403228156993685,0.02530025025273872,0.014568696193598954,0.12142212632698411,0.016478602182398158,0.05086294753681896,0.006057136626089183
0.1075345,0.02398056022887964,0.036462950943700494,0.024999378830303703,0.014757831536234106,0.1216769415059547,0.016461688332383415,0.050300587504475004,0.006057887881766587
0.108,0.023770865591120675,0.03651936268615992,0.02469917227761985,0.014949782343677867,0.12192917363617142,0.016445879882275336,0.04974099093973571,0.006059067660468891
0.1084655,0.023562224366897443,0.03657245060929937,0.024399681694337604,0.015144549811362104,0.12217883336753152,0.016431196459229476,0.04918430982545452,0.006060685068667041
0.108931,0.023354663845361428,0.03662220288601994,0.024100957829869717,0.015342134350973358,0.12242593117050074,0.016417657334880504,0.048630694096134554,0.006062749173196324
0.1093966,0.023148210757646854,0.03666860864839025,0.023803051073924327,0.015542535589100867,0.12267047732873727,0.01640528142086732,0.04808029162564622,0.006065269000661865
0.1098621,0.022942891279737438,0.03671165799858112,0.023506011447200388,0.015745752366099958,0.1229124819319115,0.01639408726448157,0.04753324821561991,0.006068253536869758
0.1103276,0.02273873103544868,0.03675134201953392,0.02320988859224738,0.015951782735171192,0.12315195486873012,0.016384093044440242,0.04698970758450695,0.00607171172628379
0.1107931,0.022535755099519224,0.03678765278535515,0.02291473176449122,0.01616062396165561,0.1233889058201736,0.01637531656678304,0.046449811357301744,0.006075652471507744
0.1112586,0.022333988000805084,0.03682058337142987,0.022620589823428433,0.016372272522546454,0.12362334425295546,0.016367775260895043,0.04591369905591805,0.006080084632793219
0.1117241,0.02213345372557091,0.036850127864246233,0.022327511223990494,0.01658672410621774,0.1238552794132119,0.01636148617565515,0.045381508090211624,0.0060850170275729
0.1121897,0.02193417572087269,0.03687628137092397,0.02203554400808025,0.016803973612369943,0.12408472032043,0.016356465975710704,0.044853373749641844,0.006090458430019193
0.1126552,0.021736176898026375,0.03689904002843939,0.02174473579628227,0.01702401515219305,0.12431167576162254,0.01635273093787853,0.04432942919556434,0.006096417570628084
0.1131207,0.021539479636156864,0.036918401012540264,0.021455133779748847,0.01724684204874718,0.12453615428575714,0.016350296947672562,0.04380980545414637,0.0061029031358280994
0.1135862,0.02134410578582196,0.036934362546344114,0.021166784712263107,0.01747244683756083,0.12475816419844749,0.01634917949595798,0.04329463140989693,0.006109923767614188
0.1140517,0.021150076672705655,0.03694692390861422,0.02087973490248086,0.017700821267446782,0.12497771355691352,0.01634939367573183,0.042784033799802855,0.0061174880632063056
0.1145172,0.020957413101375406,0.03695608544170802,0.020594030206352334,0.017931956301535667,0.12519481016521636,0.016350954179029778,0.04227813720806189,0.006125604574732492
0.1149828,0.020766135359098176,0.03696184855919328,0.020309716019725033,0.018165842118526898,0.12540946156977353,0.01635387529395873,0.04177706406140394,0.0061342818089362055
0.1154483,0.020576263219710136,0.03696421575312786,0.020026837271128778,0.018402468114156773,0.12562167505515842,0.01635817090185484,0.04128093462499104,0.0061435282269076425
0.1159138,0.020387815947535252,0.03696319060099917,0.01974543841474372,0.0186418229028833,0.12583145764018797,0.01636385447456648,0.04078986699888653,0.006153352243838793
0.1163793,0.02020081230134814,0.036958777772319706,0.01946556342355214,0.018883894319787237,0.12603881607430223,0.01637093907186162,0.040303977115083614,0.006163762228801938
0.1168448,0.020015270538376994,0.03695098303487511,0.01918725578267462,0.019128669422688666,0.12624375683423922,0.016379437338959073,0.03982337873508347,0.0061747665045513295
0.1173103,0.01983120841834266,0.03693981326062088,0.018910558482890995,0.019376134494478503,0.1264462861210084,0.016389361504183263,0.03934818344801247,0.0061863733473477645
0.1177759,0.01964864320753036,0.03692527643122404,0.01863551401434652,0.019626275045664075,0.1266464098571662,0.016400723376742064,0.038878500669268096,0.00619859098680579
0.1182414,0.01946759168289102,0.03690738164324545,0.018362164360443443,0.01987907581712803,0.12684413368439662,0.01641353434462744,0.038414437639683,0.006211427605763254
0.1187069,0.01928807013616934,0.03688613911295862,0.01809055099191822,0.020134520783099817,0.1270394629613995,0.01642780537263854,0.037956099425196045,0.0062248913401728835
0.1191724,0.019110094378056313,0.03686156018080052,0.01782071486110437,0.020392593154338924,0.12723240276208914,0.01644354700052676,0.0375035889170196,0.0062389902790156
0.1196379,0.018933679742363957,0.036833657315449825,0.017552696396380966,0.02065327538152915,0.12742295787410565,0.016460769341262317,0.03705700683229159,0.0062537324642352385
0.1201034,0.018758841090220475,0.036802444117527734,0.017286535496806726,0.02091654915888309,0.12761113279764105,0.01647948207942163,0.0366164517152014,0.006269125890694315
0.120569,0.01858559281428419,0.036767935322916646,0.017022271526939435,0.02118239542795611,0.1277969317445809,0.016499694469694837,0.036182019938578114,0.006285178506150506
0.1210345,0.018413948842974745,0.036730146805691706,0.016759943311840504,0.021450794381668935,0.12798035863796317,0.016521415335512744,0.035753805705930404,0.006301898211253467
0.1215,0.018243922644720162,0.03668909558066038,0.016499589132264365,0.021721725468537997,0.1281614171117545,0.0165446530677923,0.03533190105392695,0.006319292859561643
0.1219655,0.018075527232218332,0.03664479980550525,0.01624124672003224,0.021995167397112533,0.12834011051094424,0.01656941562379993,0.03491639585530676,0.006337370257578748
0.122431,0.017908775166711518,0.03659727878252544,0.01598495325358982,0.02227109814061737,0.1285164418919575,0.016595710526131985,0.03450737782220869,0.006356138164809606
0.1228966,0.017743678562272422,0.036546552959972264,0.01573074535374822,0.022549494941800176,0.12869041402338807,0.016623544861811713,0.03410493250990967,0.00637560429383503
0.1233621,0.017580249090100225,0.03649264393297523,0.015478659079607576,0.022830334317981746,0.12886202938705313,0.016652925281502143,0.033709143320960915,0.006395776310405476
0.1238276,0.017418497982824986,0.03643557444405451,0.01522872992466244,0.023113592066307878,0.12903129017936982,0.01668385799883437,0.033320091509711526,0.006416661833553127
0.1242931,0.01725843603881868,0.036375368383216804,0.014980992813088088,0.0233992432692011,0.129198198313055,0.01671634878985076,0.032937856187208535,0.0064382684357220535
0.1247586,0.017100073626511204,0.03631205078763143,0.014735482096206752,0.02368726230001042,0.12936275541914866,0.016750402992562696,0.03256251432646256,0.006460603642916065
0.1252241,0.0169434206887097,0.036245647840883605,0.014492231549132664,0.023977622828857202,0.1295249628493606,0.016786025506622684,0.03219414076806795,0.006483674934863804
0.1256897,0.016788486746919698,0.0361761868718019,0.014251274367594685,0.024270297828675062,0.12968482167874096,0.016823220793110796,0.03183280822616654,0.006507489745200573
0.1261552,0.016635280905666888,0.03610369635285663,0.014012643164935192,0.024565259581441786,0.12984233270867335,0.016861992874435475,0.03147858729474397,0.006532055461666365
0.1266207,0.016483811856818593,0.036028205898126095,0.013776369969283789,0.024862479684601244,0.1299974964701899,0.016902345334348718,0.03113154645424771,0.006557379426319497
0.1270862,0.01633408788390424,0.03594974626082714,0.013542486220904273,0.025161929057673196,0.1301503132276061,0.016944281318075568,0.030791752078515956,0.006583468935765223
0.1275517,0.016186116866434556,0.03586834933040666,0.01331102276971326,0.02546357794904887,0.13030078298247313,0.01698780353255782,0.030459268442006467,0.006610331241398649
0.1280172,0.01603990628421949,0.03578404812919033,0.013082009872968663,0.02576739594297027,0.13044890547784516,0.017032914246811873,0.030134157727314464,0.006637973549661273
0.1284828,0.01589546322168504,0.03569687680858506,0.012855477193126191,0.02607335196669108,0.13059468020285736,0.01707961529240049,0.029816480032968617,0.006666403022310443
0.1289483,0.015752794372189446,0.03560687064483178,0.012631453795861912,0.02638141429781678,0.13073810639761138,0.017127908064018302,0.029506293381494263,0.006695626776701042
0.1294138,0.015611906042339274,0.0355140660343054,0.012409968148258834,0.026691550571821637,0.1308791830583636,0.017177793520190908,0.02920365372773326,0.006725651886078776
0.1298793,0.015472804156306008,0.03541850048835957,0.012191048117155403,0.027003727789739928,0.13101790894301282,0.017229272184087416,0.02890861496741029,0.006756485379884505
0.1303448,0.015335494260143785,0.035320212627713836,0.011974720967653816,0.027317912326028627,0.13115428257688302,0.017282344144446606,0.028621228945935946,0.0067881342440691125
0.1308103,0.015199981526108922,0.03521924217638204,0.01176101336178601,0.027634069936598525,0.13128830225879717,0.01733700905661691,0.028341545467437515,0.006820605421418534
0.1312759,0.015066270756981795,0.03511562995514055,0.011549951357335199,0.02795216576701067,0.13141996606743805,0.017393266143710583,0.028069612304009187,0.006853905811888625
0.1317414,0.014934366390391621,0.03500941787453597,0.011341560406810856,0.02827216436083497,0.1315492718679913,0.01745111419787251,0.02780547520517408,0.006888042272949627
0.1322069,0.014804272503144682,0.03490064892743197,0.011135865356575137,0.028594029668167577,0.131676217319066,0.01751055158166405,0.027549177907551195,0.006923021619940048
0.1326724,0.014675992815556468,0.0347893671810952,0.010932890446118686,0.02891772505430394,0.13180079987988866,0.01757157622956239,0.027300762144721002,0.006958850626429821
0.1331379,0.014549530695788248,0.03467561776882036,0.010732659307483731,0.02924321330856417,0.13192301681776572,0.017634185649575838,0.027060267657283737,0.0069955360245926015
0.1336034,0.01442488916418858,0.03455944688109442,0.010535194964832436,0.029570456653267508,0.1320428652158101,0.017698376924975546,0.026827732203104936,0.007033084505587068
0.134069,0.01430207089764021,0.0344409017563,0.010340519834158344,0.0298994167528527,0.13216034198092658,0.017764146716144145,0.026603191567742716,0.007071502719947136
0.1345345,0.014181078233912825,0.034320030670957714,0.010148655723138802,0.030230054723140883,0.1322754438520504,0.01783149126254185,0.026386679575051537,0.007110797277980899
0.135,0.014061913176021946,0.034196882929507684,0.009959623831126047,0.03056233114073745,0.13238816740863266,0.01790040638479059,0.026178228097957154,0.007150974750178127
0.1354655,0.013944577396594314,0.034071508853630486,0.00977344474927469,0.03089620605256925,0.1324985090793648,0.01797088748687676,0.025977867069397597,0.0071920416676260965
0.135931,0.013829072242239905,0.033943959771109034,0.009590138460803232,0.031231638985553308,0.1326064651511348,0.018042929558473347,0.025785624493425342,0.007234004522433497
0.1363966,0.01371539873793078,0.03381428800423374,0.009409724341387146,0.031568588956393105,0.13271203177820529,0.018116527177382043,0.025601526456465934,0.0072768697681621615
0.1368621,0.013603557591386877,0.03368254685775468,0.009232221159681087,0.031907014481498366,0.13281520499160437,0.018191674512096107,0.02542559713872867,0.007320643820266333
0.1373276,0.01349354919746885,0.03354879060638573,0.009057647077967718,0.032246873587024244,0.13291598070871818,0.018268365324484653,0.025257858825764968,0.007365333056539211
0.1377931,0.013385373642577959,0.03341307448186682,0.008886019652930632,0.03258812381902554,0.13301435474307363,0.01834659297259899,0.025098331920170133,0.007410943817566501
0.1382586,0.013279030709063111,0.03327545465959143,0.008717355836548894,0.032930722253721616,0.13311032281429913,0.01842635041360147,0.024947034953424034,0.007457482407186724
0.1387241,0.01317451987963502,0.03313598824480695,0.008551671977110724,0.033274625507867306,0.13320388055825091,0.018507630206817307,0.02480398459786623,0.0075049550929580195
0.1391897,0.01307184034178738,0.03299473325839618,0.008388983820343874,0.03361978974922492,0.13329502353729203,0.018590424516909537,0.024669195678800847,0.007553368106631208
0.1396552,0.012970990992224908,0.03285174862224848,0.008229306510660261,0.03396617070713242,0.13338374725071095,0.018674725117177313,0.024542681186726523,0.007602727644628834
0.1401207,0.012871970441298102,0.03270709414422902,0.008072654592512406,0.03431372368316248,0.13347004714526534,0.018760523392977527,0.02442445228968676,0.007653039868529924
0.1405862,0.012774777017444358,0.03256083050275437,0.007919042011859233,0.03466240356186717,0.133553918625837,0.018847810345269594,0.02431451834573632,0.007704310905560112
0.1410517,0.01267940877163524,0.03241301923098302,0.007768482117738757,0.035012164821602666,0.13363535706618232,0.018936576594283158,0.0242128869155195,0.007756546849086772
0.1415172,0.01258586348182965,0.03226372270062882,0.007620987663945114,0.03536296154542837,0.13371435781976213,0.019026812383308375,0.02411956377495642,0.007809753759118726
0.1419828,0.012494138657432624,0.03211300410540604,0.007476570810807383,0.03571474743207468,0.13379091623063422,0.019118507582608323,0.024034552928033612,0.007863937662810074
0.1424483,0.012404231543759489,0.03196092744411413,0.0073352431270675665,0.03606747580697387,0.13386502764439104,0.01921165169345297,0.02395785661969526,0.00791910455496763
0.1429138,0.012316139126505008,0.03180755750337073,0.0071970155918550365,0.03642109963334852,0.13393668741912487,0.01930623385227415,0.02388947534883127,0.00797526039856148
0.1433793,0.012229858136217098,0.0316529598400013,0.007061898596754753,0.03677557152335208,0.13400589093640294,0.019402242834940776,0.023829407881358365,0.008032411125238115
0.1438448,0.012145385052774594,0.031497200763093654,0.00692990194796648,0.03713084374925618,0.13407263361223515,0.019499667061153428,0.023777651263390327,0.00809056263583565
0.1443103,0.012062716109868494,0.03134034731572558,0.0068010348685522285,0.03748686825467915,0.1341369109080181,0.01959849459895736,0.02373420083449335,0.008149720800900586
0.1447759,0.011981847299486061,0.031182467256373476,0.006675306000769126,0.03784359666584999,0.13419871834143982,0.01969871316937293,0.02369905024102249,0.008209891461205598
0.1452414,0.011902774376397135,0.03102362904000996,0.006552723408484902,0.03820098030290215,0.13425805149732986,0.01980031015114228,0.023672191449535047,0.00827108042826778
0.1457069,0.011825492862642006,0.030863901798898488,0.006433294579673202,0.038558970191191116,0.1343149060384396,0.019903272585591165,0.02365361476027668,0.00833329348486672
0.1461724,0.01174999805202024,0.030703355323092995,0.006317026428985898,0.03891751707263018,0.13436927771613746,0.02000758718160458,0.0236433088207357,0.008396536385561756
0.1466379,0.011676285014579853,0.030542060040650985,0.006203925300399616,0.039276571417038636,0.13442116238100493,0.02011324032071501,0.023641260639260957,0.008460814857207663
0.1471034,0.011604348601106223,0.03038008699756882,0.0060939969699336915,0.03963608343349695,0.13447055599332078,0.02022021806230194,0.023647455598738414,0.008526134599468004
0.147569,0.01153418344761026,0.030217507837448244,0.005987246648436768,0.03999600308170331,0.13451745463342374,0.020328506148901238,0.023661877470321602,0.0085925012853253
0.1480345,0.011465783979815286,0.030054394780903583,0.005883678984439249,0.04035628008332636,0.13456185451194597,0.020438090011623,0.023684508427210895,0.008659920561587145
0.1485,0.011399144417642176,0.02989082060471937,0.005783298067068787,0.040716863933348495,0.13460375197991156,0.02054895477567623,0.023715329058476613,0.008728398049387362
0.1489655,0.011334258779692331,0.029726858620768258,0.005686107429025954,0.041077703911394224,0.13464314353869514,0.020661085265998663,0.023754318382920827,0.008797939344681264
0.149431,0.011271120887728112,0.0295625826546991,0.005592110049617193,0.04143874909303781,0.13468002584983624,0.020774466012989892,0.02380145386297271,0.00886855001873404
0.1498966,0.011209724371150384,0.029398067024404992,0.005501308357842139,0.04179994836108452,0.13471439574470492,0.02088908125834581,0.02385671141861209,0.008940235618601283
0.1503621,0.011150062671472897,0.029233386518280946,0.005413704235532295,0.04216125041681967,0.13474625023401446,0.02100491496099236,0.02392006544131577,0.00901300166760061
0.1508276,0.011092129046793188,0.029068616373280724,0.005329299020538073,0.04252260379121982,0.1347755865171758,0.021121950803116456,0.02399148880802107,0.009086853665773335
0.1512931,0.01103591657625969,0.028903832252782292,0.005248093509961123,0.04288395685612076,0.13480240199148874,0.02124017219629185,0.024070952895100972,0.009161797090335126
0.1517586,0.01098141816453468,0.02873911022427113,0.005170087963428892,0.04324525783533737,0.13482669426116314,0.02135956228769765,0.02415842759234534,0.009237837396114577
0.1522241,0.010928626546252646,0.02857452673685056,0.005095282106408275,0.043606454815730576,0.13484846114616378,0.021480103966427105,0.024253881316942495,0.009314980015978618
0.1526897,0.010877534290473664,0.028410158598588024,0.005023675133555257,0.04396749575821692,0.1348677006908716,0.02160177986988427,0.024357281027455657,0.009393230361243683
0.1531552,0.010828133805131406,0.02824608295370607,0.004955265712097382,0.0443283285087165,0.13488441117255365,0.02172457239026599,0.02446859223778879,0.009472593822071504
0.1536207,0.010780417341475473,0.02808237725962652,0.004890051985245902,0.044688900809034926,0.13489859110963562,0.021848463681126685,0.024587779031136427,0.009553075767848347
0.1540862,0.010734376998507836,0.02791911926387617,0.004828031575634408,0.0450491603076756,0.13491023926976967,0.021973435664023308,0.02471480407391207,0.009634681547546466
0.1545517,0.010690004727413346,0.02775638698086206,0.004769201588780746,0.045409054570579026,0.13491935467769176,0.022099470035237916,0.024849628629649855,0.009717416490066471
0.1550172,0.01064729233598445,0.027594258668524115,0.004713558616568947,0.04576853109178659,0.1349259366228619,0.02222654827257523,0.024992212572874192,0.009801285904559294
0.1554828,0.010606231493040305,0.027432812804873023,0.004661098740747923,0.04612753730402671,0.13492998466688086,0.022354651642232486,0.02514251440293218,0.009886295080726384
0.1559483,0.010566813732840819,0.027272128064420906,0.004611817536443651,0.04648602058922197,0.1349314986506765,0.022483761205738893,0.025300491257783417,0.00997244928909688
0.1564138,0.010529030459496174,0.027112283294512367,0.004565710075681529,0.04684392828891655,0.13493047870145236,0.02261385782696167,0.02546609892774219,0.010059753781280477
0.1568793,0.010492872951372691,0.026953357491563457,0.004522770930915651,0.047201207714623036,0.13492692523939173,0.02274492217917581,0.02563929186916675,0.010148213790194845
0.1573448,0.010458332365495968,0.026795429777216044,0.004482994178561707,0.0475578061580885,0.13492083898410925,0.022876934752194402,0.02582002321809067,0.010237834530266509
0.1578103,0.010425399741952378,0.026638579374415,0.004446373402530277,0.04791367090147969,0.13491222096084293,0.023009875859556442,0.026008244803791193,0.010328621197604167
0.1582759,0.010394066008290096,0.026482885583415598,0.00441290169775723,0.04826874922748745,0.13490107250637892,0.02314372564576883,0.026203907162289528,0.010420578970143434
0.1587414,0.010364321983920817,0.02632842775772841,0.004382571673728022,0.048622988429350755,0.13488739527470198,0.02327846409359942,0.02640695954977824,0.010513713007761999
0.1592069,0.010336158384523356,0.026175285280009005,0.00435537545799276,0.048976335820800874,0.1348711912423645,0.023414071031418116,0.026617349955970974,0.010608028452364136
0.1596724,0.01030956582645022,0.02602353753789962,0.004331304699668997,0.04932873874592651,0.13485246271356802,0.023550526140583377,0.02683502511737008,0.010703530427933473
0.1601379,0.010284534831138246,0.02587326389982996,0.004310350572929422,0.0496801445889607,0.1348312123249509,0.023687808962871468,0.027059930530447997,0.010800224040552859
0.1606034,0.010261055829524229,0.02572454369078422,0.0042925037804717936,0.050030500783990524,0.13480744305007852,0.023825898907946053,0.027292010464738538,0.010898114378390085
0.161069,0.010239119166466502,0.025577456168041277,0.004277754556968688,0.05037975482459022,0.1347811582036329,0.0239647752608657,0.0275312079758346,0.010997206511648242
0.1615345,0.010218715105173297,0.02543208049689495,0.004266092672494872,0.050727854273378656,0.13475236144529992,0.024104417189626783,0.027777464918289335,0.011097505492479428
0.162,0.010199833831638682,0.025288495726361073,0.0042575074359302734,0.051074746771501436,0.13472105678335344,0.024244803752739155,0.028030721958418183,0.01119901635486044
0.1624655,0.010182465459086833,0.025146780764877967,0.004251987698336715,0.05142038004803795,0.13468724857793532,0.024385913906831872,0.028290918586999534,0.011301744114429114
0.162931,0.010166600032425343,0.02500701435600682,0.004249521856306692,0.051764701929333065,0.13465094154403046,0.024527726514285968,0.028557993131872426,0.011405693768279938
0.1633966,0.01015222753270826,0.024869275054138305,0.004250097855282545,0.05210766034825318,0.13461214075413577,0.024670220350891364,0.028831882770429838,0.011510870294717626
0.1638621,0.010139337881609397,0.024733641200211685,0.004253703192844464,0.05244920335336602,0.13457085164062324,0.024813374113524706,0.029112523542006576,0.011617278652967385
0.1643276,0.010127920945906508,0.024600190897452533,0.004260324921965788,0.052789279118043375,0.13452707999779756,0.024957166427844787,0.02939985036016102,0.011724923782840558
0.1647931,0.010117966541976761,0.02446900198713528,0.004269949654234072,0.05312783594948635,0.13448083198365005,0.025101575856002024,0.029693797024850088,0.01183381060435443
0.1652586,0.010109464440303922,0.024340152024376387,0.0042825635630364175,0.053464822297673235,0.13443211412131198,0.025246580904358315,0.02999429623449698,0.011943944017304831
0.1657241,0.010102404369997608,0.024213718253963977,0.004298152386707601,0.05380018676423103,0.13438093330021172,0.02539216003121344,0.03030127959795138,0.01205532890079024
0.1661897,0.010096776023324821,0.02408977758622958,0.004316701431639606,0.05413387811123227,0.13432729677694,0.025538291654534053,0.030614677646341695,0.012167970112686034
0.1666552,0.010092569060253962,0.02396840657296748,0.004338195575351258,0.05446584526991938,0.13427121217582938,0.025684954159681205,0.03093441984481901,0.012281872489067544
0.1671207,0.010089773113011421,0.023849681383407203,0.004362619269516832,0.05479603734935908,0.13421268748925347,0.025832125907132356,0.03126043460419234,0.012397040843580686
0.1675862,0.010088377790650756,0.023733677780244527,0.004389956542952625,0.05512440364502892,0.1341517310776519,0.025979785240193867,0.03159264929245507,0.012513479966759044
0.1680517,0.010088372683634413,0.02362047109573662,0.004420191004560685,0.055450893647338115,0.13408835166928704,0.0261279104927,0.03193099024620284,0.012631194625286373
0.1685172,0.01008974736842787,0.023510136207866912,0.004453305846229038,0.05577545705008465,0.13402255835973909,0.026276479996694607,0.03227538278194364,0.012750189561203643
0.1689828,0.010092491412106113,0.023402747516585536,0.004489283845687924,0.05609804375885021,0.13395436061114702,0.026425472090091492,0.03262575120730164,0.01287046949105982
0.1694483,0.010096594376972287,0.02329837892013142,0.0045281073693217095,0.05641860389933488,0.13388376825120366,0.026574865124309878,0.03298201883211699,0.012992039105005671
0.1699138,0.010102045825188363,0.02319710379144223,0.0045697583749363,0.056737087825633366,0.13381079147191358,0.02672463747188142,0.03334410797944408,0.013114903065829955
0.1703793,0.010108835323417706,0.023098994954658565,0.004614218414482056,0.057053446128454616,0.13373544082812258,0.026874767534025495,0.03371193999645151,0.01323906600793745
0.1708448,0.010116952447479382,0.023004124661729082,0.004661468636732358,0.05736762964328696,0.13365772723582642,0.027025233748189638,0.03408543526522688,0.013364532536268344
0.1713103,0.01012638678701402,0.022912564569123273,0.004711489789918172,0.057679589458510705,0.13357766197026594,0.027176014595551988,0.034464513213489874,0.013491307225158598
0.1717759,0.010137127950161008,0.022824385714658658,0.004764262224319149,0.05798927692346032,0.13349525666381512,0.027327088608482725,0.03484909232521705,0.013619394617141053
0.1722414,0.010149165568246772,0.02273965849444933,0.004819765894812016,0.05829664365643852,0.13341052330366834,0.027478434377961294,0.03523909015118202,0.013748799221687138
0.1727069,0.010162489300483765,0.022658452639982715,0.004877980363377165,0.05860164155268479,0.13332347422933327,0.02763003056094629,0.035634423319414604,0.013879525513889225
0.1731724,0.010177088838679765,0.022580837195331327,0.0049388848015645545,0.05890422279230145,0.13323412212993557,0.0277818558876948,0.03603500754558306,0.014011577933083913
0.1736379,0.010192953911957008,0.022506880494506193,0.005002457992920122,0.05920433984814027,0.1331424800413415,0.02793388916902802,0.036440757643303213,0.014144960881416651
0.1741034,0.010210074291480633,0.02243665013895849,0.0050686783353739665,0.059501945493653056,0.13304856134310394,0.028086109303539802,0.03685158753437898,0.014279678722348298
0.174569,0.010228439795195925,0.02237021297523586,0.0051375238435916,0.05979699281070932,0.13295237975523688,0.028238495284745063,0.03726741025897842,0.014415735779104318
0.1750345,0.010248040292573814,0.022307635072799713,0.005208972151289595,0.06008943519738416,0.13285394933482272,0.028391026208164905,0.03768813798574993,0.014553136333067356
0.1755,0.010268865709364066,0.022248981702009698,0.005283000513516986,0.06037922637571927,0.1327532844724563,0.028543681278345646,0.03811368202188274,0.014691884622113906
0.1759655,0.01029090603235561,0.022194317312281497,0.005359585808903826,0.060666320399459545,0.13265039988852928,0.028696439815809115,0.03854395282311637,0.014831984838895826
0.176431,0.010314151314143385,0.0221437055104241,0.0054387045418783754,0.06095067166176763,0.13254531062935884,0.02884928126393187,0.038978860003702966,0.014973441129067287
0.1768966,0.010338591677901042,0.022097209039162624,0.005520332844854492,0.06123223490291834,0.13243803206316448,0.02900218519575123,0.03941831234632671,0.015116257589457817
0.1773621,0.010364217322158783,0.022054889755852927,0.005604446480390793,0.06151096521797453,0.1323285798758975,0.029155131320696116,0.039862217811984034,0.015260438266192047
0.1778276,0.010391018525585613,0.022016808611394174,0.0056910208433232756,0.06178681806444575,0.1322169700669289,0.02930809949124079,0.040310483549828406,0.015405987152756805
0.1782931,0.010418985651775235,0.02198302562934586,0.0057800309628730446,0.06205974926993044,0.13210321894460278,0.029461069709479752,0.04076301590698317,0.01555290818801621
0.1787586,0.010448109154034772,0.021953599885255567,0.005871451504730823,0.06232971503974223,0.1319873431216634,0.02961402213362192,0.04121972043832625,0.015701205254175447
0.1792241,0.010478379580175503,0.021928589486204048,0.005965256773119958,0.06259667196452041,0.13186935951056394,0.029766937084402194,0.04168050191625062,0.01585088217469394
0.1796897,0.010509787577304704,0.021908051550574147,0.006061420712839606,0.06286057702782459,0.13174928531866534,0.029919795051408567,0.04214526434040466,0.016001942712148595
0.1801552,0.010542323896617634,0.021892042188050125,0.0061599169112898115,0.06312138761371285,0.13162713804333395,0.030072576699322912,0.04261391094741702,0.01615439056604785
0.1806207,0.010575979398188624,0.02188061647985408,0.006260718600480242,0.06337906151430284,0.1315029354669455,0.03022526287407367,0.04308634422061074,0.016308229370597234
0.1810862,0.010610745055760127,0.02187382845922606,0.006363798659024345,0.06363355693731532,0.1313766956518031,0.03037783460889883,0.04356246589971187,0.016463462692417143
0.1815517,0.010646611961528501,0.02187173109215456,0.006469129614120792,0.06388483251359965,0.13124843693497673,0.030530273130317594,0.044042176990558006,0.016620094028213468
0.1820172,0.010683571330925217,0.021874376258364085,0.00657668364352413,0.06413284730464104,0.1311181779230701,0.03068255986400914,0.04452537777481231,0.016778126802401705
0.1824828,0.010721614507392138,0.021881814732566608,0.006686432577506588,0.06437756081004882,0.13098593748692167,0.030834676440596877,0.04501196781968881,0.016937564364685027
0.1829483,0.01076073296714943,0.02189409616598356,0.00679834790081306,0.06461893297502538,0.13085173475624565,0.030986604701336372,0.045501845987694564,0.017098409987586827
0.1834138,0.010800918323954599,0.021911269068145094,0.0069124007546113,0.064856924197815,0.13071558911421827,0.03113832670370505,0.04599491044639439,0.017260666863938137
0.1838793,0.010842162333851081,0.02193338078897335,0.007028561938439388,0.06509149533713157,0.13057752019201438,0.0312898247268914,0.04649105867820373,0.017424338104320196
0.1843448,0.010884456899904785,0.02196047750115614,0.007146801912152552,0.06532260771956504,0.1304375478632988,0.03144108127718132,0.04699018749021498,0.01758942673446237
0.1848103,0.010927794076926869,0.021992604182817673,0.007267090797871415,0.06555022314696547,0.1302956922386763,0.03159207909323902,0.04749219302406255,0.017755935692595617
0.1852759,0.010972166076180956,0.02202980460049253,0.007389398381933735,0.06577430390380451,0.13015197366010298,0.031742801151279726,0.047996970765831815,0.01792386782676148
0.1857414,0.011017565270072914,0.022072121292409107,0.007513694116851677,0.06599481276451306,0.13000641269526214,0.03189323067013138,0.04850441555601679,0.018093225892076657
0.1862069,0.011063984196821232,0.022119595552088527,0.007639947123276624,0.06621171300079427,0.12985903013190556,0.032043351116182346,0.049014421599531274,0.018264012547953127
0.1866724,0.011111415565105974,0.02217226741226507,0.0077681261919734885,0.06642496838891003,0.12970984697216098,0.03219314620821197,0.04952688247577785,0.018436230355273798
0.1871379,0.011159852258694168,0.022230175629133864,0.007898199785806493,0.0666345432169392,0.12955888442680538,0.032342599922101034,0.050041691148778954,0.018609881773523813
0.1876034,0.011209287341039488,0.022293357666931662,0.008030136041738327,0.06684040229200501,0.12940616390950208,0.032491696495418845,0.050558739977373854,0.01878496915787775
0.188069,0.011259714059854011,0.022361849682856347,0.008163902772844579,0.06704251094746921,0.12925170703099964,0.032640420431883796,0.0510779207254856,0.018961494756243077
0.1885345,0.011311125851649752,0.022435686512330626,0.008299467470345316,0.06724083505008945,0.1290955355932892,0.032788756505694655,0.05159912457246183,0.01913946070626038
0.189,0.01136351634624765,0.022514901654615317,0.008436797305655615,0.06743534100713694,0.1289376715837166,0.032936689765730144,0.052122242123493596,0.019318869032261172
0.1894655,0.011416879371251602,0.02259952725877747,0.008575859132456896,0.0676259957734707,0.1287781371690457,0.03308420553961496,0.05264716342011671,0.019499721642184137
0.189931,0.011471208956485138,0.02268959411001831,0.008716619488790866,0.06781276685856452,0.1286169546894684,0.033231289437650864,0.05317377795080018,0.019682020324450794
0.1903966,0.011526499338388245,0.022785131616366035,0.008859044599177914,0.0679956223334825,0.1284541466525569,0.0333779273566116,0.053701974661626725,0.019865766744801703
0.1908621,0.01158274496437188,0.02288616779573815,0.0090031003767619,0.06817453083779873,0.12828973572715405,0.033524105483400665,0.05423164196707023,0.020050962443094445
0.1913276,0.011639940497127622,0.02299272926337808,0.009148752425483263,0.06834946158645652,0.12812374473719687,0.033669810298570683,0.05476266776087499,0.020237608830064622
0.1917931,0.01169808081888996,0.023104841219670453,0.009295966042282512,0.06852038437656167,0.12795619665546906,0.03381502857970323,0.05529493942704154,0.02042570718405119
0.1922586,0.011757161035648611,0.023222527438339455,0.00944470621933612,0.06868726959410454,0.12778711459727976,0.03395974740464757,0.0558283438509232,0.020615258647687432
0.1927241,0.011817176481308185,0.023345810255034252,0.009594937646326945,0.06885008822060544,0.1276165218140673,0.034103954154616915,0.05636276743043757,0.020806264224558807
0.1931897,0.011878122721792582,0.023474710556305574,0.009746624712751265,0.06900881183967802,0.12744444168692798,0.03424763651714037,0.05689809608739688,0.02099872477582881
0.1936552,0.0119399955590914,0.023609247768977347,0.009899731510264539,0.06916341264350555,0.12727089772007202,0.034390782488868704,0.057434215278961,0.021192641016833977
0.1941207,0.012002791035245656,0.023749439849917283,0.010054221835067996,0.06931386343922587,0.1270959135342092,0.03453338037823194,0.05797101000921693,0.02138801351364907
0.1945862,0.012066505436270162,0.023895303276210148,0.010210059190338112,0.06946013765522109,0.12691951285986794,0.03467541880794678,0.058508364840888664,0.021584842679623528
0.1950517,0.01213113529600993,0.02404685303573762,0.010367206788701087,0.06960220934730814,0.1267417195306508,0.03481688671737181,0.059046163907180996,0.021783128771890318
0.1955172,0.012196677399927908,0.024204102618168476,0.010525627554754323,0.06974005320482643,0.126562557476431,0.034957773364708865,0.05958429092376086,0.021982871887848265
0.1959828,0.012263128788821413,0.024367064006362897,0.010685284127636939,0.06987364455661937,0.1263820507164937,0.035098068329048625,0.06012262920087941,0.022184071961618902
0.1964483,0.012330486762464515,0.024535747668194673,0.010846138863651284,0.07000295937690665,0.1262002233526273,0.035237761512259234,0.06066106165563807,0.022386728760478897
0.1969138,0.012398748883173643,0.024710162548795045,0.011008153838937357,0.07012797429104453,0.12601709956217003,0.035376843140716145,0.06119947082440217,0.022590841881268912
0.1973793,0.01246791297929363,0.02489031606322188,0.01117129085220199,0.07024866658117254,0.12583270359101717,0.03551530376687196,0.061737738875365926,0.02279641074677977
0.1978448,0.01253797714860146,0.025076214089557885,0.011335511427504616,0.07036501419174455,0.1256470597465942,0.03565313427066495,0.06227574762127304,0.02300343460211661
0.1983103,0.012608939761624999,0.02526786096244138,0.011500776817101453,0.07047699573494262,0.12546019239080128,0.03579032586076556,0.06281337853229804,0.023211912511041738
0.1987759,0.012680799464874108,0.025465259467033315,0.011667048004349945,0.07058459049597134,0.12527212593293435,0.03592687007566018,0.06335051274909381,0.023421843352296707
0.1992414,0.0127535551839816,0.025668410833423885,0.011834285706675395,0.07068777843823011,0.12508288482258867,0.0360627587845718,0.06388703109601118,0.023633225815904314
0.1997069,0.012827206126751594,0.02587731473148216,0.012002450378601799,0.0707865402083607,0.12489249354254937,0.03619798418821705,0.0644228140944971,0.023846058399451246
0.2001724,0.012901751786112973,0.026091969266152107,0.01217150221484898,0.07088085714116682,0.12470097660167465,0.03633253881939902,0.06495774197667785,0.024060339404352354
0.2006379,0.012977191942975712,0.02631237097319812,0.012341401153498228,0.07097071126440346,0.12450835852777604,0.03646641554343516,0.06549169469913392,0.024276066932098
0.2011034,0.013053526668987955,0.026538514815403334,0.012512106879228775,0.07105608530343316,0.12431466386049987,0.03659960755841929,0.0660245519568729,0.02449323888048627
0.201569,0.01313075632919175,0.02677039417922361,0.012683578826627554,0.07113696268574708,0.12411991714421276,0.0367321083953166,0.06655619319750651,0.024711852939842256
0.2020345,0.013208881584575432,0.027008000871900254,0.012855776183574811,0.07121332754534852,0.12392414292089458,0.03686391191789048,0.06708649763563748,0.024931906589226664
0.2025,0.013287903394520508,0.027251325119034095,0.013028657894708275,0.07128516472699596,0.12372736572304023,0.03699501232245982,0.06761534426746152,0.02515339709263632
0.2029655,0.013367823019140966,0.027500355562623657,0.013202182664968596,0.07135245979030298,0.12352961006657211,0.037125404137485774,0.06814261188558898,0.025376321495198802
0.203431,0.013448642021512702,0.02775507925956979,0.013376308963228854,0.07141519901369267,0.12333090044376423,0.037255082222987054,0.06866817909409033,0.025600676619363476
0.2038966,0.013530362269790756,0.028015481680649032,0.013550995026010973,0.07147336939820455,0.12313126131617949,0.03738404176978335,0.06919192432376885,0.0258264590610911
0.2043621,0.013612985939211964,0.028281546709957882,0.013726198861291816,0.07152695867115301,0.12293071710762087,0.037512278298566654,0.06971372584766396,0.026053665186044177
0.2048276,0.013696515513980606,0.028553256644830133,0.013901878252401703,0.07157595528963696,0.12272929219709727,0.03763978765880121,0.07023346179678758,0.02628229112578018
0.2052931,0.013780953789034664,0.028830592196229295,0.01407799076201801,0.07162034844390101,0.1225270109118047,0.03776656602745286,0.07075101017609572,0.026512332773949796
0.2057586,0.013866303871690366,0.029113532489618312,0.014254493736256446,0.07166012806054821,0.1223238975201224,0.03789260990754949,0.07126624888069724,0.026743785782502336
0.2062241,0.01395256918316286,0.029402055066308698,0.014431344308862499,0.07169528480560422,0.12211997622462345,0.03801791612657424,0.0717790557123013,0.02697664555790042
0.2066897,0.014039753459961014,0.02969613588529124,0.01460849940550547,0.07172581008743247,0.12191527115509943,0.038142481834693404,0.07228930839590497,0.027210907257345866
0.2071552,0.014127860755154485,0.02999574932555023,0.014785915748177504,0.07175169605949917,0.121709806361598,0.038266304502820835,0.07279688459672216,0.027446565785018726
0.2076207,0.014216895439511401,0.03030086818886314,0.014963549859699922,0.07177293562298705,0.12150360580747273,0.03838938192052107,0.07330166193735481,0.027683615788331235
0.2080862,0.014306862202505133,0.03061146370308733,0.015141358068339219,0.07178952242925613,0.121296693362444,0.03851171219375326,0.07380351801520738,0.027922051654198442
0.2085517,0.014397766053188692,0.030927505525935282,0.015319296512535064,0.07180145088215024,0.12108909279566994,0.03863329374245844,0.07430233042014556,0.028161867505327502
0.2090172,0.014489612320935296,0.0312489617492395,0.015497321145742655,0.07180871614014776,0.12088082776882583,0.03875412529799245,0.07479797675240046,0.02840305719652751
0.2094828,0.014582406656043554,0.03157579890370817,0.01567538774139183,0.0718113141183551,0.12067192182918979,0.03887420590040708,0.07529033464071959,0.028645614311042126
0.2099483,0.014676155030205734,0.03190798196417251,0.01585345189796532,0.07180924149034161,0.12046239840273282,0.03899353489558171,0.07577928176076645,0.028889532156907146
0.2104138,0.014770863736837453,0.03224547435532633,0.016031469044198644,0.07180249568981446,0.12025228078721081,0.039112111932207705,0.07626469585377094,0.029134803763335406
0.2108793,0.014866539391266993,0.03258823795795856,0.01620939444440401,0.07179107491213259,0.12004159214525688,0.03922993695862761,0.07674645474543274,0.029381421877131428
0.2113448,0.014963188930782502,0.032936233115679024,0.016387183203920748,0.07177497811565947,0.11983035549747335,0.03934701021953132,0.07722443636508045,0.02962937895913826
0.2118103,0.015060819614535191,0.03328941864213768,0.01656479027469471,0.07175420502295557,0.11961859371552339,0.039463332252511335,0.07769851876508867,0.0298786671807191
0.2122759,0.015159439023296613,0.03364775182873732,0.016742170460989088,0.07172875612181182,0.1194063295152226,0.03957890388447941,0.07816858014055605,0.030129278420276486
0.2127414,0.015259055059068018,0.03401118845283954,0.01691927842522913,0.07169863266612614,0.1191935854496316,0.03969372622794701,0.07863449884924666,0.03038120425981181
0.2132069,0.015359675944539717,0.03437968278646331,0.017096068693983217,0.07166383667662506,0.11898038390215088,0.039807800677172225,0.0790961534317972,0.030634435981528107
0.2136724,0.015461310222398274,0.034753187605475654,0.017272495664082625,0.07162437094143227,0.11876674707962108,0.03992112890417606,0.07955342263219294,0.030888964564479048
0.2141379,0.015563966754479297,0.03513165419927334,0.017448513608882277,0.07158023901648593,0.11855269700543167,0.040033712854630685,0.08000618541851459,0.031144780681266984
0.2146034,0.015667654720763487,0.035515032380954596,0.017624076684664713,0.07153144522580578,0.1183382555126424,0.040145554743622705,0.08045432100395847,0.03140187469479296
0.215069,0.015772383618213617,0.035903270497979485,0.017799138937189263,0.07147799466161127,0.11812344423712141,0.04025665705129425,0.08089770886813212,0.03166023665506185
0.2155345,0.01587816325945013,0.03629631544331758,0.017973654308388314,0.07141989318429078,0.11790828461070482,0.04036702251836438,0.08133622877862719,0.03191985629604595
0.216,0.015985003771263058,0.03669411266708136,0.01814757664321251,0.07135714742222178,0.11769279785438287,0.04047665414153354,0.08176976081287055,0.03218072303261072
0.2164655,0.01609291559295808,0.037096606188643695,0.018320859696626456,0.07128976477144171,0.11747700497151813,0.04058555516877333,0.08219818538025467,0.03244282595750691
0.216931,0.016201909474534558,0.037503738609237336,0.01849345714075645,0.0712177533951683,0.11726092674110282,0.0406937290945039,0.08262138324454785,0.032706153838433324
0.2173966,0.0163119964746934,0.03791545112503455,0.01866532257219156,0.0711411222231681,0.11704458371106265,0.040801179654661145,0.08303923554658507,0.03297069511517542
0.2178621,0.016423187958672668,0.03833168354070441,0.018836409519439327,0.07105988095097153,0.11682799619161591,0.04090791082165552,0.08345162382724033,0.03323643789682481
0.2183276,0.016535495595908598,0.038752374283445384,0.019006671450537138,0.07097404003893218,0.1166111842486969,0.04101392679922435,0.08385843005068158,0.03350336995908535
0.2187931,0.016648931357519832,0.03917746041749027,0.019176061780820264,0.07088361071112838,0.11639416769745362,0.04111923201717936,0.0842595366279096,0.033771478741671294
0.2192586,0.016763507513612486,0.03960687765908056,0.019344533880847562,0.07078860495410495,0.11617696609582881,0.04122383112605113,0.08465482644058266,0.034040751345802915
0.2197241,0.016879236630403745,0.04004056039190686,0.019512041084485697,0.07068903551545366,0.1159595987382342,0.04132772899163219,0.08504418286512916,0.03431117453180519
0.2201897,0.016996131567161822,0.040478441683011714,0.01967853669715271,0.07058491590223112,0.11574208464932675,0.04143093068942038,0.08542748979715037,0.03458273471681461
0.2206552,0.017114205472960105,0.04092045329915101,0.019843974004221773,0.07047626037921313,0.11552444257789625,0.041533441498964624,0.08580463167611638,0.03485541797259949
0.2211207,0.017233471783243585,0.041366525723609666,0.020008306279585872,0.07036308396698439,0.1153066909908737,0.041635266898115114,0.08617549351035808,0.035129210023498655
0.2215862,0.01735394421620585,0.04181658817346732,0.020171486794384144,0.07024540243986255,0.11508884806746955,0.041736412557180705,0.08653996090235884,0.035404096244483624
0.2220517,0.01747563676897514,0.04227056861730961,0.020333468825890405,0.07012323232365553,0.11487093169345093,0.04183688433299623,0.08689792007434931,0.03568006165934883
0.2225172,0.017598563713608194,0.04272839379338028,0.020494205666564517,0.06999659089325072,0.11465295945556757,0.041936688262902824,0.08724925789420926,0.03595709093903468
0.2229828,0.017722739592890977,0.0431899892281695,0.020653650633266914,0.06986549617003522,0.11443494863613607,0.04203583055864408,0.0875938619016798,0.03623516840008776
0.2234483,0.017848179215945652,0.04365527925543346,0.020811757076636624,0.06972996691914594,0.11421691620779266,0.04213431760018106,0.08793162033488955,0.03651427800326253
0.2239138,0.017974897653643507,0.04412418703564045,0.020968478390632973,0.06959002264654837,0.11399887882842427,0.04223215592942905,0.08826242215719755,0.03679440335226866
0.2243793,0.018102910233823814,0.04459663457583843,0.021123768022240898,0.0694456835959421,0.1137808528362878,0.04232935224391874,0.08858615708435487,0.03707552769266778
0.2248448,0.018232232536318862,0.04507254274993913,0.02127757948133974,0.06929697074549117,0.11356285424532667,0.04242591339038474,0.0889027156119867,0.03735763391092358
0.2253103,0.01836288038778561,0.04555183131941375,0.02142986635073525,0.0691439058043769,0.11334489874069285,0.0425218463582839,0.08921198904339567,0.037640704533608654
0.2257759,0.018494869856344447,0.04603441895439505,0.021580582296354393,0.06898651120917054,0.11312700167448278,0.042617158273245984,0.08951386951768596,0.03792472172677145
0.2262414,0.018628217246025706,0.046520223255181035,0.021729681077602463,0.06882481012002326,0.11290917806169358,0.04271185639045892,0.08980825003820811,0.03820966729546626
0.2267069,0.01876293909102458,0.047009160774135056,0.021877116557881923,0.06865882641667079,0.11269144257640623,0.04280594808799079,0.09009502450132238,0.038495522683448864
0.2271724,0.018899052149765127,0.04750114703797708,0.022022842715272304,0.06848858469425008,0.1124738095482009,0.04289944086005072,0.0903740877254792,0.03878226897304029
0.2276379,0.01903657339877401,0.047996096570460944,0.022166813653370483,0.06831411025892502,0.11225629295880941,0.04299234231019071,0.09064533548061389,0.03906988688516073
0.2281034,0.019175520026364554,0.04849392291543224,0.02230898361229067,0.0681354291233185,0.1120389064390085,0.043084660144450455,0.09090866451785344,0.03935835677953539
0.228569,0.019315909426131737,0.04899453866026106,0.022449306979823263,0.06795256800174845,0.11182166326575717,0.04317640216444762,0.09116397259953204,0.03964765865507369
0.2290345,0.019457759190258724,0.04949785545964399,0.02258773830275179,0.06776555430526555,0.11160457635958139,0.04326757626041599,0.09141115852951301,0.03993777215042285
0.2295,0.019601087102635677,0.05000378405976887,0.022724232298327172,0.06757441613649129,0.11138765828220928,0.04335819040419499,0.09165012218381428,0.040228676544696834
0.2299655,0.01974591113179176,0.050512234322835796,0.022858743865898562,0.06737918228425517,0.11117092123445975,0.04344825264217422,0.09188076454153504,0.040520350758381285
0.230431,0.01989224942364153,0.05102311525192745,0.022991228098699863,0.06717988221803095,0.11095437705438826,0.04353777108819798,0.09210298771608089,0.04081277335441472
0.2308966,0.02004012029404711,0.051536335016221464,0.023121640295791234,0.06697654608217184,0.11073803721569321,0.0436267539164348,0.0923166949866858,0.041105922539446636
0.2313621,0.020189542221197863,0.05205180097653727,0.02324993597415479,0.0667692046899454,0.11052191282638645,0.043715209354217764,0.09252179083022838,0.0413997761652728
0.2318276,0.02034053383780944,0.05256941971120956,0.023376070880943588,0.06655788951736902,0.11030601462773149,0.0438031456748613,0.09271818095334051,0.04169431173044854
0.2322931,0.020493113923144343,0.053089097042280035,0.02350000100588304,0.06634263269684655,0.11009035299345235,0.04389057119046017,0.09290577232480603,0.04198950638208055
0.2327586,0.020647301394856186,0.05361073806199863,0.02362168259382381,0.06612346701060713,0.1098749379292155,0.04397749424467635,0.09308447320824696,0.0422853369177984
0.2332241,0.020803115300659952,0.05413424715962529,0.02374107215744503,0.0659004258839463,0.10965977907238612,0.04406392320551899,0.09325419319509479,0.042581779787906664
0.2336897,0.02096057480983048,0.054659528048522484,0.02385812649010661,0.06567354337827011,0.10944488569205964,0.044149866458122626,0.09341484323784346,0.042878811097718704
0.2341552,0.021119699204531443,0.05518648379352869,0.02397280267884909,0.06544285418394268,0.10923026668936843,0.0442353323975282,0.0935663356835807,0.04317640661007282
0.2346207,0.021280507870977263,0.05571501683860217,0.02408505811753944,0.06520839361293858,0.10901593059806383,0.04432032942147139,0.09370858430779366,0.043474541748031434
0.2350862,0.02144302029043022,0.05624502903472437,0.024194850520160932,0.0649701975913022,0.10880188558537283,0.0444048659231824,0.09384150434844436,0.04377319159776354
0.2355517,0.021607256030035306,0.05677642166805122,0.02430213793424513,0.06472830265141688,0.10858813945312962,0.04448895028420122,0.09396501254030992,0.044072330911610454
0.2360172,0.021773234733495253,0.05730909548830081,0.024406878754443802,0.06448274592408815,0.10837469963918227,0.044572590867212235,0.09407902714958224,0.044371934111334374
0.2364828,0.02194097611158844,0.057842950737364986,0.02450903173623852,0.0642335651304457,0.10816157321907516,0.0446557960089021,0.09418346800872168,0.04467197529154906
0.2369483,0.022110499932532175,0.05837788717813206,0.024608556009785752,0.06398079857367052,0.10794876690800771,0.04473857401284447,0.0942782565515589,0.04497242822333145
0.2374138,0.02228182601219423,0.05891380412350741,0.02470541109389518,0.06372448513055365,0.10773628706307059,0.04482093314241556,0.0943633158486397,0.04527326635801294
0.2378793,0.022454974204155383,0.05945060046561837,0.024799556910138947,0.06346466424289444,0.10752413968575858,0.044902881613744124,0.09443857064280715,0.04557446283114857
0.2383448,0.022629964389626018,0.059988174705189384,0.024890953797089662,0.06320137590874612,0.10731233042476075,0.044984427588699714,0.09450394738501541,0.045875990466663005
0.2388103,0.022806816467219937,0.06052642498107293,0.024979562524685105,0.06293466067351686,0.10710086457902739,0.04506557916792265,0.09455937427036938,0.046177821781171746
0.2392759,0.022985550342588704,0.06106524909992137,0.025065344308717513,0.06266455962093417,0.10688974710111311,0.045146344383899806,0.09460478127438493,0.04647992898847689
0.2397414,0.023166185917919996,0.06160454456598457,0.02514826082544543,0.062391114363880486,0.10667898260079617,0.04522673119409023,0.09464010018946364,0.04678228400423698
0.2402069,0.02334874308130336,0.06214420861101751,0.025228274226326078,0.06211436703510724,0.10646857534897315,0.04530674747410498,0.09466526466157674,0.04708485845081073
0.2406724,0.023533241695966912,0.06268413822428205,0.025305347152866312,0.061834360277835176,0.10625852928182802,0.045386401010945876,0.09468021022715219,0.04738762366227439
0.2411379,0.02371970158938842,0.06322423018262631,0.02537944275159009,0.061551137236247805,0.10604884800527438,0.04546569949630824,0.09468487435015982,0.04769055068961243
0.2416034,0.02390814254228434,0.06376438108062513,0.02545052468912036,0.06126474154588526,0.10583953479966954,0.04554465051995311,0.0946791964593884,0.047993610306081035
0.242069,0.024098584277480174,0.0643044873607647,0.02551855716737319,0.0609752173239454,0.10563059262479894,0.0456232615631544,0.09466311798590846,0.04829677301274407
0.2425345,0.024291046448665518,0.06484444534365404,0.025583504938861835,0.06068260915949891,0.10542202412512926,0.045701539992226876,0.09463658240071456,0.048600009044180686
0.243,0.02448554862903694,0.06538415125824579,0.025645333322108253,0.060386962103624646,0.10521383163532795,0.04577949305214024,0.09459953525253932,0.048903288374364036
0.2434655,0.024682110299831916,0.06592350127204871,0.025704008217159367,0.06008832165947137,0.10500601718604662,0.04585712786022524,0.09455192420583165,0.04920658072271049
0.243931,0.02488075083875704,0.06646239152131334,0.02575949612120527,0.059786733772251584,0.10479858250996424,0.04593445139997722,0.09449369907889034,0.04950985556029831
0.2443966,0.02508148950831373,0.06700071814117232,0.025811764144296326,0.05948224481917283,0.10459152904808625,0.04601147051496268,0.09442481188214355,0.049813082116254695
0.2448621,0.025284345444024976,0.06753837729571648,0.025860780025156047,0.0591749015993116,0.10438485795629407,0.046088191902834495,0.09434521685656465,0.05011622938430965
0.2453276,0.02548933764256683,0.0680752652079874,0.02590651214708651,0.05886475132343461,0.1041785701121391,0.04616462210946106,0.09425487051221365,0.050419266129515215
0.2457931,0.02569648494980875,0.06861127818986791,0.025948929553962934,0.05855184160377241,0.10397266612187453,0.0462407675231749,0.09415373166689364,0.05072216089512764
0.2462586,0.025905806048767164,0.06914631267185165,0.025988001966314015,0.0582362204437501,0.10376714632771757,0.04631663436914564,0.09404176148491122,0.05102488200965041
0.2467241,0.02611731944747703,0.06968026523267391,0.026023699797484402,0.05791793622768027,0.1035620108153341,0.046392228703882335,0.09391892351592951,0.05132739759403526
0.2471897,0.026331043466786566,0.07021303262878657,0.026055994169875554,0.05759703771042341,0.10335725942153759,0.046467556409869465,0.09378518373390245,0.05162967556903823
0.2476552,0.02654699622808058,0.07074451182366052,0.026084856931261106,0.057273574007021114,0.10315289174219293,0.04654262319034096,0.09364051057607824,0.05193168366272737
0.2481207,0.026765195640938245,0.07127460001690047,0.026110260671172728,0.05694759458230731,0.10294890714031572,0.046617434564196265,0.09348487498206003,0.052233389418138466
0.2485862,0.02698565939073135,0.07180319467315756,0.026132178737352477,0.056619149240502896,0.10274530475435743,0.04669199586106219,0.09331825043291148,0.05253476020107516
0.2490517,0.027208404926169324,0.07233019355082675,0.02615058525226749,0.05628828811479858,0.10254208350666578,0.04676631221650414,0.09314061299029423,0.052835763208049655
0.2495172,0.027433449446797365,0.07285549473051706,0.02616545512968289,0.05595506165693052,0.10233924211210996,0.04684038856739011,0.09295194133562412,0.053136365474360195
0.2499828,0.027660809890454094,0.07337899664328415,0.026176764091288655,0.055619520626753044,0.10213677908686068,0.04691422964741094,0.09275221680923298,0.05343653388230187
0.2504483,0.02789050292069509,0.07390059809861575,0.026184488683376164,0.05528171608181232,0.10193469275731498,0.04698783998275988,0.0925414234495226,0.05373623516950706
0.2509138,0.028122544914188547,0.07442019831216122,0.026188606293559995,0.05494169936692472,0.10173298126915609,0.04706122388797446,0.09231954803209695,0.054035435937412245
0.2513793,0.0283569519480892,0.07493769693319739,0.026189095167540536,0.05459952210376332,0.10153164259653889,0.04713438546194375,0.09208658010885948,0.05433410265984767
0.2518448,0.028593739787396814,0.07545299407182254,0.02618593442590279,0.05425523618045612,0.101330674551391,0.047207328584083615,0.09184251204706137,0.054632201691746395
0.2523103,0.02883292387230536,0.07596599032587058,0.02617910408094667,0.05390889374119956,0.1011300747928196,0.04728005691068253,0.09158733906828696,0.05492969927796897
0.2527759,0.02907451930554944,0.0764765868075372,0.026168585053543972,0.05356054717589082,0.10092984083661467,0.04735257387141993,0.09132105928736185,0.055226561562240095
0.2532414,0.02931854083975458,0.07698468516970984,0.02615435919001697,0.05321024910978266,0.10072997006483944,0.04742488266605915,0.09104367375116863,0.05552275459619307
0.2537069,0.029565002864798292,0.07749018763199307,0.02613640927903351,0.05285805239316446,0.10053045973549979,0.047496986261316675,0.09075518647735503,0.055818244348517905
0.2541724,0.029813919395188994,0.07799299700642173,0.02611471906851328,0.052504010091073236,0.1003313069922844,0.047568887387909584,0.09045560449291806,0.056112996714208364
0.2546379,0.030065304057470165,0.07849301672285432,0.02608927328253979,0.05214817547303823,0.10013250887436838,0.0476405885377827,0.09014493787264717,0.05640697752390294
0.2551034,0.030319170077657318,0.07899015085404015,0.026060057638272634,0.05179060200286244,0.09993406232627274,0.04771209196151721,0.08982319977740853,0.05670015255331461
0.255569,0.030575530268715338,0.07948430414035453,0.026027058862854755,0.05143134332844458,0.09973596420777214,0.047783399665922766,0.08949040649225225,0.056992487532743545
0.2560345,0.03083439701808402,0.07997538201419739,0.02599026471030942,0.051070453271644736,0.0995382113038433,0.04785451341181506,0.08914657746432346,0.057283948156666584
0.2565,0.031095782275259345,0.08046329062405227,0.025949663978421706,0.050707985818196986,0.09934080033464668,0.04792543471198104,0.08879173534055777,0.057574500093397096
0.2569655,0.031359697539438104,0.08094793685820367,0.025905246525599435,0.05034399510767221,0.09914372796553508,0.04799616482933362,0.08842590600514151,0.057864108994808414
0.257431,0.03162615384723319,0.08142922836811209,0.025857003287708485,0.049978535423494105,0.09894699081708253,0.04806670477525778,0.08804911861671644,0.058152740506113736
0.2578966,0.03189516176046686,0.08190707359144762,0.025804926294877305,0.0496116611830113,0.09875058547512784,0.04813705530814944,0.08766140564530925,0.05844036027569508
0.2583621,0.03216673135404897,0.08238138177478428,0.025749008688265358,0.04924342692762816,0.09855450850082734,0.048207216932148265,0.08726280290896563,0.05872693396497332
0.2588276,0.032440872203946994,0.08285206299595817,0.02568924473679025,0.048873887312996855,0.0983587564407113,0.04827718989606547,0.08685334961006871,0.05901242725831131
0.2592931,0.03271759337525479,0.0833190281860934,0.02562562985380823,0.04850309709927288,0.09816332583673922,0.04834697419250728,0.0864330883713219,0.05929680587294167
0.2597586,0.032996903410366714,0.08378218915130033,0.025558160613742713,0.048131111141436124,0.09796821323634824,0.04841656955719444,0.08600206527137615,0.059580035568910936
0.2602241,0.0332788103172639,0.08424145859405004,0.025486834768655535,0.047757984379679444,0.0977734152024899,0.048485975468477646,0.08556032988008169,0.05986208215903201
0.2606897,0.03356332155791932,0.08469675013422899,0.025411651264755464,0.04738377182986651,0.09757892832364976,0.04855519114704876,0.08510793529334408,0.06014291151883696
0.2611552,0.033850444036828284,0.08514797832987735,0.02533261025883843,0.04700852857406052,0.09738474922384432,0.04862421555584731,0.08464493816756438,0.060422489596522855
0.2616207,0.0341401840896712,0.08559505869761351,0.025249713134653674,0.0466323097511251,0.0971908745725891,0.048693047400161255,0.08417139875364361,0.06070078242288306
0.2620862,0.034432547472115604,0.08603790773274697,0.025162962519190042,0.046255170547398104,0.09699730109483154,0.048761685127921055,0.08368738093053095,0.060977756121216954
0.2625517,0.03472753934876462,0.08647644292908108,0.025072362298876303,0.045877166187439214,0.0968040255808421,0.04883012693018541,0.08319295223829562,0.06125337691721088
0.2630172,0.03502516428225921,0.08691058279840672,0.024977917635689482,0.045498351924851424,0.09661104489605574,0.04889837074181682,0.082688183910702,0.06152761114878314
0.2634828,0.035325426222541985,0.08734024688968725,0.024879634983165068,0.04511878303317665,0.09641835599085632,0.04896641424234475,0.08217315090726729,0.06180042527588564
0.2639483,0.03562832849629049,0.08776535580793454,0.024777522102303016,0.04473851479686569,0.09622595591029559,0.04903425485701392,0.08164793194478116,0.06207178589025462
0.2644138,0.0359338737965279,0.0881858312327758,0.024671588077363475,0.04435760250232261,0.09603384180373901,0.04910188975801486,0.08111260952826585,0.06234165972510252
0.2648793,0.0362420641724195,0.08860159593671046,0.024561843331546214,0.043976101429023855,0.0958420109344318,0.04916931586589341,0.0805672699813553,0.06261001366474256
0.2653448,0.036552901019263104,0.08901257380305616,0.024448299642547862,0.04359406684071279,0.0956504606889791,0.049236529851135705,0.08001200347607199,0.06287681475413724
0.2658103,0.036866385068681784,0.08941868984358269,0.024330970157991003,0.04321155397667021,0.09545918858673601,0.04930352813592475,0.07944690406197992,0.063142030208362
0.2662759,0.037182516379027225,0.08981987021583215,0.024209869410719252,0.04282861804306196,0.09526819228910366,0.04937030689606457,0.07887206969469261,0.06340562742197488
0.2667414,0.0375012943260019,0.09021604224012295,0.024085013333952188,0.04244531420436476,0.0950774696087282,0.04943686206306775,0.07828760226371506,0.06366757397828338
0.2672069,0.03782271759350811,0.09060713441623476,0.02395641927629401,0.04206169757487137,0.09488701851859956,0.049503189326402255,0.07769360761959869,0.06392783765849966
0.2676724,0.03814678416473198,0.09099307643977146,0.0238241060165896,0.04167782321027638,0.09469683716104675,0.04956928413589325,0.07709019560038835,0.06418638645077587
0.2681379,0.038473491313469964,0.09137379921819748,0.02368809377862143,0.041293746099343706,0.09450692385662732,0.0496351417042758,0.07647748005734055,0.06444318855911138
0.2686034,0.03880283559570548,0.09174923488654334,0.023548404245640694,0.04090952115565653,0.0943172771129083,0.04970075700989401,0.07585557887989214,0.06469821241212366
0.269069,0.03913481284144301,0.09211931682277483,0.02340506057472574,0.04052520320945036,0.0941278956331375,0.04976612479954215,0.07522461401985873,0.06495142667167463
0.2695345,0.03946941814680698,0.09248397966282047,0.02325808741096085,0.0401408469995295,0.09393877832480411,0.049831239591442755,0.07458471151484215,0.06520280024134396
0.27,0.03980664586641269,0.09284315931525011,0.023107510901428107,0.03975650716526686,0.09374992430808879,0.04989609567835684,0.07393600151082615,0.06545230227474055
0.2704655,0.04014648960601676,0.09319679297559805,0.02295335870900514,0.03937223823868715,0.09356133292420336,0.04996068713082082,0.07327861828393996,0.06569990218364323
0.270931,0.040488942215454654,0.09354481914032267,0.022795660025961218,0.03898809463663299,0.0933730037436207,0.05002500780050481,0.07261270026136898,0.06594556964596258
0.2713966,0.04083399578187299,0.09388717762039492,0.022634445587344176,0.03860413065301367,0.09318493657419537,0.050089051323686296,0.071938390041392,0.06618927461351543
0.2718621,0.041181641623264466,0.09422380955450681,0.022469747684150453,0.038220400451136075,0.0929971314691765,0.05015281112483351,0.07125583441252423,0.06643098731960444
0.2723276,0.041531870282313546,0.09455465742189177,0.022301600176270378,0.037836958056117274,0.09280958873511454,0.0502162804202922,0.07056518437174572,0.06667067828639639
0.2727931,0.041884671520560836,0.09487966505474808,0.022130038505200705,0.03745385734737803,0.09262230893966425,0.05027945222206978,0.06986659514179452,0.066908318332093
0.2732586,0.04224003431289429,0.09519877765025649,0.021955099706516237,0.037071152051216284,0.09243529291928658,0.05034231934171051,0.06916022618750384,0.06714387857788948
0.2737241,0.04259794684237527,0.0955119417821829,0.021776822422092213,0.03668889573345955,0.09224854178685166,0.05040487439425543,0.06844624123116289,0.06737733045471686
0.2741897,0.0429583964954074,0.09581910541205732,0.021595246912069044,0.036307141792194846,0.09206205693914553,0.05046710980228096,0.06772480826688064,0.0676086457097645
0.2746552,0.04332136985725597,0.09612021789991958,0.021410415066550708,0.03592594345057496,0.09187584006428287,0.050529017800010054,0.06699609957393177,0.06783779641277965
0.2751207,0.043686852707925744,0.0964152300146221,0.021222370417028104,0.03554535374969938,0.09168989314902792,0.05059059043749014,0.06626029172906361,0.06806475496214093
0.2755862,0.044054830018404476,0.09670409394367922,0.021031158147518554,0.035165425541568325,0.0915042184860258,0.05065181958483268,0.06551756561774286,0.06828949409070276
0.2760517,0.04442528594727972,0.09698676330265243,0.020836825105412463,0.03478621148210796,0.09131881868094603,0.05071269693650976,0.06476810644432009,0.06851198687140778
0.2765172,0.04479820383773587,0.09726319314406057,0.020639419812018264,0.03440776402426477,0.09113369665954145,0.05077321401570365,0.06401210374109027,0.06873220672266495
0.2769828,0.04517356621493819,0.09753333996580446,0.020438992472796493,0.03403013541116686,0.09094885567462496,0.05083336217870626,0.06324975137622701,0.06895012741349117
0.2774483,0.04555135478381045,0.0977971617190957,0.020235594987273772,0.03365337766935031,0.090764299312968,0.0508931326193659,0.06248124756056879,0.06916572306841429
0.2779138,0.045931550427212295,0.09805461781587951,0.02002928095862743,0.03327754260204853,0.09058003150212396,0.05095251637358002,0.06170679485323518,0.06937896817213556
0.2783793,0.04631413320452243,0.0983056691357438,0.019820105702931273,0.032902681782542964,0.0903960565171797,0.05101150432383294,0.060926600166051705,0.06958983757394956
0.2788448,0.04669908235063333,0.09855027803230636,0.019608126258053006,0.0325288465475737,0.09021237898743782,0.051070087203778536,0.06014087476676226,0.06979830649191941
0.2793103,0.04708637627536322,0.09878840833907478,0.01939340139219363,0.032156087990808845,0.09002900390303173,0.051128255602867975,0.05934983428100891,0.0700043505168054
0.2797759,0.04747599256329045,0.09902002537477476,0.019175991612059184,0.031784456956371505,0.08984593662147534,0.05118599997102293,0.05855369869305918,0.07020794561574556
0.2802414,0.04786790797401576,0.09924509594814455,0.018955959170655033,0.031414004032423636,0.08966318287414897,0.051243310623354694,0.057752692345262126,0.07040906813568765
0.2807069,0.0482620984428573,0.09946358836219434,0.01873336807469302,0.031044779544805626,0.0894807487727221,0.05130017774492942,0.05694704393621488,0.070607694806572
0.2811724,0.04865853908198317,0.0996754724179314,0.018508284091601768,0.030676833550730608,0.08929864081551411,0.051356591395579444,0.05613698651762262,0.07080380274426568
0.2816379,0.04905720418198576,0.09988071941755232,0.018280774756130647,0.030310215832532333,0.0891168658937927,0.05141254151476055,0.055322757489835644,0.0709973694532486
0.2821034,0.049458067213902134,0.10007930216710413,0.018050909376537947,0.029944975891465202,0.08893543129800956,0.05146801792645475,0.05450459859604809,0.07118837282905316
0.282569,0.04986110083168394,0.10027119497861665,0.0178187590403541,0.029581162941554915,0.08875434472397241,0.05152301034411783,0.05368275591514397,0.07137679116045847
0.2830345,0.05026627687512044,0.10045637367170782,0.017584396619710927,0.029218825903498093,0.08857361427895151,0.05157750837567101,0.052857479853176716,0.07156260313144049
0.2835,0.050673566373217606,0.10063481557466404,0.01734789677622806,0.028858013398608894,0.08839324848771836,0.05163150152853576,0.0520290251334689,0.07174578782287963
0.2839655,0.05108293954803655,0.10080649952499654,0.01710933596544779,0.028498773742810606,0.08821325629851424,0.05168497921471082,0.05119765078531966,0.07192632471402774
0.284431,0.0514943658189939,0.10097140586947455,0.016868792440809844,0.028141154940669842,0.08803364708894536,0.05173793075589032,0.050363620131306755,0.07210419368373679
0.2848966,0.05190781380762706,0.10112951646363566,0.01662634625715763,0.027785204679470883,0.08785443067180182,0.05179034538862186,0.04952720077317073,0.0722793750114532
0.2853621,0.052323251342826754,0.10128081467077409,0.01638207927376786,0.02743097032332761,0.08767561730079704,0.051842212269503585,0.048688664576268234,0.07245184937798246
0.2858276,0.05274064546653955,0.10142528536040661,0.016136075156895604,0.027078498907330384,0.08749721767622429,0.051893520480419356,0.04784828765258166,0.07262159786602987
0.2862931,0.05315996243994297,0.10156291490621719,0.01588841938182698,0.026727837131725635,0.08731924295052798,0.051944259033811585,0.0470063503422723,0.07278860196052447
0.2867586,0.05358116775009529,0.10169369118348073,0.015639199234432122,0.026379031356126285,0.08714170473378696,0.05199441687799156,0.046163137193765046,0.07295284354873392
0.2872241,0.05400422611706247,0.10181760356596689,0.015388503812211128,0.02603212759375161,0.08696461509910759,0.05204398290248727,0.04531893694235247,0.07311430492017829
0.2876897,0.054429101501523865,0.10193464292232406,0.015136424024826034,0.0256871715056958,0.08678798658792507,0.052092945943429024,0.044474042487307186,0.07327296876635168
0.2881552,0.05485575711285865,0.10204480161194361,0.014883052594111922,0.02534420839522517,0.08661183221521054,0.05214129478897307,0.04362875086749133,0.07342881818026067
0.2886207,0.055284155417714156,0.1021480734803034,0.014628484053560339,0.025003283202104508,0.08643616547458191,0.05218901818476316,0.042783363235452815,0.07358183665578846
0.2890862,0.05571425814905712,0.10224445385378932,0.014372814747268276,0.024664440496953408,0.08626100034331531,0.052236104839429934,0.04193818482999833,0.0737320080868945
0.2895517,0.0561460263157085,0.10233393953399282,0.014116142828346048,0.02432772447563361,0.08608635128725473,0.05228254343012815,0.04109352494723362,0.07387931676665882
0.2900172,0.05657942021236164,0.10241652879148225,0.013858568256777606,0.023993178953668325,0.08591223326561577,0.05232832260811205,0.04024969691006233,0.07402374738618074
0.2904828,0.05701439943008369,0.10249222135904563,0.013600192796727101,0.02366084736069446,0.08573866173568007,0.052373431004349574,0.039407018036135326,0.07416528503334083
0.2909483,0.057450922867299276,0.10256101842440406,0.013341120013285808,0.02333077273494854,0.08556565265737609,0.05241785723517644,0.03856580960424313,0.07430391519143512
0.2914138,0.0578889487412553,0.1026229226223952,0.013081455268653907,0.02300299771778697,0.08539322249774191,0.05246158990799137,0.037726396819144935,0.07443962373768996
0.2918793,0.05832843459996508,0.10267793802662861,0.012821305717751849,0.022677564548241207,0.08522138823526511,0.05250461762699389,0.036889108774828094,0.0745723969416651
0.2923448,0.05876933733462972,0.10272607014061601,0.012560780303256427,0.022354515057608375,0.08505016736409525,0.05254692899896602,0.03605427841619279,0.0747022214635524
0.2928103,0.059211613192534186,0.10276732588838136,0.01229998975005689,0.02203389066407786,0.08487957789812356,0.052588512639099194,0.03522224249915716,0.07482908435237684
0.2932759,0.05965521779041515,0.10280171360455732,0.012039046559126715,0.021715732367394276,0.08470963837492464,0.05262935717686752,0.03439334154917874,0.074952973044106
0.2937414,0.06010010612829689,0.10282924302397603,0.011778065000806845,0.02140008074355733,0.0845403678595551,0.0526694512619484,0.03356791981818837,0.07507387535967366
0.2942069,0.060546232603791494,0.10284992527076364,0.011517161107496463,0.02108697593955887,0.08437178594820405,0.05270878357019133,0.03274632523993319,0.07519177950292304
0.2946724,0.06099355102685905,0.10286377284694846,0.011256452665747523,0.02077645766815761,0.08420391277169065,0.052747342809635736,0.031928909383725064,0.07530667405847473
0.2951379,0.061442014635023176,0.10287079962059296,0.010996059207759368,0.02046856520269192,0.08403676899880459,0.05278511772657898,0.031116027406591355,0.07541854798952412
0.2956034,0.061891576109037116,0.10287102081346014,0.010736102002269788,0.02016333737193114,0.08387037583948592,0.052822097111695755,0.030308038003824762,0.07552739063557215
0.296069,0.06234218758899544,0.10286445298822426,0.01047670404483897,0.019860812554966092,0.08370475504784065,0.0528582698062111,0.029505303357929565,0.0756331917100935
0.2965345,0.06279380069088626,0.10285111403523549,0.010217990047522692,0.01956102867613942,0.08353992892498842,0.052893624708129236,0.02870818908596191,0.07573594129814522
0.297,0.06324636652357837,0.10283102315884778,0.00996008642793119,0.019264023200016602,0.08337592032173835,0.052928150778521185,0.027917064185262602,0.07583562985391845
0.2974655,0.063699835706238,0.10280420086331934,0.009703121297670035,0.01896983312639854,0.08321275264108903,0.052961837047873994,0.02713230097758119,0.07593224819823577
0.297931,0.06415415838616921,0.10277066893829545,0.009447224450159325,0.01867849498537669,0.08305044984054795,0.05299467262250454,0.02635427505159049,0.07602578751599609
0.2983966,0.0646092842570719,0.1027304504438846,0.00919252734782757,0.018390044832431802,0.0828890364342656,0.05302664669104054,0.025583365203790995,0.07611623935356931
0.2988621,0.06506516257771042,0.10268356969533989,0.00893916310867653,0.0181045182435772,0.08272853749497859,0.05305774853097118,0.024819953377804925,0.07620359561614223
0.2993276,0.065521742190986,0.10263005224735926,0.008687266492213398,0.01782195031054765,0.08256897865575633,0.053087967515269445,0.02406442460205997,0.07628784856501744
0.2997931,0.06597897154340522,0.10256992487801915,0.008436973884746573,0.017542375636034675,0.08241038611154462,0.0531172931190877,0.023317166925863508,0.0763689908148662
0.3002586,0.06643679870493645,0.10250321557235685,0.008188423284041398,0.01726582832896925,0.08225278662050056,0.053145714926527754,0.022578571353868537,0.07644701533093647
0.3007241,0.06689517138924571,0.10242995350561779,0.007941754283332108,0.016992341999852743,0.08209620750511225,0.05317322263748636,0.02184903177893312,0.07652191542621692
0.3011897,0.06735403697430291,0.10235016902618378,0.007697108054686318,0.016721949756137017,0.0819406766530984,0.053199806074576465,0.021128944913375945,0.07659368475855832
0.3016552,0.06781334252334885,0.10226389363819917,0.007454627331718328,0.016454684197654702,0.08178622251808285,0.05322545519012431,0.020418710218630884,0.07666231732775401
0.3021207,0.06827303480621337,0.10217115998391141,0.00721445639164753,0.016190577412100615,0.08163287412003992,0.05325016007324191,0.019718729833304166,0.0767278074725823
0.3025862,0.06873306032097432,0.1020720018257428,0.006976741036698214,0.015929660970565418,0.08148066104550726,0.05327391095697388,0.01902940849963802,0.07679014986781421
0.3030517,0.06919336531594661,0.10196645402810957,0.006741628574837051,0.015671965923122633,0.08132961344756326,0.05329669822551739,0.018351153488385057,0.07684933952119126
0.3035172,0.06965389581199083,0.10185455253900405,0.00650926779984453,0.015417522794470144,0.08117976204556704,0.05331851242151349,0.017684374522097583,0.07690537177037948
0.3039828,0.0701145976251299,0.1017363343713554,0.006279808970716652,0.01516636157962728,0.08103113812466022,0.05333934425340784,0.017029483696836118,0.07695824227990676
0.3044483,0.07057541638946244,0.10161183758418414,0.006053403790393163,0.014918511739688653,0.08088377353503041,0.05335918460287849,0.016386895402301267,0.0770079470380917
0.3049138,0.07103629758036084,0.10148110126356581,0.005830205383808601,0.014674002197635764,0.0807377006909375,0.05337802453232775,0.01575702624039306,0.07705448235397291
0.3053793,0.07149718653794249,0.10134416550341963,0.005610368275262384,0.01443286133420752,0.08059295256950376,0.053395855292435186,0.015140294942201794,0.07709784485424749
0.3058448,0.07195802849080131,0.10120107138613837,0.005394048365104206,0.014195116983830643,0.08044956270926928,0.05341266832976843,0.014537122283434421,0.07713803148022766
0.3063103,0.07241876857998768,0.10105186096307614,0.005181402905731018,0.013960796430611,0.08030756520851372,0.05342845529444836,0.013947930998280652,0.07717503948482368
0.3067759,0.07287935188322384,0.1008965772349102,0.004972590476891991,0.013729926404386781,0.08016699472334524,0.05344320804786502,0.01337314569172314,0.07720886642956086
0.3072414,0.07333972343934224,0.1007352641318938,0.004767770960297964,0.013502533076844481,0.08002788646555771,0.053456918670441125,0.012813192750296543,0.07723951018163783
0.3077069,0.07379982827293388,0.10056796649401607,0.004567105513532083,0.013278642057698494,0.079890276200257,0.05346957946943981,0.012268500251300747,0.07726696891103278
0.3081724,0.07425961141919346,0.10039473005108453,0.004370756543258568,0.0130582783909352,0.07975420024325743,0.05348118298681335,0.011739497870474255,0.07729124108766362
0.3086379,0.07471901794894775,0.10021560140274506,0.004178887677726744,0.012841466551122283,0.0796196954582493,0.053491722007089605,0.011226616788134408,0.07731232547860782
0.3091034,0.07517799299385318,0.10003062799845454,0.0039916637385677585,0.012628230439783943,0.07948679925373821,0.05350118956529287,0.010730289593791905,0.07733022114538697
0.309569,0.07563648177174818,0.09983985811742006,0.0038092507118816466,0.012418593381842617,0.07935554957975623,0.053509578954895574,0.01025095018924781,0.07734492744132054
0.3100345,0.07609442961214555,0.09964334084851895,0.0036318157186126295,0.012212578122127631,0.07922598492434454,0.053516883735797015,0.009789033690182155,0.0773564440089529
0.3105,0.07655178198184967,0.0994411260702125,0.0034595269842107876,0.012010206821951214,0.07909814430980669,0.0535230977423251,0.009344976326244,0.07736477077755709
0.3109655,0.0770084845106835,0.09923326443046608,0.003292553807578444,0.011811501055752164,0.07897206728873099,0.05352821509125666,0.00891921533965368,0.07736990796071884
0.311431,0.07746448301730961,0.09901980732668779,0.0031310665292997725,0.011616481807807279,0.07884779393978034,0.05353223018985167,0.008512188882328705,0.07737185605400385
0.3118966,0.07791972353513013,0.09880080688569648,0.0029752364991523046,0.011425169469010699,0.07872536486324733,0.05353513774389691,0.008124335911545363,0.07737061583271128
0.3123621,0.07837415233824996,0.09857631594373097,0.002825236042899145,0.011237583833721101,0.07860482117637257,0.053536932765753845,0.007756096084148574,0.07736618834971626
0.3128276,0.07882771596748729,0.09834638802651044,0.002681238428360835,0.0110537440966767,0.07848620450842339,0.0535376105824062,0.007407909649322886,0.07735857493340392
0.3132931,0.07928036125641569,0.09811107732935705,0.002543417830765903,0.010873668849977923,0.07836955699553015,0.05353716684350272,0.007080217339937722,0.0773477771856971
0.3137586,0.07973203535742103,0.09787043869739032,0.0024119492973792146,0.01069737608013751,0.07825492127527729,0.05353559752939056,0.006773460262480098,0.07733379698017936
0.3142241,0.08018268576775672,0.09762452760580391,0.0022870087114072787,0.010524883165197783,0.07814234048104568,0.05353289895913552,0.006488079785588102,0.07731663646031464
0.3146897,0.08063226035558008,0.09737340014023413,0.0021687727551797267,0.010356206871914773,0.07803185823610329,0.05352906779852555,0.006224517427198457,0.07729629803776414
0.3151552,0.08108070738595248,0.09711711297722983,0.002057418872606247,0.01019136335300886,0.07792351864744144,0.053524101068054185,0.0059832147403215035,0.07727278439080083
0.3156207,0.08152797554678609,0.09685572336483317,0.0019531252309083983,0.010030368144481645,0.07781736629935383,0.05351799615088055,0.00576461319745703,0.07724609846282125
0.3160862,0.08197401397471976,0.09658928910328056,0.0018560706816259387,0.009873236162998827,0.07771344624675558,0.05351075080076241,0.005569154073664529,0.07721624346095361
0.3165517,0.08241877228090744,0.0963178685258325,0.0017664347208975783,0.009719981703338995,0.07761180400823951,0.05350236314995874,0.005397278328301752,0.07718322285476081
0.3170172,0.08286220057670257,0.09604152047974128,0.0016843974490164371,0.009570618435908345,0.0775124855588662,0.05349283171709789,0.005249426485445923,0.07714704037503659
0.3174828,0.08330424949922284,0.09576030430736446,0.0016101395292609114,0.009425159404321468,0.07741553732268404,0.05348215541500762,0.005126038513012686,0.07710770001269208
0.3179483,0.08374487023677961,0.0954742798274322,0.0015438421460021656,0.009283617023048474,0.07732100616497577,0.05347033355850269,0.005027553700588776,0.07706520601772991
0.3184138,0.08418401455415728,0.09518350731647565,0.001485686962090015,0.009146003075128797,0.07722893938422684,0.053457365872125684,0.00495441053599557,0.077019562898302
0.3188793,0.08462163481772803,0.09488804749042287,0.0014358560755195454,0.009012328709952087,0.07713938470381128,0.05344325249783648,0.004907046580602001,0.07697077541984738
0.3193448,0.08505768402038744,0.09458796148636844,0.0013945319753814252,0.008882604441106678,0.07705239026338957,0.05342799400264537,0.004885898343406786,0.07691884860430535
0.3198103,0.08549211580629638,0.094283310844522,0.0013618974970994629,0.00875684014429612,0.07696800461001338,0.053411591386184856,0.004891401153911416,0.07686378772939918
0.3202759,0.08592488449541458,0.09397415749034105,0.0013381357769595458,0.008635045055324284,0.07688627668893065,0.0533940460882147,0.004923989033806796,0.07680559832798543
0.3207414,0.0863559451078111,0.09366056371685232,0.0013234302059347074,0.008517227768149576,0.0768072558340849,0.05337535999605487,0.004984094567497823,0.0767442861874638
0.3212069,0.08678525338773689,0.09334259216716582,0.0013179643828116695,0.008403396233008871,0.07673099175830153,0.053355535451940786,0.00507214877149142,0.07667985734924312
