Time,Rectus Femoris right,Rectus Femoris left,Hamstrings right,Hamstrings left,TibilaisÂ Anterior right,TibilaisÂ Anterior left,Gastrocnemius right,Gastrocnemius left
0.0,-0.0014379631928956346,-0.002877318947307848,-0.0006372657192914824,0.017774995931217345,0.005504705041856972,0.0056003993649572075,0.006383700257986152,0.007295999095886687
0.0005192,-0.0014080377744539897,-0.0028006041454097844,-0.0005270895718420541,0.018022218559876905,0.005741096887026446,0.005903703700295937,0.006560293202784107,0.007384516162261512
0.0010385,-0.0013781623197609756,-0.0027239182580335525,-0.00041735901435642004,0.018270919411882174,0.0059778542153099265,0.006208553708349934,0.006735923554207215,0.007473265213091449
0.0015577,-0.00134833733039626,-0.002647270830578747,-0.000308090559510697,0.018521077300677025,0.006214948321058263,0.006514916401562398,0.006910561442698324,0.007562237716780827
0.0020769,-0.001318563209597316,-0.0025706713966309204,-0.00019930060415450254,0.018772670733848116,0.006452350432265044,0.006822758324477107,0.007084177221549783,0.007651425133394108
0.0025962,-0.001288840260821596,-0.002494129475207865,-9.100542357261156e-05,0.019025677918454758,0.006690031719970446,0.007132045559698065,0.007256741477764835,0.0077408189179523175
0.0031154,-0.0012591686863457166,-0.002417654568023302,1.677883421374133e-05,0.019280076766466953,0.00692796330770978,0.0074427437340013735,0.007428225042850994,0.007830410523737964
0.0036346,-0.001229548585902968,-0.0023412561567699836,0.00012403615410265097,0.019535844900307957,0.007166116281000782,0.007754818024597463,0.007598599003537601,0.007920191405605712
0.0041538,-0.0011999799553604083,-0.0022649437004241477,0.0002307506595211827,0.019792959658497724,0.007404461696863749,0.008068233165541847,0.007767834712409851,0.008010153023296272
0.0046731,-0.001170462685436768,-0.002188726632573164,0.0003369066179856534,0.020051398101393753,0.007642970593368787,0.008382953454292543,0.007935903798451665,0.008100286844751038
0.0051923,-0.0011409965604623385,-0.002112614358768104,0.0004424884466093831,0.020311137017025954,0.007881613999204621,0.008698942758412296,0.00810277817749005,0.008190584349425089
0.0057115,-0.0011115812571819645,-0.0020366162539028508,0.000547480717554809,0.020572152927022296,0.008120362943263631,0.009016164522413711,0.008268430062533767,0.008281037031596154
0.0062308,-0.0010822163436022205,-0.0019607416596212563,0.0006518681634269314,0.020834422092621988,0.008359188464237952,0.009334581774745403,0.008432831973999416,0.00837163640366712
0.00675,-0.0010529012778838045,-0.0018849998817537378,0.0007556356826051414,0.02109792052077303,0.008598061620221751,0.009654157134917275,0.008595956749818195,0.008462373999459595
0.0072692,-0.001023635407280153,-0.0018094001877846063,0.000858768344510561,0.02136262397031089,0.008836953498314983,0.009974852820763021,0.008757777555416792,0.008553241377496069
0.0077885,-0.0009944179671232387,-0.0017339518043513154,0.0009612513948060873,0.02162850795821501,0.009075835224224161,0.010296630655837932,0.008918267893565885,0.008644230124268142
0.0083077,-0.0009652480798574832,-0.0016586639147767172,0.0010630702605263938,0.021895547765939685,0.009314677971855935,0.010619452076950074,0.00907740161408975,0.008735331857488295
0.0088269,-0.0009361247541226594,-0.0015835456566353136,0.0011642105551351988,0.02216371844581581,0.009553452972899343,0.010943278141822853,0.009235152923430431,0.008826538229322601
0.0093462,-0.0009070468838866198,-0.001508606119354385,0.001264658083507194,0.02243299482751978,0.009792131526392831,0.011268069536886952,0.009391496394060006,0.008917840929601779
0.0098654,-0.0008780132476286166,-0.0014338543418507743,0.0013643988468321317,0.022703351524605845,0.0100306850082721,0.01159378658519965,0.00954640697373449,0.009009231689007942
0.0103846,-0.0008490225075739147,-0.0013592993102040079,0.0014634190474386776,0.02297476294109805,0.010269084880894992,0.011920389254489534,0.009699859994583058,0.00910070228223442
0.0109038,-0.0008200732089803406,-0.0012849499553663323,0.0015617050935357339,0.023247203278137948,0.010507302702539696,0.01224783716532465,0.009851831182026385,0.009192244531116084
0.0114231,-0.000791163779477342,-0.001210815150910182,0.0016592436038689903,0.023520646540684132,0.010745310136872554,0.012576089599402105,0.010002296663518,0.009283850307727649
0.0119423,-0.0007622925284580663,-0.0011369037108135303,0.0017560214122904903,0.023795066544259544,0.010983078962381909,0.012905105507957131,0.010151232977102694,0.009375511537447515
0.0124615,-0.0007334576465248967,-0.0010632243872835357,0.0018520255722390138,0.024070436921742606,0.011220581081774412,0.01323484352028954,0.010298617079786025,0.009467220201984695
0.0129808,-0.0007046572049888227,-0.000989785868618861,0.0019472433611290793,0.02434673113019809,0.011457788531330249,0.013565261952405368,0.010444426355709024,0.009558968342366365
0.0135,-0.0006758891554229579,-0.0009165967771110151,0.0020416622846463842,0.024623922457743617,0.011694673490213844,0.01389631881577157,0.010588638624122185,0.009650748061883539
0.0140192,-0.000647151329270473,-0.0008436656669850293,0.00213527008094753,0.024901984030447976,0.011931208289736534,0.014227971826181419,0.010731232147152782,0.009742551528992336
0.0145385,-0.0006184414375071608,-0.0007710010223797567,0.002228054724761914,0.025180888819257632,0.012167365422567623,0.014560178412728246,0.010872185637359531,0.009834370980168287
0.0150577,-0.0005897570703588133,-0.0006986112553680453,0.002320004431393718,0.025460609646948018,0.012403117551890344,0.014892895726885024,0.011011478265068708,0.0099261987227111
0.0155769,-0.0005610956970735525,-0.00062650470401701,0.0024111076606219495,0.025741119195096467,0.012638437520499058,0.015226080651687322,0.01114908966548588,0.0100180271374973
0.0160962,-0.00053245466574921,-0.000554689630488583,0.0025013531204965524,0.026022390011073933,0.012873298359834065,0.01555968981101705,0.011284999945577762,0.01010984868167817
0.0166154,-0.0005038312032158074,-0.00048317421918048453,0.002590729771028687,0.026304394515052648,0.013107673298950353,0.015893679578984413,0.011419189690718902,0.010201655891320396
0.0171346,-0.0004752224149731501,-0.0004119665749077186,0.002679226827773366,0.02658710500702709,0.013341535773416513,0.016228006089405535,0.011551639971098359,0.010293441383987016
0.0176538,-0.0004466252851835215,-0.0003410747211246749,0.0027668337653027728,0.02687049367384594,0.013574859434140062,0.016562625245373164,0.01168233234788185,0.010385197861256438
0.0181731,-0.0004180366767194332,-0.000270506598187895,0.0028535403205686917,0.027154532596252605,0.013807618156115253,0.016897492728917836,0.01181124887912527,0.01047691811117762
0.0186923,-0.00038945333126636715,-0.00020027006165954797,0.002939336496152569,0.027439193755932234,0.014039786047089428,0.017232564010756783,0.011938372125435881,0.010568595010659852
0.0192115,-0.0003608718694804186,-0.00013037288065164066,0.003024212563401819,0.027724449042563246,0.014271337456143854,0.017567794360127797,0.012063685155377752,0.010660221527795973
0.0197308,-0.00033228879120072795,-6.0822736210963965e-05,0.003108159065451101,0.02801027026087155,0.014502246982184887,0.017903138854705142,0.012187171550618396,0.010751790724118067
0.02025,-0.0003037004757165661,8.372780255253942e-06,0.003191166820127406,0.028296629137685655,0.014732489482341184,0.018238552390594492,0.01230881541081365,0.010843295756784858
0.0207692,-0.0002751031820889153,7.720616851304924e-05,0.0032732269227379674,0.02858349732899095,0.014962040080262664,0.018573989692403873,0.012428601358228038,0.010934729880700125
0.0212885,-0.0002464930495263633,0.00014567002099487414,0.0033543307487401046,0.028870846426981494,0.015190874174316889,0.018909405323387456,0.01254651454208814,0.01102608645056138
0.0218077,-0.00021786609781509973,0.00021375702425232283,0.0034344699562923048,0.02915864796710749,0.015418967445678585,0.019244753695658996,0.012662540642666748,0.01111735892283804
0.0223269,-0.0001892182278027812,0.0002814599603685789,0.003513636488685949,0.029446873435116445,0.015646295866308117,0.019579989080471656,0.012776665875096032,0.011208540857678232
0.0228462,-0.00016054522193600717,0.00034877170833075044,0.0035918225766572555,0.029735494274086012,0.015872835706814848,0.019915065618560882,0.012888876992908508,0.011299625920743373
0.0233654,-0.00013184274485112597,0.0004156852453622723,0.0036690207405791196,0.030024481891446176,0.016098563544201337,0.020249937330546898,0.012999161291305166,0.011390607884969648
0.0238846,-0.00010310634401806691,0.0004821936482155674,0.0037452237925326886,0.030313807665988506,0.0163234562694844,0.02058455812739348,0.013107506610150728,0.01148148063225551
0.0244038,-7.433145043686866e-05,0.0005482900944251748,0.003820424838258635,0.030603442954860224,0.016547491095189062,0.020918881820919576,0.013213901336696665,0.01157223815507438
0.0249231,-4.551337938654376e-05,0.0006139678635215717,0.003894617278988238,0.030893359100541,0.016770645562711534,0.02125286213436034,0.013318334408033128,0.0116628745580118
0.0254423,-1.6647331225886394e-05,0.0006792203382059389,0.003967794813154505,0.031183527437800392,0.016992897549547532,0.0215864527129743,0.013420795313271307,0.011753384059226376
0.0259615,1.2271607754203002e-05,0.0007440410054861443,0.004039951437983685,0.031473919300634125,0.017214225276382288,0.02191960713469338,0.013521274095458056,0.01184376099183387
0.0264808,4.1248464427332565e-05,0.0008084234577742368,0.004111081450967585,0.03176450602917725,0.017434607314038675,0.022252278920812666,0.013619761353224713,0.011933999805213787
0.027,7.028837787765624e-05,0.0008723613939457506,0.004181179451217157,0.03205525897659221,0.017654022590279917,0.022584421546717068,0.013716248242172286,0.012024095066237873
0.0275192,9.939659839584008e-05,0.0009358486203611287,0.004250240340697807,0.032346149515929574,0.017872450396463343,0.02291598845264194,0.01381072647599521,0.012114041460420012
0.0280385,0.0001285784864254858,0.000998879051849575,0.004318259325346906,0.032637149046958934,0.018089870394041755,0.023246933054464868,0.01390318832734607,0.012203833792987093
0.0285577,0.00015783951146055826,0.001061446712655652,0.004385231916073918,0.03292822900296735,0.018306262620909196,0.023577208754525705,0.013993626628443834,0.012293466989870654
0.0290769,0.000187185250894379,0.0011235457373489554,0.004451153929643591,0.033219360857522376,0.01852160749758826,0.023906768952472013,0.014082034771428262,0.012382936098619304
0.0295962,0.00021662138882075818,0.00118517037169722,0.0045160214894426004,0.033510516131196405,0.018735885833256482,0.024235567056126985,0.014168406708463224,0.012472236289232228
0.0301154,0.0002461537147878448,0.0012463149735032332,0.004579831026130027,0.033801666398249025,0.018949078831609813,0.02456355649237683,0.014252736951591636,0.012561362854914179
0.0306346,0.00027578812250528056,0.0013069740134059678,0.004642579278172016,0.03409278329326369,0.01916116809656138,0.024890690718074617,0.014335020572344806,0.012650311212752521
0.0311538,0.0003055306085052484,0.0013671420756463564,0.004704263292260974,0.03438383851773515,0.019372135637773923,0.025216923230957335,0.014415253201109016,0.012739076904316964
0.0316731,0.00033538727075800947,0.0014268138587981386,0.00476488042361964,0.0346748038466038,0.01958196387602463,0.02554220758057302,0.014493431026252291,0.012827655596182623
0.0321923,0.0003653643072425326,0.0014859841764642192,0.0048244283361903815,0.034965651134733405,0.01979063564840129,0.025866497379214575,0.014569550793014495,0.012916043080377101
0.0327115,0.00039546801447282805,0.0015446479579389687,0.004882905002710128,0.0352563523233287,0.01999813421332918,0.02618974631285705,0.014643609802164129,0.013004235274752154
0.0332308,0.0004257047859806135,0.0016028002488368937,0.004940308704671396,0.03554687944628951,0.020204443255428386,0.02651190815209511,0.014715605908425404,0.01309222822328051
0.03375,0.00045608111075495864,0.0016604362116880978,0.004996638032169904,0.035837204636498345,0.020409546890201587,0.026832936763077228,0.014785537518679363,0.013180018096278296
0.0342692,0.000486603571639577,0.0017175511265009478,0.005051891883639342,0.0361273001320386,0.020613429668552553,0.02715278611843317,0.014853403589942863,0.0132676011905535
0.0347885,0.0005172788436884557,0.001774140391292369,0.0051060694654738335,0.0364171382823405,0.020816076581135493,0.02747141030819136,0.014919203627129335,0.013354973929480766
0.0353077,0.0005481136924805387,0.001830199522586174,0.005159170291538682,0.03670669155425221,0.02101747306253547,0.027788763550682445,0.014982937680595144,0.01344213286300284
0.0358269,0.0005791149723941933,0.0018857241558798382,0.005211194182569949,0.03699593253803345,0.02121760499527998,0.028104800203425522,0.015044606343475347,0.013529074667558903
0.0363462,0.0006102896248422041,0.0019407100460801185,0.005262141265463464,0.03728483395326868,0.02141645871368171,0.028419474773993442,0.015104210748812722,0.013615796145939968
0.0368654,0.0006416446764680419,0.0019951530679079062,0.0053120119724538685,0.03757336865469698,0.02161402100751263,0.02873274193085382,0.015161752566483971,0.013702294227071499
0.0373846,0.0006731872373041568,0.002049049216272701,0.005360807040184317,0.0378615096379555,0.02181027912550958,0.029044556514182526,0.015217233999927172,0.013788565965723337
0.0379038,0.0007049244988930394,0.0021023946066170826,0.005408527508667529,0.038149230045233476,0.022005220778711664,0.02935487354664647,0.015270657782674625,0.013874608542147084
0.0384231,0.0007368637323717967,0.00215518547523156,0.005455174720138909,0.03843650317083329,0.0221988341436298,0.029663648244152723,0.015322027174695371,0.013960419261641058
0.0389423,0.0007690122865209833,0.0022074181795401684,0.005500750317802504,0.03872330246663557,0.02239110786524896,0.029970836026560758,0.015371345958551604,0.014045995554043064
0.0394615,0.0008013775857784377,0.0022590891983571898,0.005545256244470618,0.03900960154746514,0.02258203105986343,0.030276392528354772,0.015418618435373137,0.014131334973151317
0.0399808,0.0008339671282188716,0.0023101951321153613,0.005588694741097872,0.03929537419635476,0.02277159331774543,0.030580273609272974,0.015463849420654029,0.01421643519607418
0.0405,0.0008667884834999777,0.0023607327030659543,0.005631068345210545,0.03958059436970377,0.022959784705647215,0.030882435364890836,0.015507044239875426,0.014301294022509502
0.0410192,0.0008998492907758393,0.0024106987554510973,0.005672379889232017,0.039865236202328624,0.0231465957691366,0.03118283413715555,0.015548208723958625,0.01438590937395461
0.0415385,0.000933157256578444,0.0024600902556487225,0.005712632498705133,0.040149274012402404,0.023332017534765832,0.03148142652486902,0.01558734920455239,0.014470279292848168
0.0420577,0.0009667201526681317,0.0025089042922905222,0.00575182959041234,0.04043268230628037,0.02351604151207353,0.031778169394117,0.015624472509158611,0.014554401941645157
0.0425769,0.0010005458138538123,0.002557138076353288,0.005789974870394409,0.04071543578320839,0.02369865969541937,0.03207301988864204,0.015659585956100407,0.014638275601826232
0.0430962,0.0010346421357838077,0.0026047889412240217,0.005827072331868617,0.04099750933991153,0.02387986456565105,0.0323659354401582,0.01569269734933673,0.014721898672842773
0.0436154,0.0010690170727081687,0.002651854342739199,0.005863126253047225,0.041278878075059866,0.02405964909160308,0.032656873778605044,0.015723814973127668,0.01480526967099892
0.0441346,0.0011036786352133187,0.002698331859198568,0.005898141194857212,0.04155951729360886,0.024238006731426724,0.032945792942338945,0.01575294758655465,0.014888387228271892
0.0446538,0.0011386348879298695,0.0027442191913538776,0.005932121998562287,0.04183940251101181,0.024414931433750935,0.03323265128825886,0.015780104417899798,0.014971250091071895
0.0451731,0.001173893947214452,0.0027895141623729197,0.0059650737832883365,0.04211850945730227,0.024590417638674,0.033517407501864376,0.015805295158888788,0.015053857118942833
0.0456923,0.0012094639788064001,0.0028342147177793054,0.0059970019434536,0.04239681408104443,0.024764460278585945,0.03380002060724362,0.015828529958801563,0.015136207283204974
0.0462115,0.0012453531954601262,0.0028783189253683834,0.006027912146104985,0.04267429255314986,0.02493705477882186,0.03408044997698889,0.01584981941845536,0.015218299665540566
0.0467308,0.0012815698545540206,0.0029218249750997067,0.006057810328162036,0.04295092127055917,0.025108197058146316,0.034358655342038205,0.01586917458406442,0.015300133456523375
0.04725,0.0013181222556767184,0.0029647311789664735,0.0060867026935701694,0.04322667685978759,0.025277883529069026,0.03463459680144118,0.015886606940980916,0.015381707954092954
0.0477692,0.001355018738191573,0.0030070359708423517,0.0061145957103648655,0.04350153618033368,0.025446111097991875,0.034908234832047906,0.015902128407321442,0.015463022561974387
0.0482885,0.0013922676787801842,0.003048737906306097,0.006141496107648551,0.043775476327950404,0.025612877165187255,0.03517953029811908,0.01591575132748363,0.01554407678804421
0.0488077,0.0014298774889658285,0.003089835662444381,0.0061674108724819885,0.044048474637777876,0.025778179624607763,0.03544844446085589,0.01592748846555732,0.01562487024264313
0.0493269,0.0014678566126176346,0.003130328037633237,0.0061923472466919715,0.04432050868733719,0.025942016863527175,0.03571493898784777,0.015937352998634864,0.01570540263683623
0.0498462,0.0015062135234363506,0.0031702139512985615,0.006216312723597164,0.044591556299384084,0.02610438776201254,0.03597897596243603,0.015945358510025237,0.015785673780621436
0.0503654,0.0015449567224225607,0.003209492443656085,0.0062393150446538575,0.04486159554462155,0.02626529169222725,0.036240517892991354,0.01595151898237657,0.01586568358108703
0.0508846,0.0015840947353282055,0.0032481626754312745,0.006261362196023438,0.04513060474426998,0.026424728517564805,0.03649952772210295,0.015955848790711814,0.01594543204051904
0.0514038,0.0016236361100922842,0.0032862239275595964,0.006282462405063284,0.04539856247249331,0.026582698591612823,0.03675596883567719,0.015958362695382117,0.016024919254459202
0.0519231,0.0016635894142616192,0.003323675600867587,0.006302624136742805,0.045665447558680156,0.02673920275694669,0.0370098050719434,0.015959075834942507,0.01610414540971427
0.0524423,0.001703963232397576,0.00336051721573515,0.00632185608998635,0.0459312390895784,0.02689424234375225,0.03726100073036456,0.015958003718954235,0.01618311078231722
0.0529615,0.0017447661634696398,0.003396748411739506,0.006340167193944692,0.046195916411282914,0.027047819168276786,0.0375095205804499,0.01595516222071824,0.01626181573544103
0.0534808,0.0017860068182367606,0.003432368947281173,0.006357566604196817,0.04645945913107559,0.02719993553110752,0.03775532987046667,0.015950567569943973,0.016340260717265628
0.054,0.0018276938166173762,0.0034673786991923587,0.0063740636988837435,0.046721847119117914,0.027350594215276924,0.03799839433604774,0.015944236345357767,0.01641844625879874
0.0545192,0.0018698357850490167,0.0035017776623281157,0.006389668074776109,0.04698306050999639,0.027499798484193896,0.03823868020869175,0.015936185467254897,0.016496372971651414
0.0550385,0.0019124413538383958,0.003535565949140593,0.0064043895432772556,0.04724307970412141,0.0276475520794002,0.03847615422415186,0.015926432189999336,0.016574041545769025
0.0555577,0.0019555191545028677,0.0035687437892366982,0.006418238126363555,0.047501885368980444,0.027793859218151334,0.03871078363070947,0.015914994094475297,0.016651452747118527
0.0560769,0.0019990778171041284,0.0036013115289194684,0.0064312240524637965,0.04775945844024677,0.027938724590821487,0.038942536197328674,0.015901889080494384,0.01672860741533275
0.0565962,0.002043125967575014,0.003633269630713431,0.006443357752279442,0.04801578012274509,0.028082153358132394,0.03917138022168751,0.01588713535916218,0.016805506461312302
0.0571154,0.002087672225040247,0.0036646186728742348,0.00645464985454761,0.04827083189127575,0.02822415114820621,0.03939728453808156,0.015870751445207925,0.016882150864785703
0.0576346,0.0021327251991319755,0.003695359348882829,0.006465111181748708,0.048524595491298866,0.028364724053442886,0.03962021852519581,0.01585275614928087,0.01695854167182832
0.0581538,0.0021782934873009383,0.0037254924669244335,0.006474752745760647,0.048777052939479926,0.028503878627222805,0.03984015211374039,0.015833168570216757,0.017034679992340655
0.0586731,0.0022243856721241035,0.003755018949352571,0.006483585743461613,0.04902818652409789,0.02864162188043575,0.04005705579394625,0.015812008087277857,0.01711056699748662
0.0591923,0.0022710103186096417,0.003783939832138367,0.006491621552283379,0.049277978805316765,0.028777961277837515,0.04027090062291648,0.015789294352369927,0.01718620391709239
0.0597115,0.00231817597150009,0.003812256264305322,0.006498871725717205,0.04952641261532111,0.02891290473423548,0.0404816582318294,0.015765047282239365,0.017261592037006446
0.0602308,0.002365891152574586,0.0038399695073497216,0.006505347988774346,0.04977347105831583,0.02904646061050468,0.04068930083298925,0.015739287050653826,0.0173367326964214
0.06075,0.002414164357951038,0.0038670809346468414,0.006511062233403273,0.0500191375103901,0.02917863770943597,0.040893801226720386,0.015712034080569384,0.01741162728515836
0.0612692,0.0024630040553891125,0.0038935920308430876,0.006516026513865666,0.05026339561924538,0.029309445271418127,0.04109513280810065,0.015683309036287264,0.017486277240914685
0.0617885,0.0025124186815949075,0.003919504391234213,0.006520253042073324,0.050506229303787224,0.02943889296995592,0.04129326957352944,0.01565313281560304,0.017560684046476163
0.0623077,0.002562416639528208,0.003944819721129779,0.006523754182888103,0.05074762275358106,0.029566990907026358,0.041488186127125605,0.015621526541951022,0.017634849226894886
0.0628269,0.0026130062957132097,0.003969539835204006,0.006526542449387018,0.050987560428172506,0.02969374960827567,0.041679857686950456,0.01558851155654653,0.017708774346634364
0.0633462,0.0026641959775536104,0.003993666656833219,0.006528630498094681,0.05122602705627392,0.02981918001805948,0.041868260091051095,0.015554109410528616,0.017782461006683636
0.0638654,0.0027159939706529732,0.004017202217420043,0.006530031124185174,0.051463007634819695,0.02994329349432882,0.0420533698033195,0.015518341857105733,0.01785591084164239
0.0643846,0.002768408516141264,0.004040148655704572,0.006530757256655487,0.05169848742789368,0.030066101803364567,0.04223516391916316,0.015481230843706858,0.017929125516779335
0.0649038,0.002821447808008445,0.004062508217062688,0.006530821953472552,0.051932451965533206,0.03018761711436279,0.04241362017098326,0.01544279850414049,0.01800210672506623
0.0654231,0.002875119990446031,0.004084283252791753,0.0065302383966959225,0.05216488704241391,0.03030785199387335,0.042588716933456595,0.015403067150763975,0.01807485618419009
0.0659423,0.0029294331551974724,0.004105476219383859,0.0065290198875780445,0.05239577871642011,0.03042681940009407,0.0427604332286172,0.015362059266665546,0.018147375633546042
0.0664615,0.002984395338918248,0.004126089677786901,0.006527179841644031,0.052625113307105384,0.03054453267702281,0.0429287487307338,0.015319797497861429,0.01821966683121346
0.0669808,0.0030400145205465214,0.004146126292653671,0.006524731783752829,0.05285287739404759,0.03066100554846964,0.04309364377097926,0.015276304645510346,0.018291731550917976
0.0675,0.003096298618685213,0.004165588831579279,0.0065216893431416095,0.05307905781510235,0.03077625211193164,0.04325509934188873,0.015231603658147727,0.01836357157898196
0.0680192,0.0031532554889963167,0.004184480164327171,0.006518066248455195,0.053303641664558886,0.030890286832332886,0.04341309710160444,0.01518571762394182,0.018435188711266173
0.0685385,0.0032108929216082805,0.004202803262044066,0.006513876322762325,0.053526616291201895,0.03100312453563252,0.04356761937790603,0.015138669762973895,0.018506584750105193
0.0690577,0.003269218638537247,0.004220561196464096,0.006509133478560563,0.05374796929628344,0.031114780402304122,0.04371864917202695,0.015090483419544649,0.018577761501239166
0.0695769,0.0033282402911229293,0.004237757139102447,0.006503851712771682,0.05396768853140898,0.03122526996068976,0.04386617016225828,0.01504118205450875,0.018648720770744472
0.0700962,0.0033879654574798866,0.004254394360438776,0.006498045101729352,0.05418576209634184,0.03133460908023233,0.04401016670734199,0.014990789237639452,0.018719464361965824
0.0706154,0.003448401639964931,0.004270476229090657,0.006491727796161004,0.05440217833673095,0.03144281396458989,0.04415062384965552,0.014939328640025137,0.018789994072452274
0.0711346,0.0035095562626613775,0.004286006210977282,0.006484914016165716,0.054616925841766924,0.031549901144636114,0.04428752731818998,0.01488682402649961,0.018860311690899526
0.0716538,0.0035714366688808148,0.004300987868473641,0.006477618046189995,0.05482999344177219,0.03165588747135138,0.04442086353132354,0.014833299248108027,0.018930418994100858
0.0721731,0.003634050118683062,0.004315424859555351,0.006469854230003271,0.05504137020573103,0.03176079010860935,0.04455061959939159,0.014778778234610357,0.019000317743908906
0.0726923,0.0036974037864149325,0.004329320936934319,0.0064616369656748975,0.055251045438765654,0.03186462652586415,0.0446767833270553,0.01472328498702432,0.01907000968421038
0.0732115,0.003761504758268416,0.0043426799471853895,0.006452980700554398,0.05545900867956499,0.0319674144907434,0.04479934321546948,0.014666843570209713,0.01913949653791572
0.0737308,0.0038263600298588415,0.004355505829864145,0.006443899926256722,0.05566524969777271,0.032069172061552104,0.04491828846425102,0.014609478105496058,0.019208780003965736
0.07425,0.003891976503823592,0.004367802616616018,0.006434409173654196,0.05586975849134123,0.032169917579692855,0.045033608973248526,0.014551212763355413,0.0192778617543571
0.0747692,0.003958360987441903,0.004379574430276882,0.006424523007876893,0.0560725252838586,0.03226966966200721,0.045145295344114024,0.014492071756122188,0.019346743431188675
0.0752885,0.004025520190276273,0.004390825483965303,0.006414256023323072,0.056273540521855035,0.03236844719304329,0.045253338881677325,0.014432079330761748,0.019415426643730607
0.0758077,0.004093460721836009,0.004401560080166641,0.006403622838681415,0.05647279487209612,0.032466269317254395,0.04535773159512351,0.014371259761689518,0.019483912965518137
0.0763269,0.004162189089263394,0.0044117826098091905,0.006392638091966768,0.05667027921886971,0.032563155431132904,0.045458466198974,0.014309637343642177,0.019552203931472074
0.0768462,0.004231711695043005,0.004421497551332588,0.00638131643557108,0.05686598466127347,0.03265912517528405,0.04555553611387179,0.01424723638460253,0.019620301035048034
0.0773654,0.004302034834734657,0.004430709469748717,0.0063696725313312575,0.05705990251050989,0.03275419842644352,0.04564893546717109,0.014184081198779426,0.01968820572541653
0.0778846,0.004373164694730456,0.004439423015695313,0.00635772104561563,0.0572520242871955,0.03284839528944296,0.04573865909333142,0.014120196099644072,0.019755919404676043
0.0784038,0.004445107350036431,0.0044476429244824705,0.006345476644430665,0.0574423417186905,0.03294173608912709,0.045824702534116094,0.014055605393023918,0.01982344342510125
0.0789231,0.004517868762079202,0.0044553740151322425,0.006332953988549525,0.057630846736454654,0.03303424136222602,0.045907062038594904,0.013990333370255242,0.019890779086428428
0.0794423,0.004591454776538116,0.00446262118941146,0.006320167728664035,0.057817531473435414,0.03312593184918615,0.04598573456295069,0.013924404301395459,0.01995792763318012
0.0799615,0.004665871121203235,0.004469389430857906,0.0063071325005615575,0.05800238826149342,0.03321682848596278,0.046060717770089625,0.013857842428496027,0.020024890252030993
0.0804808,0.004741123403859589,0.004475683803799914,0.0062938629203282345,0.05818540962887062,0.03330695239577745,0.04613201002905498,0.013790671958936823,0.020091668069216802
0.081,0.004817217110198016,0.004481509452369481,0.006280373579580025,0.05836658829770545,0.033396324880842786,0.04619961041424476,0.013722917058822798,0.02015826214798823
0.0815192,0.004894157601752925,0.004486871599508897,0.006266679040722926,0.05854591718159948,0.03348496741405759,0.04626351870443286,0.013654601846443624,0.0202246734861113
0.0820385,0.004971950113867272,0.004491775545970914,0.006252793832243757,0.05872338938323944,0.033572901630674654,0.04632373538159411,0.013585750385797037,0.020290903013415983
0.0825577,0.005050599753685068,0.00449622666931242,0.006238732444032887,0.05889899819207781,0.03366014931994355,0.046380261629533286,0.013516386680176658,0.020356951589394497
0.0830769,0.005130111498171717,0.004500230422881561,0.006224509322740243,0.05907273708207507,0.033746732416730714,0.04643309933231841,0.013446534665824943,0.020422820000850748
0.0835962,0.005210490192162537,0.004503792334798254,0.006210138867165944,0.05924459970950613,0.0338326729931188,0.04648225107251835,0.013376218205652017,0.020488508959602313
0.0841154,0.005291740546439826,0.004506918006927962,0.006195635423686829,0.059414579910833334,0.033917993249987635,0.046527720129245304,0.013305461083021013,0.020554019100236236
0.0846346,0.005373867135838915,0.00450961311384868,0.006181013281720155,0.0595826717006483,0.034002715508578946,0.0465695104760022,0.013234286995600539,0.02061935097791993
0.0851538,0.0054568743973836325,0.004511883401810993,0.006166286669225649,0.05974886926968453,0.03408686220204747,0.046607626778335215,0.01316271954928482,0.020684505066268448
0.0856731,0.005540766628451707,0.004513734687691134,0.006151469748247112,0.05991316698290261,0.034170455867001404,0.04664207439129123,0.01309078225218205,0.020749481755269278
0.0861923,0.005625547984970577,0.004515172857936902,0.00613657661049472,0.06007555937764983,0.03425351913503517,0.046672859356679655,0.01301849850867142,0.020814281349265846
0.0867115,0.0057112224796441536,0.004516203867506317,0.006121621272969115,0.06023604116189547,0.0343360747242578,0.046699988400138344,0.012945891613529345,0.02087890406500086
0.0872308,0.005797793980211057,0.004516833738798873,0.0061066176736283995,0.06039460721254291,0.034418145430820085,0.04672346892800273,0.012872984746125351,0.02094335002972051
0.08775,0.0058852662077348555,0.004517068560579205,0.006091579667099054,0.06055125257381905,0.03449975412044366,0.046743309023977754,0.012799800964688234,0.021007619279340396
0.0882692,0.005973642734926848,0.004516914486893032,0.006076521020431804,0.06070597245574148,0.034580923719955234,0.04675951744561228,0.012726363200643059,0.02107171175667405
0.0887885,0.006062926984501998,0.004516377735975264,0.006061455408903411,0.06085876223266321,0.034661677208829095,0.04677210362057564,0.012652694253019618,0.021135627309724823
0.0893077,0.006153122227568616,0.004515464589150189,0.006046396411865306,0.061009617441894225,0.034742037610741114,0.0467810776427363,0.012578816782933029,0.02119936569004186
0.0898269,0.006244231582052478,0.0045141813897237515,0.006031357508639982,0.06115853378239918,0.034822027985137394,0.046786450268042415,0.012504753308137025,0.02126292655114095
0.0903462,0.006336258011156056,0.004512534541867959,0.006016352074465994,0.06130550711356988,0.034901671418820564,0.046788232910204675,0.012430526197650575,0.021326309446991102
0.0908654,0.006429204321853589,0.004510530509497554,0.006001393376492406,0.06145053345407099,0.034980991017556744,0.046786437636181726,0.012356157666458385,0.02138951383056796
0.0913846,0.006523073163422671,0.0045081758151391,0.005986494569823559,0.06159360898075748,0.03506000989770584,0.046781077161469155,0.012281669770285962,0.021452539052475097
0.0919038,0.006617867026013046,0.004505477038792673,0.005971668693614998,0.061734730027661625,0.03513875117787763,0.04677216484519319,0.012207084400449928,0.02151538435963444
0.0924231,0.0067135882392532365,0.004502440816786365,0.005956928667221428,0.06187389308504739,0.035217237970615795,0.046759714685010244,0.012132423278784273,0.02157804889404701
0.0929423,0.006810238970895616,0.004499073840623818,0.005942287286397551,0.062011094798529814,0.03529549337411209,0.04674374131181335,0.012057707952643392,0.021640531691625137
0.0934615,0.006907821225500482,0.004495382855824974,0.005927757219552641,0.06214633196825667,0.03537354046395238,0.0467242599842465,0.011982959789982659,0.02170283168109715
0.0939808,0.00700633684315967,0.004491374660760245,0.005913351004059685,0.06227960154814987,0.03545140228489616,0.046701286583027586,0.011908199974517301,0.0217649476829854
0.0945,0.00710578749826021,0.00448705610547829,0.005899081042619902,0.06241090064520407,0.03552910184269128,0.046674837605080434,0.011833449500960307,0.021826878408658358
0.0950192,0.007206174698288501,0.004482434090527611,0.005884959599683465,0.06254022651883998,0.03560666209592505,0.046644930157476526,0.011758729170340002,0.02188862245945721
0.0955385,0.007307499782675467,0.00447751556577217,0.005870998797927172,0.06266757658031027,0.035684105947913124,0.04661158195118717,0.011684059585397972,0.021950178325897456
0.0960577,0.007409763921683145,0.004472307529201238,0.005857210614789846,0.0627929483921562,0.03576145623862691,0.04657481129464756,0.011609461146067885,0.022011544386945733
0.0965769,0.0075129681153331546,0.004466817025733707,0.005843606879066163,0.06291633966771289,0.03583873573666041,0.046534637087135,0.011534954045035744,0.02207271890937203
0.0970962,0.007617113192377486,0.00446105114601709,0.005830199267559629,0.063037748270662,0.03591596713123718,0.04649107881196427,0.01146055826338208,0.022133700047177386
0.0976154,0.0077221998093120634,0.0044550170252214616,0.0058169993017953584,0.06315717221462994,0.0359931730242578,0.046444156529503774,0.01138629356630648,0.022194485841097098
0.0981346,0.007828228449433544,0.004448721841828608,0.005804018344793319,0.06327460966283023,0.03607037592238808,0.046393890870016614,0.011312179498934894,0.022255074218179387
0.0986538,0.007935199421939867,0.004442172816416671,0.005791267597902644,0.0633900589277482,0.03614759822918811,0.04634030302633087,0.011238235382210119,0.022315462991439328
0.0991731,0.008043112861075067,0.004435377210440621,0.005778758097697593,0.06350351847086586,0.03622486223728204,0.04628341474634413,0.011164480308865797,0.022375649859587753
0.0996923,0.008151968725318875,0.004428342325008877,0.005766500712935706,0.06361498690242472,0.036302190120568345,0.04622324832536766,0.011090933139484296,0.022435632406834816
0.1002115,0.00826176679662168,0.00442107549965639,0.005754506141578636,0.06372446298122436,0.0363796039264703,0.046159826598316626,0.011017612498638751,0.022495408102767865
0.1007308,0.0083725066796854,0.004413584111114564,0.0057427849078761275,0.06383194561445431,0.03645712556822624,0.04609317293175369,0.010944536771119515,0.02255497430230328
0.10125,0.008484187801290809,0.004405875572078288,0.0057313473595135694,0.06393743385755714,0.036534776817219165,0.04602331121579376,0.010871724098245253,0.022614328245712103
0.1017692,0.00859680940967186,0.004397957329970414,0.005720203664823527,0.06404092691412124,0.036612579295345095,0.04595026585587817,0.010799192374258844,0.022673467058719286
0.1022885,0.008710370573937445,0.004389836865703952,0.005709363810061627,0.0641424241358014,0.03669055446741937,0.04587406176442644,0.010726959242808237,0.022732387752676653
0.1028077,0.00882487018354106,0.004381521692442236,0.005698837596747155,0.06424192502226608,0.036768723633620215,0.04579472435237385,0.010655042093512434,0.022791087224809672
0.1033269,0.00894030694779868,0.004373019354357306,0.0056886346390687325,0.06433942922116977,0.03684710792196874,0.04571227952060255,0.010583458058612704,0.022849562258538264
0.1038462,0.009056679395455205,0.004364337425386732,0.005678764361355434,0.06443493652814922,0.03692572828084512,0.04562675365127385,0.01051222400970919,0.022907809523871767
0.1043654,0.009173985874299713,0.004355483507989054,0.0056692359956137485,0.06452844688684219,0.03700460547154117,0.04553817359906882,0.010441356554583064,0.022965825577878317
0.1048846,0.009292224550829762,0.004346465231898024,0.005660058579130765,0.06461996038892685,0.037083760060850283,0.04544656668234402,0.010370872034104304,0.023023606865228717
0.1054038,0.009411393409964905,0.0043372902528757825,0.005651240952144018,0.06470947727418037,0.03716321241369668,0.04535196067420889,0.01030078651922532,0.02308114971881475
0.1059231,0.009531490254809627,0.004327966251465087,0.005642791755578426,0.0647969979305544,0.03724298268580639,0.04525438379353071,0.0102311158080606,0.023138450360442153
0.1064423,0.009652512706465787,0.004318500931740689,0.00563471942885074,0.06488252289426569,0.03732309081642299,0.045153864695873173,0.010161875423052623,0.023195504901598222
0.1069615,0.009774458203894654,0.004308902020059914,0.005627032207741933,0.06496605284989874,0.037403556521071385,0.04505043246437384,0.010093080608224322,0.023252309344294224
0.1074808,0.009897324003828546,0.0042991772638125165,0.005619738122337922,0.0650475886305184,0.037484399284373346,0.044944116600565936,0.010024746326518357,0.023308859581982668
0.108,0.010021107180732023,0.00428933443016982,0.005612844995039016,0.06512713121778917,0.03756563835291863,0.04483494701514919,0.009956887257223454,0.02336515140054945
0.1085192,0.010145804626812525,0.004279381304833189,0.005606360438638398,0.06520468174209883,0.03764729272819611,0.04472295401871464,0.009889517793488033,0.023421180479380823
0.1090385,0.010271413052080245,0.004269325690781871,0.005600291854469925,0.06528024148268365,0.03772938115958941,0.04460816831242815,0.00982265203992123,0.023476942392505112
0.1095577,0.010397928984456992,0.004259175407020248,0.005594646430625502,0.06535381186775274,0.037811922137441646,0.044490620978677176,0.009756303810281492,0.02353243260980901
0.1100769,0.010525348769933747,0.004248938287324543,0.0055894311402422394,0.06542539447460911,0.03789493388619403,0.04437034347168561,0.009690486625252813,0.023587646498328497
0.1105962,0.01065366857277652,0.0042386221789890415,0.005584652739859562,0.06549499102976487,0.03797843435760276,0.04424736760810101,0.00962521371030877,0.023642579323614264
0.1111154,0.010782884375780122,0.004228234941571829,0.005580317767846424,0.06556260340904835,0.03806244122403867,0.04412172555755878,0.009560497993664535,0.023697226251171703
0.1116346,0.010912991980569428,0.004217784445640095,0.00557643254289871,0.06562823363770014,0.03814697187187383,0.043993449833227366,0.009496352104317056,0.023751582347975496
0.1121538,0.011043987007947691,0.0042072785715149994,0.005573003162606906,0.06569188389045555,0.038232043394959114,0.043862573282338786,0.009432788370173717,0.023805642584059022
0.1126731,0.011175864898291404,0.004196725208016146,0.005570035502094056,0.06575355649161027,0.03831767258819695,0.043729129076708284,0.009369818816269724,0.023859401834179082
0.1131923,0.01130862091199124,0.004186132251205671,0.005567535212723979,0.06581325391506627,0.038403875941213084,0.04359315070324714,0.009307455163074428,0.023912854879556425
0.1137115,0.011442250129938542,0.004175507603132007,0.005565507720879739,0.0658709787843552,0.03849066963213139,0.04345467195447204,0.009245708824886787,0.023965996409692814
0.1142308,0.011576747454056773,0.004164859170573397,0.0055639582268123215,0.06592673387263642,0.03857806952145531,0.043313726919014646,0.009184590908320031,0.02401882102426537
0.11475,0.011712107607877349,0.0041541948637812635,0.005562891703559524,0.06598052210266712,0.03866609114605949,0.04317034997213445,0.009124112210875607,0.02407132323509873
0.1152692,0.01184832513715921,0.004143522595223565,0.00556231289593501,0.06603234654674195,0.03875474971329475,0.043024575766238485,0.009064283219606353,0.02412349746821559
0.1157885,0.011985394410551502,0.004132850278328329,0.005562226319587569,0.06608221042659906,0.038844060095209465,0.04287643922141091,0.009005114109868834,0.024175338065965987
0.1163077,0.012123309620298629,0.004122185826227559,0.005562636260130563,0.06613011711328952,0.038934036822890296,0.04272597551595577,0.00894661474416468,0.024226839289235472
0.1168269,0.012262064782986923,0.004111537150501766,0.005563546772341542,0.06617607012700628,0.03902469408092492,0.0425732200769559,0.008888794671070737,0.024277995319732168
0.1173462,0.012401653740332107,0.004100912159925332,0.0055649616794320655,0.06622007313686896,0.03911604570198959,0.0424182085708511,0.008831663124257809,0.024328800262352606
0.1178654,0.0125420701600067,0.004090318759212951,0.005566884572387677,0.0662621299606601,0.0392081051615639,0.04226097689403884,0.008775229021597693,0.02437924814762598
0.1183846,0.012683307536506516,0.004079764847767353,0.005569318809378056,0.06630224456450882,0.03930088557277519,0.042101561163500875,0.008719500964358202,0.024429332934236356
0.1189038,0.012825359192055344,0.004069258318428521,0.005572267515237296,0.06634042106251754,0.03939439968137469,0.04193999770745948,0.008664487236485824,0.024479048511622126
0.1194231,0.012968218277546973,0.0040588070562246024,0.005575733581014301,0.06637666371632729,0.03948865986084736,0.041776323056066655,0.00861019580397559,0.024528388702651942
0.1199423,0.013111877773523748,0.00404841893712475,0.005579719663593215,0.06641097693461759,0.03958367810765717,0.04161057393212962,0.008556634314327684,0.024577347266376195
0.1204615,0.013256330491190784,0.004038101826794087,0.005584228185383771,0.06644336527253698,0.039679466036629564,0.04144278724187551,0.008503810096090275,0.024625917900852935
0.1209808,0.013401569073465071,0.0040278635793510615,0.005589261334081418,0.06647383343106071,0.03977603487647261,0.04127300006575796,0.008451730158487967,0.02467409424604712
0.1215,0.013547585996058603,0.004017712036127432,0.005594821062497015,0.0665023862562723,0.03987339546543845,0.041101249649307905,0.008400401191135233,0.024721869886801858
0.1220192,0.013694373568594676,0.0040076550244311435,0.005600909088455886,0.06652902873856645,0.03997155824712625,0.040927573394030706,0.008349829563834111,0.024769238355880224
0.1225385,0.013841923935756423,0.003997700356312342,0.005607526894765934,0.06655376601177104,0.04007053326642804,0.040752008848351694,0.00830002132645541,0.024816193137076187
0.1230577,0.013990229078466575,0.0039878558273327945,0.0056146757292545035,0.06657660335218654,0.040170330165618384,0.04057459369861215,0.008250982208902613,0.02486272766839301
0.1235769,0.014139280815097341,0.003978129215338903,0.005622356604873667,0.06659754617754143,0.040270958180588685,0.04039536576011774,0.00820271762115762,0.024908835345287438
0.1240962,0.014289070802709313,0.0039685282792385635,0.00563057029987358,0.06661660004586308,0.04037242613722675,0.04021436296824135,0.008155232653407455,0.02495450952397789
0.1246154,0.01443959053831818,0.00395906075778202,0.00563931735804355,0.0666337706542631,0.04047474244794201,0.04003162336958221,0.008108532076250997,0.024999743524814627
0.1251346,0.014590831360188093,0.003949734368346909,0.005648598089020473,0.06664906383763718,0.040577915108336575,0.03984718511318301,0.008062620340984743,0.025044530635709956
0.1256538,0.014742784449150512,0.003940556805727642,0.00565841256866429,0.06666248556727922,0.04068195169402203,0.03966108644180677,0.008017501579966573,0.025088864115626174
0.1261731,0.014895440829947459,0.003931535740929258,0.005668760639500151,0.06667404194941032,0.04078685935758202,0.039473365683274704,0.007973179607056425,0.025132737198119086
0.1266923,0.015048791372598274,0.00392267881996587,0.005679641911226908,0.06668373922362318,0.04089264482568041,0.03928406124186679,0.00792965791813276,0.025176143094934666
0.1272115,0.015202826793789061,0.0039139936626638,0.00569105576129158,0.06669158376124304,0.04099931439631471,0.03909321158978614,0.007886939691683578,0.02521907499965637
0.1277308,0.015357537658284239,0.003905487861469472,0.005703001335529408,0.06669758206360632,0.04110687393621436,0.03890085525868838,0.007845027789470747,0.025261526091400456
0.12825,0.015512914380359705,0.003897168980262147,0.00571547754886909,0.06670174076025867,0.041215328878383174,0.03870703083127711,0.007803924757266357,0.02530348953855661
0.1287692,0.015668947225257274,0.0038890445531715658,0.005728483086102745,0.0667040666070739,0.04132468421978531,0.038511776932966015,0.007763632825659731,0.02534495850257106
0.1292885,0.01582562631065999,0.0038811220834006075,0.005742016402720155,0.06670456648429565,0.041434944519173796,0.03831513222360821,0.007724153910933743,0.025385926141769308
0.1298077,0.01598294160818791,0.00387340904205307,0.005756075725806823,0.06670324739450322,0.041546113895061014,0.038117135389293094,0.00768548961600904,0.025426385615215603
0.1303269,0.016140882944913892,0.0038659128669667193,0.0057706590550053345,0.06670011646050285,0.041658196023830356,0.037917825134210666,0.007647641231454804,0.025466330086606048
0.1308462,0.016299440004898844,0.003858640961551762,0.00578576416353951,0.06669518092314539,0.04177119413798878,0.03771724017258334,0.007610609736564746,0.025505752728192367
0.1313654,0.01645860233074581,0.0038516006936349196,0.0058013885993007846,0.06668844813907082,0.04188511102455994,0.0375154192206651,0.007574395800497071,0.025544646724733208
0.1318846,0.016618359325172204,0.00384479939430926,0.005817529685996255,0.06667992557838019,0.0419999490236184,0.037312400988807545,0.0075389997834772815,0.025583005277469945
0.1324038,0.016778700252599574,0.003838244356789959,0.005834184524357784,0.0666696208222352,0.042115710026965854,0.037108224173592406,0.007504421738062767,0.025620821608123734
0.1329231,0.016939614240760122,0.003831942835276136,0.005851349993411577,0.06665754156038568,0.04223239547695103,0.0369029274500299,0.007470661410468239,0.02565808896291059
0.1334423,0.017101090282319344,0.0038259020438189233,0.0058690227518075925,0.06664369558862586,0.04235000636543561,0.03669654946382259,0.007437718241951222,0.025694800616571097
0.1339615,0.017263117236514063,0.0038201291551959136,0.005887199239208202,0.06662809080618012,0.04246854323290847,0.03648912882369467,0.007405591370256881,0.025730949876411276
0.1344808,0.017425683830805182,0.0038146312997921292,0.005905875677735476,0.06661073521302001,0.04258800616775108,0.0362807040937867,0.007374279631121555,0.02576653008635089
0.135,0.017588778662544383,0.003809415564487628,0.005925048073476482,0.06659163690711425,0.04270839480565654,0.0360713137861165,0.007343781559834406,0.025801534630975384
0.1355192,0.017752390200653993,0.0038044889915518835,0.0059447122180459845,0.0665708040816149,0.04282970832920516,0.035860996353106495,0.007314095392856604,0.02583595693958763
0.1360385,0.01791650678731914,0.003799858577545042,0.005964863690205922,0.06654824502198292,0.0429519454675997,0.03564979018017808,0.007285219069497524,0.025869790490255447
0.1365577,0.018081116639691374,0.0037955312722261917,0.005985497857541035,0.06652396810305723,0.0430751044965636,0.03543773357841342,0.007257150233647517,0.025903028813850877
0.1370769,0.018246207851602986,0.0037915139774687867,0.006006609878189997,0.06649798178607198,0.04319918323840571,0.03522486477728459,0.0072298862355669085,0.02593566549807718
0.1375962,0.018411768395291305,0.003787813546183368,0.006028194702631404,0.06647029461562683,0.043324179062254914,0.03501122191745013,0.0072034241337310305,0.025967694191479537
0.1381154,0.0185777861231323,0.003784436781247739,0.006050247075523937,0.0664409152166156,0.04345008888446777,0.03479684304361855,0.007177760696731135,0.02599910860743537
0.1386346,0.018744248769382747,0.0037813904344447314,0.006072761537600003,0.06640985229111887,0.043576909169211926,0.03458176609747826,0.00715289240523113,0.026029902528120527
0.1391538,0.01891114395193028,0.0037786812054077037,0.006095732427612138,0.06637711461526581,0.04370463592922794,0.03436602891069323,0.00712881545398013,0.026060069808447606
0.1396731,0.019078459174050513,0.003776315740573897,0.006119153884331379,0.06634271103607096,0.043833264726771626,0.03414966919796353,0.007105525753880803,0.026089604379972764
0.1401923,0.019246181826170487,0.0037743006321457407,0.00614301984859681,0.06630665046825074,0.043962790674738905,0.03393272455015028,0.007083018934113551,0.026118500254767335
0.1407115,0.019414299187637575,0.003772642417060192,0.006167324065415402,0.06626894189102445,0.04409320843797477,0.033715232427464256,0.007061290344316491,0.026146751529250424
0.1412308,0.019582798428493014,0.0037713475759661593,0.006192060086111302,0.06622959434490434,0.044224512234767484,0.03349723015271774,0.007040335056821238,0.026174352387978474
0.14175,0.019751666611249143,0.0037704225322100155,0.006217221270523601,0.06618861692847823,0.044356695838529185,0.03327875490463891,0.0070201478689444746,0.02620129710738769
0.1422692,0.019920890692669363,0.0037698736508292047,0.00624280078925168,0.06614601879518817,0.044489752579663394,0.03305984371124838,0.00700072330533526,0.026227580059485115
0.1427885,0.02009045752554986,0.003769707237553903,0.006268791625947143,0.06610180915010837,0.044623675347619796,0.032840533443297105,0.006982055620378047,0.026253195715483884
0.1433077,0.020260353860502046,0.0037699295378166775,0.006295186579651348,0.06605599724672499,0.044758456593136466,0.03262086080776531,0.006964138800651395,0.02627813864937841
0.1438269,0.02043056634773467,0.003770546735770072,0.006321978267177508,0.06600859238372041,0.04489408833066919,0.032400862341421914,0.006946966567442326,0.02630240354145512
0.1443462,0.020601081538834505,0.0037715649533120103,0.006349159125536344,0.06595960390176415,0.04503056214100749,0.0321805744044445,0.006930532379316287,0.02632598518173422
0.1448654,0.020771885888544592,0.0037729902491188826,0.006376721414404227,0.06590904118031242,0.04516786917407653,0.03196003317409976,0.006914829434742606,0.026348878473338173
0.1453846,0.020942965756539086,0.0037748286176861627,0.006404657218632783,0.06585691363441737,0.04530600015192393,0.03173927463848495,0.006899850674775365,0.02637107843578221
0.1459038,0.021114307409193674,0.003777085988376352,0.0064329584507988955,0.06580323071154771,0.04544494537188996,0.031518334590330675,0.0068855887857895886,0.026392580208182533
0.1464231,0.021285897021350756,0.0037797682244740255,0.006461616853794028,0.0657480018884209,0.04558469470995967,0.03129724862086561,0.00687203620227261,0.026413379052377783
0.1469423,0.02145772067807852,0.0037828811222477324,0.006490624003451828,0.0656912366678475,0.04572523762429504,0.031076052113743445,0.006859185109670521,0.026433470355960022
0.1474615,0.021629764376423218,0.003786430410018473,0.006519971311212961,0.06563294457558726,0.045866563158945044,0.03085478023903248,0.006847027447289554,0.026452849635211936
0.1479808,0.021802014027153815,0.003790421747234452,0.006549650026826167,0.06557313515721654,0.04600865994773122,0.030633467947268043,0.006835554911252215,0.026471512537947984
0.1485,0.02197445545649824,0.003794860723551792,0.006579651241084549,0.06551181797500583,0.04615151621830607,0.030412149963568027,0.0068247589575080175,0.02648945484625798
0.1490192,0.02214707440787037,0.003799752857920899,0.006609965888596177,0.06544900260480618,0.04629511979638149,0.030190860781811813,0.0068146308048986325,0.026506672479152036
0.1495385,0.022319856543586793,0.003805103597678131,0.006640584750588121,0.06538469863294269,0.046439458110124,0.02996963465888299,0.006805161438277271,0.026523161495106338
0.1500577,0.022492787446572165,0.003810918317642456,0.006671498457743056,0.06531891565311315,0.04658451819471368,0.029748505608976426,0.006796341611682158,0.0265389180945093
0.1505769,0.022665852622051983,0.0038172023192167516,0.006702697493067651,0.06525166326328993,0.046730286697063514,0.0295275073979703,0.006788161851563908,0.026553938622007625
0.1510962,0.022839037499231274,0.0038239608294934075,0.006734172194791948,0.06518295106262281,0.04687674988069636,0.02930667353786376,0.006780612460066602,0.026568219568751876
0.1516154,0.02301232743295773,0.0038311990003638895,0.006765912759298995,0.0651127886483412,0.0470238936307768,0.029086037281280796,0.0067736835183623565,0.026581757574541287
0.1521346,0.023185707705367778,0.003838921907631912,0.006797909244084006,0.06504118561265436,0.04717170345929581,0.028865631616040978,0.006767364890039128,0.026594549429867293
0.1526538,0.02335916352751403,0.003847134550129874,0.006830151570742373,0.06496815153964801,0.04732016451040588,0.028645489259797655,0.006761646224541461,0.02660659207785544
0.1531731,0.02353268004097288,0.003855841848838209,0.006862629527985828,0.0648936960021764,0.04746926156590468,0.028425642654744464,0.006756516960663874,0.02661788261610519
0.1536923,0.023706242319430994,0.0038650486460073087,0.006895332774686059,0.06481782855874867,0.04761897905086468,0.02820612396239107,0.006751966330096604,0.02662841829842725
0.1542115,0.023879835370249923,0.003874759704281679,0.006928250842945064,0.06474055875040874,0.04776930103940605,0.027986965058409256,0.006747983361023367,0.02663819653647804
0.1547308,0.02405344413600825,0.00388497970582602,0.0069613731411914855,0.06466189609760817,0.04792021126060992,0.027768197527550626,0.006744556881770886,0.026647214901290878
0.15525,0.02422705349602106,0.00389571325145291,0.006994688957302119,0.0645818500970717,0.048071693104568956,0.02754985265863713,0.006741675524509914,0.026655471124703397
0.1557692,0.024400648267836843,0.0039069648597518285,0.007028187461747771,0.06450043021865537,0.048223729628572014,0.027331961439625626,0.006739327729007595,0.026662963100680667
0.1562885,0.024574213208712482,0.003918738966219226,0.007061857710762606,0.06441764590219773,0.048376303563419584,0.027114554552747593,0.0067375017464309985,0.02666968888653346
0.1568077,0.024747733017067272,0.0039310399223894,0.007095688649536151,0.06433350655436496,0.04852939731986675,0.026897662369725208,0.006736185643201682,0.026675646704031226
0.1573269,0.024921192333917274,0.003943871994965912,0.007129669115427103,0.0642480215454911,0.048682992995190376,0.02668131494706491,0.006735367304901168,0.026680834940409383
0.1578462,0.025094575744291428,0.0039572393649532946,0.007163787841198167,0.06416120020641496,0.048837072379877555,0.026465542021429842,0.0067350344402271846,0.02668525214927095
0.1583654,0.025267867778630975,0.003971146126788829,0.007198033458271189,0.06407305182531534,0.048991616964432605,0.02625037300509249,0.006735174585000447,0.026688897051382766
0.1588846,0.025441052914173833,0.003985596287474141,0.0072323945000019405,0.06398358564454676,0.04914660794630002,0.02603583698146899,0.006735775106221738,0.026691768535366808
0.1594038,0.025614115576325328,0.004000593765706425,0.007266859404974051,0.06389281085747751,0.0493020262369007,0.025821962700736605,0.006736823206179019,0.026693865658287342
0.1599231,0.025787040140016645,0.004016142391009064,0.007301416520311652,0.06380073660533193,0.04945785246877875,0.02560877857553581,0.006738305926604241,0.026695187646134735
0.1604423,0.025959810931052277,0.004032245902861481,0.007336054105010459,0.06370737197403831,0.04961406700285582,0.02539631267675843,0.0067402101528795146,0.026695733894206805
0.1609615,0.026132412227447777,0.004048907949828018,0.0073707603332871545,0.06361272599108361,0.04977064993578966,0.025184592729423617,0.006742522618292238,0.026695503967388536
0.1614808,0.026304828260759232,0.004066132088685681,0.007405523297947049,0.06351680762237571,0.04992758110743343,0.024973646108643312,0.006745229908338752,0.026694497600330658
0.162,0.02647704321740613,0.004083921783550571,0.007440331013770152,0.06341962576911354,0.05008484010839184,0.024763499835679423,0.006748318465076078,0.02669271469752766
0.1625192,0.026649041239989527,0.004102280405002806,0.00747517142091587,0.06332118926466575,0.05024240628767001,0.02455418057409475,0.006751774591521225,0.026690155333295683
0.1630385,0.026820806428607697,0.004121211229209776,0.007510032388346673,0.06322150687145846,0.05040025876041017,0.024345714625999736,0.006755584456097566,0.02668681975165061
0.1635577,0.02699232284217174,0.004140717437047531,0.007544901717271092,0.06312058727787288,0.0505583764157116,0.024138127928397066,0.0067597340971277875,0.026682708366086737
0.1640769,0.027163574499723838,0.004160802113220195,0.007579767144606439,0.06301843909515428,0.05071673792452847,0.023931446049625854,0.006764209427372875,0.026677821759256436
0.1645962,0.027334545381760847,0.004181468245377306,0.007614616346461681,0.06291507085433433,0.0508753217476407,0.02372569418590717,0.0067689962386166,0.026672160682551033
0.1651154,0.027505219431566055,0.004202718723229083,0.007649436941640837,0.06281049100316931,0.05103410614369279,0.023520897157992646,0.006774080206294916,0.02666572605558309
0.1656346,0.02767558055655175,0.004224556337659658,0.0076842164951673635,0.06270470790309716,0.05119306917729614,0.023317079407917756,0.006779446894169728,0.02665851896557021
0.1661538,0.027845612629615393,0.004246983779838347,0.0077189425218299555,0.06259772982621706,0.051352188727190426,0.02311426499586161,0.00678508175904647,0.02665054066662038
0.1666731,0.028015299490511947,0.0042700036403290845,0.00775360248975024,0.06248956495229527,0.05151144249446011,0.022912477597114834,0.006790970155534976,0.026641792578918754
0.1671923,0.02818462494724474,0.00429361840819815,0.007788183823972833,0.06238022136580212,0.05167080801080198,0.022711740499157144,0.006797097340853221,0.02663227628781549
0.1677115,0.02835357277747709,0.004317830470120322,0.007822673910078286,0.0622697070529844,0.05183026264683992,0.022512076598846048,0.006803448479673538,0.02662199354281426
0.1682308,0.02852212672996678,0.004342642109483657,0.007857060097819422,0.06215802989897849,0.05198978362048277,0.02231350839971792,0.00681000864901099,0.02661094625646091
0.16875,0.028690270526025314,0.004368055505493096,0.007891329704781605,0.062045197684969265,0.05214934800532189,0.02211605800940263,0.006816762843153639,0.026599136503131438
0.1692692,0.028857987861003572,0.0043940727322731915,0.00792547002006748,0.0619312180854004,0.052308932739064715,0.021919747137152886,0.0068236959786344,0.026586566517718256
0.1697885,0.029025262405805507,0.004420695757970271,0.007959468308006744,0.061816098665241556,0.05246851463200142,0.021724597091489453,0.006830792899244211,0.026573238694213717
0.1703077,0.029192077808431274,0.004447926443854406,0.007993311811891547,0.0616998468773184,0.05262807037550133,0.021530628777963252,0.0068380383810861525,0.026559155584189524
0.1708269,0.02935841769555087,0.004475766543421575,0.008026987757738068,0.061582470059711215,0.05278757655053601,0.021337862697035522,0.0068454171376701786,0.02654431989517058
0.1713462,0.029524265674109252,0.004504217701496437,0.008060483358074903,0.06146397543322797,0.05294700963622529,0.02114631894207708,0.00685291382504801,0.02652873448890177
0.1718654,0.02968960533296371,0.004533281453336145,0.008093785815758819,0.06134437009895721,0.05310634601840262,0.02095601719748764,0.006860513046987799,0.026512402379506136
0.1723846,0.02985442024455425,0.00456295922373565,0.008126882327818481,0.061223661035906,0.053265561998195494,0.020766976736936,0.006868199360188099,0.02649532673153322
0.1729038,0.030018693966607644,0.004593252326134977,0.008159760089326725,0.06110185509872814,0.05342463380061699,0.020579216421721867,0.006875957279530701,0.026477510857896736
0.1734231,0.030182410043875774,0.004624161961728958,0.008192406297301917,0.06097895901554769,0.05358353758316407,0.02039275469926001,0.006883771283371826,0.026458958217701223
0.1739423,0.030345552009909016,0.004655689218579937,0.00822480815463893,0.06085497938588259,0.053742249444418716,0.020207609601687337,0.0068916258188711985,0.026439672413957813
0.1744615,0.0305081033888653,0.004687835070733968,0.008256952874070213,0.0607299226786738,0.053900745432647584,0.020023798744593414,0.006899505307358442,0.026419657191189626
0.1749808,0.030670047697355388,0.004720600377341029,0.008288827682157376,0.06060379523042469,0.05405900155439607,0.019841339325874948,0.006907394149736264,0.026398916432927466
0.1755,0.030831368446325013,0.004753985881779833,0.008320419823313658,0.060476603243455884,0.05421699378307203,0.019660248124714723,0.006915276731919825,0.02637745415909693
0.1760192,0.03099204914297428,0.004787992210787812,0.008351716563857569,0.06034835278428056,0.054374698067514306,0.019480541500685282,0.006923137430311641,0.026355274523298347
0.1765385,0.03115207329271456,0.004822619873596915,0.008382705196097942,0.060219049782104885,0.054532090340541024,0.019302235392977717,0.006930960617311343,0.02633238180998162
0.1770577,0.03131142440116324,0.004857869261075841,0.008413373042450583,0.06008870002745867,0.054689146527471894,0.019125345319755654,0.006938730666859567,0.026308780431518852
0.1775769,0.03147008597617644,0.004893740644879379,0.008443707459586657,0.05995730917096076,0.05484584255461924,0.018949886377634662,0.006946431960015234,0.026284474925178426
0.1780962,0.03162804152992031,0.004930234176605443,0.008473695842612915,0.059824882722224075,0.05500215435774223,0.018775873241287173,0.0069540488905654166,0.02625946995000491
0.1786154,0.03178527458098154,0.004967349886960467,0.008503325629283812,0.05969142604890462,0.055158057890459244,0.018603320163173072,0.006961565870667053,0.026233770283609823
0.1791346,0.03194176865651818,0.005005087684933722,0.00853258430424555,0.059556944375898986,0.05531352913261315,0.01843224097339614,0.006968967336519715,0.026207380818878565
0.1796538,0.032097507294452016,0.005043447356981208,0.00856145940331206,0.05942144278469432,0.05546854409858467,0.018262649079686465,0.006976237754068624,0.026180306560599054
0.1801731,0.0322524740457041,0.005082428566219786,0.008589938517772865,0.05928492621287468,0.055623078845549095,0.01809455746750901,0.006983361624737106,0.026152552622017773
0.1806923,0.03240665247647509,0.005122030851632233,0.008618009298732823,0.05914739945378718,0.05577710948167199,0.01792797870029844,0.006990323491187623,0.026124124221328714
0.1812115,0.03256002617057208,0.005162253627283996,0.008645659461483685,0.059008867156371166,0.055930612174239794,0.017762924919820157,0.006997107943110486,0.02609502667810068
0.1817308,0.03271257873178385,0.005203096181552437,0.00867287678990737,0.05886933382515311,0.056083563157721526,0.017599407846657623,0.007003699623039331,0.02606526540964824
0.18225,0.032864293786306224,0.005244557676369411,0.008699649140910879,0.058728803820409896,0.0562359387417582,0.017437438780825872,0.007010083232192411,0.02603484592735144
0.1827692,0.03301515498521952,0.00528663714647808,0.008725964448892726,0.05858728135850266,0.05638771531907618,0.017277028602511076,0.007016243536338748,0.02600377383292911
0.1832885,0.03316514600701953,0.005329333498704895,0.008751810730240747,0.058444770512383046,0.05653886937332085,0.017118187772935913,0.0070221653716881095,0.025972054814670586
0.1838077,0.03331425056020371,0.005372645511247767,0.008777176087861101,0.05830127521227335,0.056689377486807274,0.01696092633535049,0.007027833650803803,0.025939694643630374
0.1843269,0.033462452385914075,0.005416571832981464,0.008802048715738269,0.05815679924652185,0.0568392163481844,0.016805253916148354,0.007033233368537168,0.02590669916979017
0.1848462,0.033609735260638124,0.005461110982781387,0.008826416903525775,0.0580113462626338,0.056988362760010305,0.01665117972610712,0.007038349607982631,0.02587307431819239
0.1853654,0.03375608299896942,0.005506261348866854,0.008850269041167338,0.05786491976847863,0.05713679364623611,0.016498712561753177,0.007043167546452169,0.02583882608504931
0.1858846,0.03390147945642911,0.005552021188165141,0.008873593623548082,0.05771752313367323,0.057284486059597045,0.01634786080684975,0.007047672461467919,0.02580396053383162
0.1864038,0.03404590853234949,0.005598388625697456,0.008896379255175373,0.057569159591141415,0.05743141718890922,0.01619863243400762,0.007051849736771703,0.02576848379134002
0.1869231,0.0341893541728208,0.005645361653988072,0.008918614654888806,0.05741983223884914,0.05757756436627115,0.016051035006417667,0.007055684868350122,0.02573240204376337
0.1874423,0.03433180037370174,0.005692938132497801,0.008940288660598773,0.057269544041715095,0.05772290507416906,0.015905075679704245,0.007059163470473871,0.025695721532726565
0.1879615,0.03447323118369447,0.0057411157870829385,0.008961390234052968,0.057118297833696,0.05786741695248545,0.015760761203898438,0.007062271281749852,0.02565844855133141
0.1884808,0.03461363070748408,0.005789892209480792,0.008981908465630134,0.056966096320045484,0.058011077805410836,0.015618097925530147,0.007064994171184643,0.02562058944019338
0.189,0.034752983108942724,0.005839264856822843,0.009001832579160311,0.05681294207974515,0.05815386560825866,0.015477091789837909,0.0070673181442578005,0.025582150583477226
0.1895192,0.034891272614398276,0.005889231051176559,0.009021151936770775,0.05665883756810605,0.058295758514183706,0.015337748343095212,0.0070692293490034475,0.025543138404934305
0.1900385,0.03502848351596738,0.005939787979116847,0.009039856043756851,0.0565037851195384,0.05843673486080406,0.015200072735052129,0.0070707140820985516,0.025503559363944304
0.1905577,0.03516460017495275,0.005990932691328112,0.009057934553476718,0.05634778695048736,0.05857677317672636,0.015064069721490882,0.007071758794956262,0.025463419951564
0.1910769,0.03529960702530443,0.006042662102237832,0.009075377272269328,0.056190845162532414,0.058715852187973976,0.014929743666893857,0.007072350099822617,0.025422726686585444
0.1915962,0.03543348857714469,0.006094972989682569,0.009092174164394553,0.05603296174564785,0.05885395082431732,0.014797098547222486,0.007072474775874972,0.025381486111605973
0.1921154,0.03556622942035622,0.0061478619946072855,0.009108315356994643,0.05587413858162189,0.05899104822550542,0.014666137952805266,0.007072119775320479,0.025339704789112183
0.1926346,0.035697814228232955,0.006201325620798789,0.009123791145076058,0.05571437744763215,0.05912712374739762,0.01453686509133315,0.007071272229492974,0.025297389297579995
0.1931538,0.035828227761193036,0.006255360234654113,0.009138591996510759,0.05555368001997481,0.05926215696799466,0.014409282790960386,0.007069919454946692,0.025254546227592836
0.1936731,0.03595745487055306,0.006309962064984575,0.009152708557055978,0.055392047877945064,0.05939612769336839,0.014283393503508797,0.007068048959545209,0.02521118217797992
0.1941923,0.03608548050236283,0.00636512720285621,0.009166131655391518,0.05522948250786589,0.059529015963489675,0.014159199307773405,0.00706564844854406,0.025167303751976677
0.1947115,0.03621228970129936,0.006420851601467253,0.009178852308173563,0.05506598530726221,0.059660802057953925,0.014036701912927187,0.007062705830665452,0.025122917553409608
0.1952308,0.03633786761461893,0.0064771310760632665,0.009190861725104018,0.054901557589176815,0.05979146650160375,0.013915902662022698,0.007059209224163482,0.025078030182907968
0.19575,0.03646219949616548,0.006533961303890488,0.009202151314014336,0.05473620058662454,0.05992099007004821,0.013796802535588171,0.007055146962878257,0.025032648234144927
0.1962692,0.036585270710433875,0.006591337824187891,0.009212712685962741,0.05456991545718056,0.06004935379507815,0.013679402155315724,0.00705050760227725,0.02498677829011131
0.1967885,0.03670706673668612,0.006649256038218436,0.009222537660343769,0.05440270328769912,0.060176538969977586,0.013563701787839198,0.0070452799254822574,0.02494042691942492
0.1973077,0.036827573173118605,0.006707711209339892,0.009231618270008974,0.05423456509915858,0.060302527154731195,0.013449701348599108,0.007039452949280252,0.024893600672678755
0.1978269,0.0369467757410784,0.006766698463115589,0.009239946766397653,0.054065501851629484,0.06042730018112838,0.013337400405792081,0.007033015930116426,0.02484630607883133
0.1983462,0.03706466028932654,0.006826212787465453,0.009247515624676302,0.053895514449362095,0.060550840157764164,0.013226798184402132,0.007025958370067731,0.02479854964164212
0.1988654,0.03718121279834644,0.00688624903285757,0.00925431754888556,0.05372460374599042,0.06067312947493688,0.013117893570311028,0.007018270022795176,0.02475033783615517
0.1993846,0.03729641938469552,0.006946801912540576,0.009260345477093255,0.053552770549849686,0.06079415080944263,0.013010685114484962,0.007009940899473083,0.024701677105233497
0.1999038,0.037410266305398135,0.007007866002817116,0.00926559258655214,0.05338001562940425,0.06091388712926586,0.012905171037234696,0.007000961274693465,0.024652573856146987
0.2004231,0.03752273996237793,0.007069435743358616,0.009270052298860826,0.05320633971878253,0.061032321698165214,0.012801349232546357,0.0069913216923436616,0.024603034457216087
0.2009423,0.0376338269069276,0.0071315054375616195,0.009273718285126355,0.05303174352341581,0.061149438080153225,0.012699217272480015,0.006981012971455266,0.024553065234513557
0.2014615,0.03774351384421398,0.007194069252945923,0.00927658447112675,0.05285622772577728,0.06126522014386818,0.012598772411633114,0.006970026212022409,0.024502672468626377
0.2019808,0.03785178763781645,0.007257121221594689,0.009278645042471867,0.05267979299121788,0.0613796520668358,0.012500011591665776,0.006958352800787397,0.02445186239147973
0.2025,0.03795863531429665,0.007320655240636714,0.009279894449760748,0.05250243997389542,0.061492718339618,0.012402931445884944,0.006945984416991698,0.024400641183224853
0.2030192,0.038064044067797516,0.007384665072770989,0.00928032741373363,0.0523241693227934,0.06160440376984612,0.012307528303884268,0.0069329130380902495,0.024349014969192565
0.2035385,0.038168001264669585,0.007449144346833618,0.009279938930416712,0.05214498168782627,0.06171469348613535,0.012213798196236603,0.006919130945427022,0.024296989816914017
0.2040577,0.03827049444812243,0.007514086558407118,0.009278724276257715,0.0519648777260277,0.06182357294187744,0.012121736859236017,0.006904630729869757,0.024244571733210454
0.2045769,0.038371511342898894,0.007579485070472074,0.009276679013250225,0.05178385810781839,0.061931027918908275,0.012031339739686116,0.00688940529740176,0.02419176666135348
0.2050962,0.038471039859969657,0.007645333114101056,0.009273798994044838,0.051601923523349635,0.06203704453104699,0.011942601999731552,0.006873447874668596,0.024138580478297336
0.2056154,0.03856906810124545,0.00771162378919469,0.0092700803670451,0.05141907468891905,0.062141609227503225,0.011855518521729568,0.006856752014477463,0.024085018991984692
0.2061346,0.038665584364304145,0.0077783500652597315,0.0092655195814862,0.0512353123534543,0.062244708796149045,0.011770083913158529,0.006839311601247042,0.024031087938727227
0.2066538,0.038760577147129736,0.007845504782228984,0.009260113392494376,0.05105063730506114,0.062346330366652665,0.011686292511560383,0.006821120856405601,0.02397679298066236
0.2071731,0.038854035152860025,0.00791308065132295,0.009253858866125009,0.05086505037763159,0.062446461413471,0.011604138389514136,0.006802174343735154,0.023922139703287357
0.2076923,0.03894594729454006,0.007981070255953071,0.009246753384377266,0.050678552457507964,0.0625450897586987,0.011523615359637427,0.006782466974659527,0.023867133613072095
0.2082115,0.039036302699878137,0.008049466052666501,0.009238794650183154,0.050491144490198245,0.06264220357477131,0.011444716979613396,0.00676199401347414,0.023811780135151756
0.2087308,0.03912509071600135,0.008118260372132362,0.009229980692368788,0.0503028274871377,0.06273779138702086,0.011367436557240084,0.006740751082515412,0.023756084611100715
0.20925,0.039212300914207666,0.008187445420169524,0.009220309870585612,0.05011360253249147,0.06283184207608232,0.01129176715549963,0.0067187341672676065,0.023700052296788916
0.2097692,0.03929792309471155,0.008257013278815967,0.009209780880209247,0.049923470789992326,0.06292434488015007,0.011217701597644666,0.006695939621404976,0.023643688360322018
0.2102885,0.0393819472913802,0.008326955907439863,0.009198392757203607,0.04973243350980765,0.06301528939708442,0.011145232472299298,0.006672364171767007,0.023586997880066827
0.2108077,0.03946436377645734,0.008397265143892479,0.00918614488294782,0.049540492035429366,0.06310466558636758,0.011074352138572099,0.00664800492326455,0.023529985842763494
0.2113269,0.03954516306527147,0.008467932705703009,0.009173036989023442,0.049347647810580465,0.06319246377090915,0.011005052731178497,0.006622859363714566,0.023472657141726173
0.2118462,0.03962433592092521,0.008538950191315427,0.009159069161959396,0.04915390238613118,0.06327867463870102,0.01093732616556993,0.006596925368601177,0.02341501657513391
0.2123654,0.03970187335896261,0.008610309081367363,0.009144241847931967,0.04895925742701828,0.06336328924432193,0.010871164143067118,0.006570201205760684,0.023357068844413374
0.2128846,0.039777766652011416,0.00868200074001097,0.009128555857417155,0.0487637147191601,0.06344629901029193,0.010806558155994912,0.006542685539988198,0.02329881855271523
0.2134038,0.03985200733439716,0.008754016416275713,0.009112012369792609,0.04856727617636016,0.0635276957282774,0.010743499492816224,0.006514377437563519,0.02324027020348581
0.2139231,0.03992458720672641,0.008826347245473001,0.009094612937886258,0.04836994384719191,0.06360747156014727,0.010681979243262777,0.006485276370693887,0.023181428199135757
0.2144423,0.039995498340436704,0.008898984250642571,0.009076359492468785,0.048171719921857196,0.06368561903888063,0.010621988303460601,0.006455382221871172,0.023122296839807363
0.2149615,0.040064733082310774,0.00897191834404055,0.009057254346687,0.04797260673901083,0.06376213106932634,0.010563517381048356,0.006424695288141087,0.02306288032224206
0.2154808,0.04013228405895312,0.009045140328669167,0.009037300200435174,0.04777260679254342,0.06383700092881466,0.010506557000286696,0.006393216285281938,0.02300318273874965
0.216,0.04019814418122708,0.009118640899848124,0.009016500144661318,0.04757172273831454,0.06391022226762141,0.010451097507156842,0.006360946351890404,0.022943208076280502
0.2165192,0.04026230664865079,0.009192410646827597,0.008994857665605397,0.0473699574008281,0.06398178910928479,0.010397129074446574,0.006327887053371858,0.022882960215602027
0.2170385,0.04032476495375049,0.009266440054442857,0.008972376648966383,0.04716731377984146,0.06405169585077522,0.010344641706821764,0.0062940403858327415,0.022822442930580496
0.2175577,0.04038551288636993,0.009340719504810423,0.008949061383994995,0.04696379505689972,0.06411993726251883,0.010293625245881554,0.006259408779872545,0.022761659887569126
0.2180769,0.04044454453793445,0.009415239279065605,0.008924916567508876,0.04675940460178692,0.0641865084882745,0.010244069375195241,0.006223995104272958,0.02270061464490325
0.2185962,0.04050185430566852,0.009489989559141215,0.008899947307826938,0.046554145978885804,0.0642514050448645,0.010195963625318957,0.006187802669581757,0.02263931065250326
0.2191154,0.04055743689676521,0.00956496042958721,0.008874159128619486,0.046348022953438095,0.06431462282175805,0.010149297378790221,0.00615083523158906,0.022577751251585704
0.2196346,0.04061128733250609,0.009640141879430887,0.008847557972670742,0.04614103949769749,0.06437615808050676,0.010104059875098539,0.006113096994693515,0.022515939674482854
0.2201538,0.040663400952329495,0.009715523804077253,0.008820150205550274,0.045933199796967375,0.06443600745403046,0.010060240215630314,0.006074592615156085,0.022453879044570805
0.2206731,0.04071377341784527,0.009791096007249077,0.008791942619189865,0.04572450825551524,0.0644941679457515,0.01001782736858642,0.006035327204239075,0.022391572376306023
0.2211923,0.040762400716793386,0.00986684820296608,0.008762942435362249,0.04551496950235548,0.0645506369285751,0.009976810173870941,0.005995306331228207,0.022329022575370026
0.2217115,0.0408092791669443,0.009942770017562708,0.008733157309058156,0.04530458839689203,0.06460541214371276,0.009937177347949537,0.005954536026335588,0.022266232438921837
0.2222308,0.04085440541993808,0.010018850991743865,0.008702595331758076,0.045093370034412134,0.06465849169934579,0.00989891748867601,0.005913022783481518,0.022203204655957653
0.22275,0.04089777646506,0.010095080582677997,0.00867126503459512,0.04488131975142253,0.06470987406912546,0.009862019080085705,0.005870773562953225,0.022139941807777282
0.2232692,0.040939389632949935,0.010171448166126851,0.008639175391405367,0.04466844313081988,0.0647595580905067,0.009826470497154495,0.005827795793938753,0.02207644636855676
0.2237885,0.04097924259924317,0.010247943038611197,0.008606335821662118,0.0444547460068879,0.06480754296291213,0.009792260010522228,0.005784097376934348,0.022012720706026587
0.2243077,0.04101733338814029,0.010324554419611744,0.008572756193290449,0.04424023447011435,0.06485382824572498,0.009759375791179649,0.005739686686023885,0.021948767082254888
0.2248269,0.04105366037590375,0.010401271453804529,0.008538446825358563,0.04402491487182158,0.06489841385610917,0.009727805915117871,0.0056945725710290315,0.021884587654534788
0.2253462,0.04108822229427895,0.01047808321332999,0.008503418490642414,0.04380879382860519,0.06494130006665659,0.009697538367939518,0.005648764359528947,0.02182018447637524
0.2258654,0.041121018233837625,0.010554978700095067,0.008467682418060172,0.04359187822657503,0.06498248750286148,0.009668561049430672,0.005602271858748437,0.021755559498594472
0.2263846,0.041152047647241875,0.010631946848107716,0.008431250294973153,0.04337417522539305,0.06502197714042325,0.0096408617780928,0.0055551053573134794,0.021690714570515225
0.2269038,0.04118131035242706,0.010708976525843357,0.008394134269349967,0.043155692262102,0.06505977030237994,0.00961442829563387,0.005507275626873064,0.021625651441260864
0.2274231,0.04120880653570237,0.010786056538642896,0.008356346951790636,0.042936437054738895,0.06509586865607597,0.00958924827141803,0.0054587939235862986,0.02156037176115144
0.2279423,0.0412345367547677,0.010863175631142087,0.008317901417407602,0.04271641760572678,0.06513027420996834,0.009565309306873408,0.005409671989473829,0.02149487708319861
0.2284615,0.04125850194164572,0.010940322489732037,0.008278811207560523,0.04249564220503802,0.06516298931027661,0.009542598939857587,0.005359922053632596,0.021429168864698197
0.2289808,0.041280703405527835,0.011017485745050702,0.008239090331441871,0.04227411943312218,0.06519401663748155,0.009521104648980499,0.00530955683331306,0.02136324846891908
0.2295,0.04130114283553264,0.011094653974505212,0.00819875326751036,0.0420518581635918,0.06522335920267738,0.009500813857884425,0.005258589534858007,0.02129711716688696
0.2300192,0.04131982230337527,0.011171815704824752,0.008157814964769253,0.041828867565659136,0.06525102034378273,0.009481713939480815,0.0052070338545021,0.02123077613926158
0.2305385,0.04133674426594569,0.011248959414643742,0.00811629084388658,0.041605157106317556,0.06527700372161471,0.009463792220143655,0.0051549039790312855,0.02116422647830572
0.2310577,0.04135191156779393,0.01132607353711492,0.008074196798154317,0.04138073655226152,0.06530131331583101,0.00944703598385921,0.005102214586301219,0.021097469189944228
0.2315769,0.0413653274435197,0.011403146462551859,0.008031549194283602,0.04115561597153992,0.06532395342074425,0.009431432476331965,0.005048980845613847,0.021030505195911358
0.2320962,0.04137699552006377,0.01148016654110051,0.007988364873033102,0.040929805734938145,0.06534492864101298,0.009416968909046601,0.004995218417951316,0.02096333533598437
0.2326154,0.041386919818897895,0.011557122085439131,0.007944661149667763,0.04070331651708527,0.06536424388721394,0.009403632463285827,0.004940943456066417,0.02089596037030132
0.2331346,0.041395104758110035,0.011634001373506122,0.007900455814245226,0.04047615929728332,0.06538190437130009,0.009391410294103824,0.004886172604428795,0.020828380981760798
0.2336538,0.04140155515438133,0.011710792651255159,0.007855767131727316,0.04024834536005694,0.06539791560194898,0.00938028953425501,0.0048309229990261965,0.020760597778501203
0.2341731,0.04140627622485097,0.011787484135437053,0.007810613841914162,0.04001988629542207,0.0654122833798062,0.009370257298077746,0.004775212267020082,0.020692611296457077
0.2346923,0.041409273588865037,0.01186406401640775,0.007765015159198546,0.03979079399887373,0.06542501379262854,0.009361300685332578,0.00471905852625494,0.020624422001989884
0.2352115,0.04141055326960507,0.01194052046096189,0.007718990772138264,0.03956108067109375,0.06543611321033121,0.009353406784994543,0.004662480384620704,0.020556030294590417
0.2357308,0.04141012169559217,0.012016841615191344,0.007672560842844363,0.039330758817380344,0.06544558827994401,0.009346562678999113,0.004605496939267698,0.02048743650965005
0.23625,0.04140798570206209,0.012093015607368114,0.007625746006183249,0.039099841246802144,0.06545344592048098,0.00934075544594131,0.004548127775673556,0.020418640921297852
0.2367692,0.04140415253220703,0.012169030550850867,0.0075785673687907874,0.0388683410710797,0.06545969331772876,0.009335972164727622,0.004490392966561595,0.020349643745300634
0.2372885,0.04139862983827972,0.012244874547014386,0.007531046507896609,0.03863627170319779,0.06546433791895886,0.009332199918180283,0.004432313070670134,0.02028044514202279
0.2378077,0.041391425682555896,0.01232053568820109,0.007483205469957003,0.03840364685575194,0.06546738742756872,0.009329425796593594,0.004373909131372273,0.020211045219442704
0.2383269,0.0413825485381516,0.01239600206069372,0.007435066769094861,0.03817048053903212,0.06546884979765644,0.009327636901241812,0.004315202675145661,0.020141444036222384
0.2388462,0.041372007289692356,0.012471261747708231,0.007386653385345259,0.03793678705884666,0.06546873322853358,0.009326820347838232,0.004256215709891795,0.02007164160482682
0.2393654,0.041359811233831534,0.012546302832405827,0.00733798876270537,0.03770258101408926,0.06546704615917993,0.009326963269945043,0.004196970723104377,0.020001637894689457
0.2398846,0.04134597007961577,0.01262111340092309,0.007289096806987499,0.037467877294051787,0.0654637972626444,0.009328052822333498,0.004137490679886291,0.01993143283542008
0.2404038,0.041330493948695445,0.01269568154541905,0.007240001883474081,0.03723269107548581,0.06545899544039561,0.009330076184293913,0.004077799020814721,0.019861026320051267
0.2409231,0.041313393375378274,0.01276999536713804,0.007190728814373593,0.036997037819415796,0.0654526498166262,0.009333020562895002,0.00401791965965394,0.019790418208319675
0.2414423,0.04129467930652388,0.0128440429794871,0.007141302876076353,0.03676093326770711,0.06544476973251415,0.009336873196192015,0.003957876980915278,0.019719608329978336
0.2419615,0.041274363101277224,0.012917812511126716,0.007091749796209201,0.03652439343939252,0.06543536474044533,0.009341621356383112,0.0038976958372637345,0.019648596488136362
0.2424808,0.04125245653063832,0.012991292109073488,0.007042095750488169,0.03628743462676114,0.06542444459820125,0.009347252352913364,0.0038374015467707166,0.019577382462622462
0.243,0.041228971776865866,0.013064469941813405,0.006992367359368232,0.036050073391214514,0.06541201926311659,0.00935375353552569,0.0037770198900123125,0.019505966013368813
0.2435192,0.04120392143271211,0.013137334202424321,0.006942591684489266,0.035812326558894964,0.06539809888621109,0.009361112297258079,0.0037165771070125234,0.019434346883811893
0.2440385,0.04117731850048664,0.01320987311170629,0.006892796224917339,0.03557421121609225,0.06538269380630074,0.009369316077386327,0.003656099894030865,0.019362524804306842
0.2445577,0.041149176390947007,0.013282074921318547,0.006843008913180528,0.03533574470443486,0.06536581454409225,0.009378352364311516,0.003595615400193786,0.019290499495551904
0.2450769,0.04111950892201419,0.01335392791692205,0.006793258111098463,0.03509694461587284,0.06534747179626492,0.009388208698391404,0.0035351512239694166,0.01921827067201963
0.2455962,0.041088330317311676,0.013425420421326719,0.006743572605404934,0.03485782878745943,0.0653276764295433,0.009398872674714925,0.0034747354094852327,0.01914583804539154
0.2461154,0.04105565520452726,0.013496540797642665,0.0066939816031630316,0.03461841529593892,0.06530643947476383,0.00941033194581896,0.00341439644268829,0.01907320132799312
0.2466346,0.04102149861359766,0.013567277452434823,0.00664451472697243,0.03437872245214818,0.065283772120938,0.009422574224346565,0.003354163247347719,0.0190003602362261
0.2471538,0.04098587597471636,0.013637618838880377,0.0065952020099686,0.03413876879523948,0.06525968570931497,0.009435587285645877,0.0032940651808991885,0.018927314493994995
0.2476731,0.04094880311616582,0.013707553459928372,0.006546073890613892,0.03389857308673184,0.0652341917274462,0.009449358970308934,0.003234132030131074,0.018854063836124913
0.2481923,0.040910296261975364,0.01377706987146089,0.006497161207280621,0.03365815430439857,0.06520730180325525,0.009463877186649615,0.003174394006712058,0.018780608011767425
0.2487115,0.04087037202940603,0.013846156685455066,0.006448495192626459,0.03341753163599831,0.06517902769911585,0.009479129913119944,0.003114881742559906,0.01870694678779129
0.2492308,0.040829047426263546,0.01391480257314524,0.0064001074677626025,0.03317672447285685,0.06514938130594135,0.009495105200664012,0.0030556262850511533,0.01863307995215471
0.24975,0.04078633984804062,0.013982996268184564,0.006352030036215367,0.03293575240330699,0.06511837463728896,0.009511791175008881,0.0029966590920714425,0.018559007317255637
0.2502692,0.04074226707488963,0.014050726569805376,0.006304295277682021,0.032694635205993604,0.065086019823482,0.009529176038891899,0.0029380120269062167,0.018484728723256606
0.2507885,0.04069684726842701,0.014117982345977704,0.006256935941581778,0.0324533928430509,0.06505232910575336,0.009547248074223972,0.002879717352971497,0.018410244041380502
0.2513077,0.04065009896837129,0.014184752536565265,0.006209985140403058,0.03221204545315916,0.06501731483041409,0.009565995644188544,0.002821807728384457,0.018335553177173725
0.2518269,0.04060204108901696,0.014251026156478318,0.0061634763428482274,0.03197061334448817,0.06498098944305077,0.00958540719527609,0.00276431620037351,0.0182606560737332
0.2523462,0.040552692915547396,0.014316792298822708,0.0061174433667771115,0.03172911698753463,0.06494336548275585,0.009605471259254048,0.0027072761995276793,0.018185552714893922
0.2528654,0.040502074100190126,0.01438204013804441,0.006071920371950674,0.03148757700786082,0.06490445557639553,0.009626176455072112,0.002650721533885041,0.018110243128373765
0.2533846,0.04045020465821818,0.014446758933068782,0.00602694185257629,0.031246014178741722,0.0648642724329193,0.009647511490702847,0.002594686382860076,0.01803472738887238
0.2539038,0.04039710496380124,0.014510938030433749,0.00598254262965608,0.031004449413727722,0.06482282883771566,0.009669465164917493,0.002539205291009789,0.017959005621121255
0.2544231,0.040342795745710154,0.01457456686741599,0.005938757843139791,0.030762903759129632,0.0647801376470185,0.00969202636899682,0.002484313161638486,0.017883078002881914
0.2549423,0.04028729808287807,0.014637634975149251,0.005895622943883731,0.030521398386432745,0.06473621178236873,0.00971518408837683,0.002430045250241071,0.017806944767889365
0.2554615,0.04023063339982156,0.01470013198173374,0.005853173685417286,0.030279954584646336,0.06469106422513603,0.009738927404229075,0.0023764371577847405,0.01773060620873783
0.2559808,0.04017282346192445,0.014762047615335606,0.005811446115518535,0.0300385937525947,0.06464470801110525,0.009763245494975379,0.002323524823828978,0.017654062679705727
0.2565,0.04011389037058745,0.014823371707275292,0.005770476567600539,0.029797337391155882,0.06459715622513237,0.009788127637736736,0.0022713445194837696,0.017577314599516915
0.2570192,0.040053856558246066,0.014884094195103491,0.005730301651909835,0.029556207095453913,0.0645484219958743,0.009813563209716254,0.002219932840206039,0.01750036245403524
0.2575385,0.03999274478325941,0.014944205125663336,0.0056909582465387715,0.029315224547010417,0.0644985184905964,0.009839541689516049,0.002169326698434387,0.01742320679888955
0.2580577,0.039930578124671906,0.015003694658137362,0.005652483488253298,0.029074411505861358,0.06444745891006151,0.00986605265838806,0.0021195633160622936,0.017345848262026495
0.2585769,0.03986737997685013,0.015062553067077667,0.00561491476313795,0.02883378980264457,0.06439525648350315,0.009893085801418733,0.002070680216750028,0.017268287546188782
0.2590962,0.03980317404399667,0.015120770745417674,0.005578289697059814,0.028593381330663668,0.06434192446368586,0.009920630908647532,0.002022715218075593,0.017190525431316578
0.2596154,0.03973798433454286,0.015178338207463888,0.0055426461459534325,0.028353208037933633,0.06428747612205463,0.009948677876119218,0.0019757064235250764,0.017112562776870035
0.2601346,0.03967183515542259,0.015235246091865983,0.0055080221859287164,0.0281132919192133,0.06423192474397511,0.009977216706869857,0.001929692214322831,0.01703440052407092
0.2606538,0.039604751106229345,0.015291485164563535,0.005474456103204094,0.027873655008029644,0.06417528362406609,0.010006237511846542,0.001884711241101943,0.016956039698061424
0.2611731,0.03953675707325916,0.015347046321707658,0.005441986383867244,0.027634319368698652,0.06411756606162483,0.010035730510761029,0.0018408024154154558,0.01687748140997821
0.2616923,0.039467878223442165,0.015401920592555778,0.005410651703465908,0.027395307088347472,0.06405878535614609,0.010065686032877663,0.001798004901088858,0.01679872685893983
0.2622115,0.039398139998165986,0.015456099142337736,0.0053804909164313795,0.027156640268942343,0.06399895480293467,0.010096094517736257,0.0017563581054143803,0.016719777333945644
0.2627308,0.03932756810699431,0.01550957327509145,0.005351543045337415,0.026918341019326678,0.06393808768881155,0.010126946515810855,0.0017159016701877156,0.01664063421568464
0.26325,0.039256188521284166,0.01556233443646644,0.005323847269997399,0.026680431447273632,0.06387619728791315,0.01015823268910561,0.001676675462587854,0.016561298978252908
0.2637692,0.03918402746770541,0.015614374216493629,0.0052974429164027404,0.02644293365155733,0.06381329685758307,0.010189943811689058,0.0016387195659008137,0.016481773190778808
0.2642885,0.03911111142166596,0.015665684352319974,0.005272369445505527,0.02620586971404697,0.06374939963435543,0.010222070770168262,0.0016020742700881387,0.01640205851895532
0.2648077,0.03903746710064593,0.015716256730906545,0.005248666441848592,0.025969261691827873,0.06368451883002842,0.010254604564104262,0.0015667800622011212,0.016322156726479166
0.2653269,0.03896312145744352,0.015766083391688782,0.005226373602046196,0.025733131609353734,0.06361866762782627,0.01028753630637023,0.0015328776166417988,0.016242069676396492
0.2658462,0.03888810167333543,0.015815156529197738,0.005205530723118623,0.025497501450634213,0.0635518591786477,0.010320857223453706,0.0015004077852718385,0.016161799332354915
0.2663654,0.03881243515115416,0.015863468495641075,0.005186177690684024,0.02526239315146213,0.06348410659739837,0.01035455865570431,0.0014694115873704928,0.01608134775976163
0.2668846,0.03873614950828463,0.015911011803442593,0.005168354467010922,0.025027828591684495,0.06341542295940555,0.010388632057528251,0.001439930199442879,0.01600071712684738
0.2674038,0.0386592725695824,0.01595777912773907,0.005152101078934829,0.024793829587521632,0.06334582129691278,0.010423068997530966,0.0014120049448798724,0.01591990970563598
0.2679231,0.0385818323602157,0.016003763308833123,0.005137457605642453,0.024560417883938538,0.06327531459565304,0.010457861158609206,0.0013856772834709573,0.015838927872819205
0.2684423,0.03850385709843359,0.016048957354600737,0.005124464166327035,0.024327615147072573,0.0632039157914991,0.01049300033799381,0.001360988800771414,0.015757774110536974
0.2689615,0.038425375188262646,0.016093354442852092,0.00511316090771838,0.024095442956721398,0.06313163776718962,0.01052847844724439,0.0013379811973252757,0.015676451007063028
0.2694808,0.03834641521213481,0.01613694792364428,0.005103587991491146,0.023863922798894974,0.06305849334913026,0.010564287512196999,0.0013166962777455167,0.01559496125739655
0.27,0.03826700592344921,0.016179731321544433,0.005095785581555043,0.023633076058435083,0.06298449530426994,0.010600419672865884,0.0012971759396529846,0.015513307663760585
0.2705192,0.03818717623907088,0.016221698337841792,0.005089793831230595,0.023402924011705857,0.06290965633705273,0.010636867183300255,0.0012794621624756068,0.015431493136008551
0.2710385,0.038106955231769386,0.016262842852707255,0.005085652870314139,0.02317348781935851,0.06283398908644683,0.010673622411396976,0.0012635969961094205,0.015349520691940396
0.2715577,0.03802637212260048,0.0163031589272989,0.005083402792035772,0.022944788519173493,0.06275750612305211,0.010710677838670028,0.0012496225494429865,0.015267393457530318
0.2720769,0.0379454562732335,0.01634264080581223,0.005083083639913986,0.022716847018983195,0.0626802199462877,0.010748026059977496,0.0012375809787467556,0.015185114667068074
0.2725962,0.03786423717822747,0.01638128291747395,0.005084735394510737,0.022489684089678264,0.06260214298166066,0.010785659783206891,0.0012275144759289582,0.015102687663215977
0.2731154,0.037782744457258405,0.016419079878478182,0.005088397960090773,0.022263320358300576,0.06252328757811683,0.010823571828919467,0.0012194652566595964,0.015020115896983637
0.2736346,0.037701007847300384,0.016456026493864163,0.005094111151189045,0.022037776301225845,0.06244366600547408,0.010861755129954222,0.0012134755483641357,0.014937402927622504
0.2741538,0.03761905719476258,0.0164921177593344,0.005101914679090067,0.021813072237438898,0.06236329045193839,0.01090020273099224,0.001209587578088524,0.014854552422442244
0.2746731,0.03753692244758434,0.016527348863012232,0.005111848138223084,0.021589228321904432,0.06228217302170317,0.010938907788081936,0.0012078435602372044,0.014771568156550955
0.2751923,0.03745463364729022,0.016561715187137765,0.005123950992476909,0.021366264539036058,0.062200325732632365,0.010977863568125846,0.00120828568418583,0.014688454012521206
0.2757115,0.03737222092100682,0.016595212309701228,0.005138262561438329,0.021144200696266338,0.06211776051402785,0.011017063448329678,0.00121095610177043,0.014605213979983891
0.2762308,0.03728971447344315,0.01662783600601261,0.005154822006557944,0.020923056417720444,0.06203448920448172,0.011056500915614305,0.0012158969146548433,0.01452185215515192
0.27675,0.03720714457883637,0.016659582250206487,0.005173668317247374,0.020702851137995918,0.06195052354981363,0.011096169565991477,0.0012231501615783138,0.014438372740275752
0.2772692,0.03712454157286448,0.0166904472166809,0.00519484029691177,0.020483604096050913,0.06186587520109318,0.011136063103903967,0.0012327578054852374,0.014354780043032757
0.2777885,0.03704193584452753,0.016720427281469014,0.005218376548921639,0.02026533432920306,0.06178055571274673,0.011176175341530937,0.001244761720539164,0.014271078475852381
0.2783077,0.03695935782799902,0.01674951902354226,0.00524431546252802,0.020048060667241095,0.06169457654074788,0.011216500198059167,0.0012592036790232738,0.014187272555178963
0.2788269,0.03687683799444905,0.016777719226043576,0.005272695198725121,0.019831801726651197,0.0616079490408898,0.011257031698920754,0.0012761253381296923,0.01410336690067403
0.2793462,0.03679440684384073,0.016805024877449396,0.005303553676064587,0.019616575904959913,0.06152068446713785,0.011297763974997897,0.0012955682266401459,0.014019366234359808
0.2798654,0.036712094896701644,0.01683143317265897,0.00533692855642561,0.019402401375195374,0.0614327939700598,0.011338691261795302,0.0013175737315006047,0.013935275379705656
0.2803846,0.03662993268587194,0.016856941514009717,0.005372857230745156,0.019189296080468547,0.06134428859533109,0.011379807898580714,0.0013421830842926914,0.013851099260659016
0.2809038,0.036547950748230855,0.01688154751221727,0.005411376804712578,0.018977277728676092,0.06125517928231187,0.01142110832749406,0.0013694373476047356,0.01376684290062243
0.2814231,0.03646617961640337,0.016905248987238955,0.0054525240844329245,0.018766363787326334,0.06116547686269227,0.011462587092625662,0.001399377401305437,0.01368251142137806
0.2819423,0.036384649810448574,0.016928043969059448,0.005496335562063197,0.018556571478489787,0.061075192059201686,0.011504238839063832,0.0014320439287231522,0.013598110041961051
0.2824615,0.036303391829531316,0.016949930698397352,0.00554284740142581,0.018347917773875587,0.06098433548437787,0.011546058311912154,0.001467477402733874,0.013513644077482975
0.2829808,0.036222436143578396,0.016970907627331628,0.005592095423603482,0.018140419390034992,0.060892917639390656,0.01158804035527664,0.0015057180717610256,0.013429118937906588
0.2835,0.036141813184920595,0.016990973419846993,0.0056441150925197565,0.017934092783693085,0.060800948912915265,0.011630179911222876,0.0015468059456902772,0.01334454012677302
0.2840192,0.03606155333992197,0.01701012695229758,0.005698941500509361,0.017728954147209697,0.06070843958004959,0.011672472018703185,0.0015907807817026982,0.01325991323988257
0.2845385,0.03598168694059789,0.017028367313788473,0.005756609353882595,0.017525019404170512,0.06061539980126969,0.01171491181245385,0.0016376820700296478,0.013175243963930246
0.2850577,0.03590224425622349,0.017045693806474794,0.005817152958487918,0.017322304205109232,0.06052183962141785,0.011757494521862387,0.0016875490196329311,0.013090538075097151
0.2855769,0.035823255484934424,0.017062105945778245,0.00588060620527691,0.017120823923361644,0.06042776896871756,0.011800215469804904,0.001740420543813836,0.013005801437598883
0.2860962,0.0357447507453218,0.017077603460521066,0.0059470025558757455,0.016920593651052345,0.06033319765381051,0.011843070071453686,0.0017963352457547523,0.012921040002192009
0.2866154,0.035666760068023,0.01709218629297741,0.006016375028167273,0.01672162819521485,0.06023813536881085,0.011886053833055115,0.0018553314039971422,0.012836259804639734
0.2871346,0.03558931338730996,0.017105854598842275,0.006088756181887796,0.016523942074045683,0.060142591686372454,0.011929162350678129,0.0019174469578596806,0.012751466964137778
0.2876538,0.03551244053267628,0.01711860874711823,0.006164178104242624,0.016327549513293006,0.06004657605876504,0.011972391308933298,0.001982719492800411,0.01266666768170137
0.2881731,0.03543617122042438,0.017130449319920225,0.006242672395544456,0.016132464442780183,0.05995009781695513,0.012015736479662652,0.002051186225726799,0.01258186823851433
0.2886923,0.035360535045253765,0.01714137711219891,0.006324270154878664,0.01593870049306457,0.059853166169688436,0.012059193720600265,0.002122883990257605,0.012497074994241079
0.2892115,0.035285561471851384,0.017151393131382774,0.0064090019657995325,0.01574627099223172,0.05975579020257059,0.01210275897400365,0.002197849221940558,0.012412294385302582
0.2897308,0.035211279826485434,0.017160498596939487,0.006496897882061557,0.015555188962825083,0.05965797887714473,0.012146428265256078,0.0022761179434299017,0.012327532923117113
0.29025,0.03513771928860385,0.01716869493985666,0.006587987413389903,0.015365467118911106,0.05955974102996527,0.012190197701440052,0.0023577257496279784,0.012242797192306809
0.2907692,0.03506490888243903,0.017175983802042175,0.006682299511294182,0.01517711786327964,0.059461085371668256,0.012234063469882294,0.0024427077927951157,0.012158093848870961
0.2912885,0.034992877468620696,0.017182367035644325,0.006779862554929761,0.014990153284779381,0.05936202048603923,0.012278021836670826,0.0025310987676321886,0.012073429618326902
0.2918077,0.03492165373579861,0.017187846702291707,0.006880704337010796,0.014804585155788119,0.05926255482907961,0.012322069145144731,0.0026229328963402825,0.011988811293819335
0.2923269,0.03485126619227709,0.017192425072252913,0.006984852049779261,0.014620424929817502,0.05916269672807242,0.012366201814357245,0.0027182439136619785,0.01190424573419893
0.2928462,0.034781743157662894,0.017196104623515937,0.007092332271034217,0.014437683739251998,0.059062454380648104,0.012410416337512923,0.002817065051908801,0.011819739862070924
0.2933654,0.03471311275452807,0.017198888040787015,0.007203170950225566,0.01425637239322184,0.05896183585385085,0.012454709280379523,0.002919429025979403,0.01173530066181451
0.2938846,0.03464540290008896,0.017200778214408644,0.007317393394616562,0.014076501375609679,0.058860849083205956,0.01249907727967542,0.0030253680183730783,0.011650935177573723
0.2944038,0.034578641297902675,0.01720177823919631,0.007435024255519247,0.013898080843190743,0.05875950187178864,0.012543517041433373,0.0031349136642032224,0.0115666505112205
0.2949231,0.034512855429582136,0.01720189141319353,0.007556087514607031,0.013721120623906352,0.058657801889294786,0.01258802533934166,0.003248097036215377,0.011482453820290544
0.2954423,0.03444807254653088,0.017201121236344784,0.007680606470308557,0.013545630215270657,0.05855575667111426,0.012632599013063552,0.0033649486298145495,0.01139835231589265
0.2959615,0.03438431966169898,0.017199471409086075,0.007808603724287036,0.013371618782910585,0.05845337361740721,0.012677234966536192,0.0034854983481065306,0.011314353260592165
0.2964808,0.03432162354136161,0.017196945830852975,0.007940101168009217,0.013199095159239015,0.058350659992183675,0.012721930166249925,0.003609775486958008,0.01123046396626935
0.297,0.034260010696922284,0.017193548598506227,0.008075119969408243,0.01302806784226126,0.058247622922387006,0.01276668163950902,0.003737808720080303,0.011146691791953385
0.2975192,0.034199507376742995,0.017189284004675173,0.00821368055964464,0.012858544994514895,0.05814426939698187,0.012811486472674802,0.003869626084141656,0.011063044141632868
0.2980385,0.034140139558004094,0.017184156536019287,0.0083558026199698,0.012690534442142975,0.05804060626604829,0.012856341809392118,0.004005254963913074,0.010979528462043652
0.2985577,0.034081932938596904,0.017178170871408282,0.008501505068696328,0.01252404367410055,0.05793664023988344,0.012901244848800078,0.0041447220774528774,0.010896152240434737
0.2990769,0.03402491292905255,0.01717133188002129,0.008650806048279709,0.01235907984149441,0.05783237788811376,0.012946192843727946,0.004288053461335226,0.01081292300231297
0.2995962,0.033969104644510535,0.01716364461936566,0.00880372291251583,0.012195649757055867,0.05772782563882055,0.012991183098877018,0.0044352744559280205,0.010729848309167333
0.3001154,0.03391453289673079,0.017155114333215957,0.008960272213858974,0.012033759894746355,0.05762298977768235,0.013036212968989306,0.00458640969072567,0.01064693575617358
0.3006346,0.0338612221861529,0.01714574644947389,0.009120469690865008,0.011873416389495612,0.057517876447137864,0.013081279857003783,0.004741483069742309,0.010564192969880083
0.3011538,0.0338091966940062,0.017135546577950137,0.009284330255764599,0.011714625037072103,0.05741249164557302,0.013126381212201057,0.004900517756971118,0.010481627605875826
0.3016731,0.03375848027447442,0.017124520508069223,0.009451867982171383,0.011557391294085242,0.05730684122653596,0.013171514528337374,0.0050635361619154745,0.01039924734644165
0.3021923,0.0337090964469187,0.017112674206498805,0.009623096092930179,0.011401720278118897,0.057200930897983476,0.013216677341768986,0.005230559925197708,0.010317059898185797
0.3027115,0.03366106838816265,0.017100013814704995,0.009798026948110381,0.011247616767995565,0.0570947662215625,0.013261867229567867,0.005401609904251306,0.010235072989664938
0.3032308,0.03361441892484372,0.017086545646435358,0.009976672033149787,0.011095085204170518,0.05698835261193006,0.013307081807629897,0.005576706159102448,0.010153294368991927
0.30375,0.03356917052583493,0.017072276185131335,0.010159041947154118,0.010944129689255077,0.05688169533611499,0.013352318728776506,0.005755867938246731,0.010071731801431515
0.3042692,0.03352534529474111,0.017057212081271866,0.010345146391357623,0.010794753988668073,0.05677479951292461,0.013397575680850838,0.0059391136646270125,0.009990393066985306
0.3047885,0.033482964962473806,0.017041360149650082,0.010534994157750104,0.010646961531414516,0.056667670112399364,0.013442850384809505,0.006126460921718302,0.009909285957967221
0.3053077,0.03344205087990861,0.017024727366585075,0.01072859311787575,0.010500755410990327,0.05656031195531792,0.013488140592811075,0.006317926439725674,0.009828418276570713
0.3058269,0.03340262401062879,0.017007320867070998,0.010925950211809185,0.010356138386411936,0.05645272971275541,0.013533444086302469,0.006513526081901194,0.009747797832429007
0.3063462,0.033364704923758495,0.016989147941865762,0.011127071437314038,0.01021311288336947,0.056344927905696854,0.013578758674104458,0.0067132748309858825,0.0096674324401697
0.3068654,0.0333283137868891,0.01697021603452183,0.011331961839189443,0.010071680995502168,0.056236910904707595,0.013624082190497456,0.006917186775782761,0.009587329916965048
0.3073846,0.033293470359101504,0.01695053273836149,0.011540625498809742,0.009931844485794612,0.05612868292966267,0.01366941249330871,0.007125275097866943,0.009507498080079299
0.3079038,0.0332601939840874,0.016930105793398993,0.011753065523862677,0.009793604788092306,0.056020248049536446,0.013714747462002002,0.007337552058438797,0.00942794474441434
0.3084231,0.03322850358337205,0.016908943083211832,0.011969284038291275,0.009656963008735092,0.055911610182253664,0.013760084995770874,0.007554028985326128,0.009348677720054944
0.3089423,0.03319841764964089,0.016887052631763537,0.0121892821724446,0.009521919928306777,0.05580277309460262,0.013805423011636375,0.007774716260141347,0.009269704809814774
0.3094615,0.0331699542401721,0.016864442600180177,0.012413060053442497,0.009388476003499324,0.05569374040221106,0.01385075944255037,0.007999623305599555,0.009191033806784321
0.3099808,0.033143130970377015,0.01684112128348273,0.01264061679575932,0.009256631369089812,0.055584515569585005,0.013896092235505437,0.008228758573003463,0.009112672491881902
0.3105,0.03311796500745031,0.01681709710727753,0.012871950492031664,0.009126385840028388,0.055475101910210746,0.013941419349652498,0.008462129529901032,0.00903462863140883
0.3110192,0.03309447306413163,0.016792378624406863,0.013107058204095043,0.008997738913635289,0.05536550258672062,0.013986738754427403,0.008699742647921775,0.008956909974609857
0.3115385,0.03307267139258023,0.016766974511561904,0.013345935954254474,0.008870689771904989,0.05525572061112278,0.014032048427687821,0.008941603390797633,0.00887952425123999
0.3120577,0.03305257577836449,0.01674089356586006,0.013588578716793935,0.008745237283915451,0.05514575884509592,0.014077346353861899,0.009187716202574381,0.008802479169138705
0.3125769,0.03303420153456762,0.01671414470138879,0.013834980409729683,0.00862138000834039,0.0550356200003494,0.014122630522110201,0.009438084496019532,0.008725782411812598
0.3130962,0.03301756349601113,0.016686736945717897,0.014085133886812469,0.008499116196062414,0.05492530663904929,0.01416789892450255,0.009692710641232706,0.008649441636027459
0.3136154,0.033002676013597645,0.016658679436382183,0.014339030929783768,0.008378443792884858,0.05481482117431091,0.014213149554211376,0.009951595954464433,0.008573464469410699
0.3141346,0.032989552948774516,0.016629981417336417,0.01459666224089113,0.008259360442340056,0.05470416587075843,0.014258380403723172,0.010214740687149268,0.00849785850806506
0.3146538,0.03297820766811964,0.016600652235384424,0.014858017435667868,0.00814186348859176,0.05459334284515233,0.014303589463069656,0.010482144015159149,0.0084226313141945
0.3151731,0.03296865303805097,0.016570701336584358,0.015123085035982373,0.008025949979429417,0.05448235406708577,0.014348774718080187,0.010753804028282896,0.0083477904137431
0.3156923,0.032960901419660876,0.016540138262632235,0.015391852463362379,0.007911616669351881,0.05437120135975055,0.014393934148656994,0.011029717719937776,0.008273343294047789
0.3162115,0.032954964663676437,0.01650897264722602,0.0156643060325996,0.007798860022738159,0.05425988640077376,0.014439065727074618,0.01130988097711914,0.008199297401505625
0.3167308,0.0329508541055467,0.01647721421241263,0.015940430945640165,0.007687676217102755,0.05414841072312551,0.014484167416305151,0.011594288570594245,0.008125660139256327
0.31725,0.032948580560657546,0.0164448727649204,0.016220211285766385,0.007578061146433081,0.05403677571609816,0.014529237168370736,0.011882934145346455,0.008052438864880723
0.3177692,0.032948154319675176,0.016411958192479578,0.016503630012075353,0.0074700104246064,0.05392498262635706,0.014574272922724951,0.012175810211276075,0.007979640888115772
0.3182885,0.0329495851440186,0.016378480460133467,0.016790668954259992,0.007363519388883708,0.053813032559062585,0.01461927260466457,0.012472908134164037,0.007907273468586754
0.3188077,0.032952882261461626,0.016344449606542934,0.017081308807698085,0.0072585831034778685,0.05370092647906297,0.01466423412377324,0.012774218126904623,0.007835343813557261
0.3193269,0.03295805436186457,0.016309875740286937,0.017375529128854823,0.007155196363193314,0.053588665212157376,0.014709155372398497,0.013079729241013364,0.007763859075697565
0.3198462,0.03296510959303555,0.016274769036161693,0.01767330833100443,0.007053353697134511,0.05347624944642822,0.014754034224163487,0.013389429358416128,0.007692826350871936
0.3203654,0.03297405555672124,0.0162391397314812,0.017974623680276344,0.006953049372480375,0.05336367973364189,0.014798868532514664,0.01370330518352536,0.007622252675945459
0.3208846,0.032984899304726284,0.016202998122381605,0.018279451292031346,0.006854277398321805,0.05325095649071698,0.014843656129306626,0.01402134223560928,0.007552145026610869
0.3214038,0.03299764733516081,0.016166354560131865,0.018587766127573034,0.006757031529559414,0.053138080001259115,0.014888394823425206,0.014343524841459785,0.007482510315235934
0.3219231,0.03301230558881488,0.016129219447453155,0.01889954199119998,0.0066613052708585484,0.05302505041716175,0.014933082399449838,0.014669836128364755,0.007413355388731853
0.3224423,0.03302887944565882,0.016091603234849226,0.019214751527603765,0.006567091880658664,0.05291186776027281,0.014977716616356182,0.015000258017390302,0.007344687026443137
0.3229615,0.033047373721467994,0.016053516416949968,0.019533366219618105,0.006474384375234062,0.05279853192412718,0.015022295206259846,0.01533477121697858,0.007276511938059397
0.3234808,0.0330677926645708,0.01601496952887022,0.019855356386324095,0.006383175532803023,0.052685042675745114,0.015066815873201977,0.015673355216866604,0.0072088367615494265
0.324,0.03309013995271842,0.015975973142585812,0.02018069118151664,0.0062934578976823205,0.05257139965749671,0.015111276291977397,0.01601598828233151,0.007141668061117947
0.3245192,0.03311441869007493,0.015936537863328704,0.020509338592536914,0.006205223784484125,0.05245760238903211,0.015155674107005905,0.016362647448767528,0.007075012325185362
0.3250385,0.03314063140432614,0.01589667432600297,0.020841265439475707,0.006118465282352263,0.052343650269277314,0.015200006931247333,0.016713308516599853,0.007008875964390825
0.3255577,0.033168780043905596,0.015856393191623335,0.021176437374752208,0.006033174259234823,0.0522295425784951,0.015244272345160887,0.017067946046540466,0.006943265309618966
0.3260769,0.03319886597533599,0.015815705143777913,0.021514818883072932,0.005949342366190103,0.052115278480410886,0.01528846789570936,0.017426533355190822,0.0068781866100505315
0.3265962,0.0332308899806845,0.01577462088511688,0.02185637328177525,0.0058669610417229085,0.052000857024403255,0.015332591095408804,0.01778904251099621,0.0068136460312372546
0.3271154,0.0332648522551307,0.0157331511338687,0.02220106272156006,0.005786021516148273,0.05188627714775881,0.015376639421424244,0.018155444330556422,0.006749649653201185
0.3276346,0.033300752404645896,0.015691306620385603,0.022548848187618105,0.005706514815979685,0.051771537677990934,0.015420610314711944,0.01852570837529739,0.00668620346855874
0.3281538,0.033338589443782936,0.015649098083719823,0.022899689501154258,0.005628431768339017,0.05165663733522224,0.015464501179208764,0.018899802948508283,0.006623313380669733
0.3286731,0.03337836179357581,0.015606536268232172,0.023253545321314104,0.00555176300538545,0.05154157473463023,0.015508309381069013,0.019277695092748768,0.006560985201811649
0.3291923,0.03342006727954846,0.015563631920234211,0.023610373147517186,0.0054764989687607485,0.05142634838895592,0.0155520322479491,0.019659350587631002,0.0064992246513794925
0.3297115,0.03346370312983234,0.015520395784665403,0.023970129322200984,0.005402629914048386,0.051310956711074995,0.01559566706834023,0.020044733947981255,0.006438037354111568
0.3302308,0.0335092659733921,0.015476838601806436,0.024332769033979736,0.005330145915244057,0.051195398016631165,0.0156392110909492,0.02043380842238602,0.0063774288383416046
0.33075,0.03355675183835895,0.015432971104030076,0.024698246321222084,0.0052590368692351334,0.05107967052673119,0.015682661524127353,0.020826535992127616,0.006317404534277686
0.3312692,0.033606156150470974,0.015388804012590903,0.025066514076051323,0.0051892925002866705,0.050963772370700995,0.015726015535347557,0.02122287737051424,0.006257969772308439
0.3317885,0.033657473731620244,0.015344348034455437,0.025437524048771955,0.005120902364531576,0.05084770158890216,0.015769270250729,0.021622792002609404,0.0061991297813369555
0.3323077,0.03371069879850651,0.015299613859174322,0.025811226852726,0.0050538558544626,0.05073145613560831,0.015812422754609434,0.022026238065365626,0.006140889687142865
0.3328269,0.033765824961398155,0.015254612155798226,0.026187571969582366,0.0049881422034238464,0.050615033881940684,0.01585547008916446,0.02243317246816706,0.006083254510772963
0.3333462,0.03382284522300127,0.015209353569839237,0.026566507755062394,0.004923750490099526,0.050498432618862346,0.015898409254073254,0.022843550853785803,0.006026229166960765
0.3338654,0.03388175197743849,0.015163848720279415,0.02694798144510439,0.004860669642997719,0.05038165006023017,0.01594123720623018,0.023257327599756388,0.005969818462575381
0.3343846,0.03394253700933982,0.015118108196628146,0.02733193916246986,0.004798888444926982,0.05026468384590409,0.015983950859501585,0.02367445582017271,0.005914027095100099
0.3349038,0.03400519149304806,0.015072142556029929,0.027718325923793852,0.004738395537463733,0.05014753154491326,0.01602654708452715,0.02409488736791159,0.0058588596511411324
0.3354231,0.034069705991942305,0.015025962320424056,0.028107085647081725,0.00467917942540839,0.050030190658678655,0.01606902270856501,0.024518572837287016,0.005804320604967018
0.3359423,0.03413607045788333,0.014979577973757624,0.028498161159654294,0.004621228481228359,0.0499126586242916,0.016111374515379997,0.024945461567138994,0.005750414317079203
0.3364615,0.034204274230785106,0.014932999959253183,0.02889149420654327,0.004564530949485959,0.049794932817848,0.01615359924517421,0.02537550164436065,0.005697145032814333
0.3369808,0.03427430603831709,0.014886238676732194,0.02928702545933861,0.004509074951249453,0.04967701055783726,0.016195693594559097,0.025808639907867213,0.005644516880978766
0.3375,0.03434615399574219,0.014839304479995395,0.02968469452548924,0.004454848488485338,0.04955888910858514,0.01623765421656824,0.026244821953010287,0.00559253387251582
0.3380192,0.03441980560589507,0.014792207674261084,0.03008443995805832,0.004401839448430125,0.04944056568374953,0.016279477720710055,0.02668399213644065,0.005541199899206246
0.3385385,0.03449524775930554,0.014744958513662221,0.030486199265934166,0.004350035607939944,0.049322037449868406,0.016321160673059783,0.0271260935814228,0.005490518732402418
0.3390577,0.03457246673447163,0.014697567198803118,0.03088990892449759,0.004299424637816469,0.049203301529959116,0.01636269959639017,0.02757106818360418,0.005440494021796749
0.3395769,0.03465144819828653,0.014650043874376417,0.03129550438674652,0.0042499941071078625,0.04908435500716817,0.016404090970340415,0.02801885661724201,0.005391129294224797
0.3400962,0.03473217720662366,0.014602398626840953,0.031702920094878365,0.0042017314873836736,0.04896519492847092,0.01644533123162286,0.028469398341890367,0.005342427952503492
0.3406154,0.03481463820508384,0.014554641482160995,0.03211208949233059,0.004154624156982869,0.04884581830842017,0.01648641677426699,0.02892263160955023,0.005294393274304907
0.3411346,0.034898815029908443,0.014506782403607307,0.03252294503627973,0.0041086594052343545,0.04872622213294249,0.016527343949900096,0.029378493472284873,0.005247028411065914
0.3416538,0.03498469090906264,0.014458831289620375,0.03293541821059891,0.004063824436649513,0.04860640336318106,0.016568109068064104,0.029836919790303142,0.0052003363869340844
0.3421731,0.035072248463492606,0.014410797971736113,0.03334943953927359,0.004020106375086432,0.04848635893938349,0.016608708396567945,0.030297845240512957,0.005154320097750073
0.3426923,0.0351614697085607,0.01436269221257432,0.03376493860027506,0.003977492267885567,0.04836608578483305,0.016649138161874893,0.030761203325547416,0.005108982310066745
0.3432115,0.0352523360556626,0.01431452370389005,0.034181844039890906,0.00393596908997664,0.04824558080982185,0.016689394549524308,0.03122692638326593,0.005064325660205245
0.3437308,0.03534482831403023,0.014266302064687918,0.03460008358751152,0.0038955237479566212,0.04812484091566389,0.016729473704587258,0.03169494559673263,0.00502035265334822
0.34425,0.03543892669272414,0.014218036839399375,0.03501958407087133,0.0038561430841386303,0.04800386299874578,0.016769371732155536,0.03216519100467435,0.004977065662670377
0.3447692,0.03553461080281913,0.014169737496122698,0.03544027143174328,0.0038178138805715907,0.04788264395461322,0.016809084697863512,0.032637591512420475,0.004934466928506613
0.3452885,0.03563185965978621,0.014121413424925509,0.03586207074208497,0.003780522863030459,0.04776118068209064,0.0168486086284424,0.03311207490332679,0.004892558557557951
0.3458077,0.03573065168607411,0.014073073936209398,0.036284906220634516,0.003744256704976813,0.04763947008743207,0.01688793951230641,0.03358856785068526,0.0048513425221355586
0.3463269,0.035830964713893375,0.014024728259136195,0.03670870124995409,0.003709002031489577,0.04751750908850111,0.016927073300170313,0.03406699593012179,0.00481082065944313
0.3468462,0.03593277598820553,0.013976385540115283,0.037133378393918906,0.003674745423165637,0.04739529461897834,0.016966005905697825,0.03454728363248362,0.0047709946708979194
0.3473654,0.03603606216992005,0.013928054841351324,0.037558859415649314,0.0036414734199901066,0.047272823632594274,0.017004733206180244,0.03502935437721808,0.004731866121490694
0.3478846,0.03614079933930128,0.0138797451394517,0.03798506529588349,0.0036091725251759924,0.0471500931073861,0.017043251043244625,0.03551313052624402,0.004693436439184866
0.3484038,0.03624696299958759,0.013831465324092941,0.03841191625178806,0.0035778292089730206,0.04702710004997629,0.01708155522359092,0.03599853339831733,0.00465570691435506
0.3489231,0.03635452808082453,0.013783224196745351,0.03883933175620383,0.0035474299124453805,0.04690384149987118,0.017119641519757464,0.03648548328389169,0.004618678699265339
0.3494423,0.03646346894391404,0.013735030469455074,0.03926723055732375,0.0035179610512181838,0.046780314533777366,0.017157505670914376,0.036973899460475426,0.004582352807587294
0.3499615,0.036573759384881284,0.01368689276368281,0.039695530698800094,0.0034894090191924334,0.04665651626993364,0.017195143383684365,0.037463700208485405,0.004546730113958191
0.3504808,0.03668537263936102,0.01363881960919839,0.040124149540277744,0.003461760192228311,0.046532443872456114,0.01723255033299072,0.03795480282759842,0.0045118113535793335
0.351,0.03679828138730527,0.013590819443030405,0.04055300377835016,0.003435000931796591,0.04640809455569381,0.017269722162932353,0.03844712365360065,0.004477597121854794
0.3515192,0.03691245775791384,0.013542900608470076,0.04098200946793484,0.00340911758859798,0.046283465588592254,0.017306654487685865,0.038940578075735324,0.0044440878740706295
0.3520385,0.037027873334789504,0.013495071354128559,0.041411082044064816,0.003384096506150166,0.04615855429906221,0.01734334289243474,0.039435080554548516,0.00441128392511468
0.3525577,0.037144499161319434,0.01344733983304688,0.0418401363440923,0.003359924024342355,0.04603335807835069,0.017379782934325638,0.03993054464023273,0.004379185449237033
0.3530769,0.03726230574628422,0.013399714101857632,0.042269086630300885,0.0033365864829570505,0.04590787438541127,0.01741597014345183,0.04042688299146761,0.004347792479851154
0.3535962,0.037381263069695844,0.013352202119997464,0.04269784661292214,0.003314070225158827,0.04578210075127068,0.017451900023863688,0.040924007394756656,0.00431710490937572
