Time,Rectus Femoris right,Rectus Femoris left,Hamstrings right,Hamstrings left,TibilaisÂ Anterior right,TibilaisÂ Anterior left,Gastrocnemius right,Gastrocnemius left
0.0,0.013077527745701246,0.00010600990193016641,0.044057916829680584,-0.028200265698007924,0.10769112308271536,0.0028227744508597507,-0.07239717397791626,-0.03724782774570125
0.0005192,0.009561777890410881,-0.00795469004442802,0.006227277049051559,-0.028842547850378465,0.06164568231252428,0.009081562079970438,-0.04142787564151957,-0.03595545607700857
0.0010385,0.0027578405165012603,-0.016487031563428425,-0.057417102652347465,-0.026734364703293143,0.028093089965996198,0.0029608168151751247,-0.024647255259734772,-0.03484690786712208
0.0015577,0.00035142487461117464,-0.024000076951051098,-0.13215925110063664,-0.024116529570684504,0.013314694425568287,-0.012274489590411893,-0.040970356911596326,-0.0348542834727867
0.0020769,0.001226099357505102,-0.02481576947715227,-0.18129028666268038,-0.02359340270340312,0.021240012922160205,-0.020590798902834124,-0.05999785174304122,-0.035664619661595745
0.0025962,0.003344109060035064,-0.027339323228892785,-0.17121465467294936,-0.0256809,0.03337071301124747,-0.01778481416885772,-0.03347577821458108,-0.03215958385553608
0.0031154,0.007710739979655695,-0.024768566244535675,-0.12040171279193858,-0.02561603449374541,0.03220238973143231,-0.015253674438372906,0.046321120572163574,-0.030445571027193075
0.0036346,0.01167419386817917,-0.0206455,-0.07470707370620838,-0.02420085222867299,0.018633054022564773,-0.02031688685310419,0.057166648309362654,-0.03181388905192294
0.0041538,0.014734340430009768,-0.018373267565272376,-0.044288817479452576,-0.024649901739998224,0.01071355331470631,-0.026508766609453466,0.019047435584143794,-0.03510439826000178
0.0046731,0.01858388231201464,-0.019657091993338344,-0.0391089,-0.023337131093529546,-0.0005800553072203903,-0.020942965740470647,-0.0010005569818824353,-0.03479833556967659
0.0051923,0.020995281042988683,-0.022098607506712758,-0.05758638104298869,-0.022273545930941236,-0.0024425013925565395,-0.013539475828045258,0.018795782452407327,-0.03321670560395037
0.0057115,0.020726912312491685,-0.019862813097944514,-0.0706645,-0.021417643226604208,-0.006554099185110213,-0.01866634642728944,0.0352225250029913,-0.03187783251445514
0.0062308,0.015538049853375004,-0.014987546071932221,-0.0628782954459316,-0.021689997177308455,-0.03364949137123883,-0.02794450149168904,0.00379530173137685,-0.03319190580606963
0.00675,0.012711646266884067,-0.011507408156579852,-0.05918296688011672,-0.020864611193748425,-0.07920616018322535,-0.029191299753218065,-0.04471472681656014,-0.030091635269919752
0.0072692,0.012561338200176771,-0.0090639,-0.045098756359685556,-0.019583676400353543,-0.12980014364031445,-0.02248859078877237,-0.06369273878567626,-0.027667738200176772
0.0077885,0.011993701418263008,-0.0090639,-0.016149449572575712,-0.018448402836526018,-0.1587494504274243,-0.01894090317443437,-0.030486071588967146,-0.02710010141826301
0.0083077,0.008745648882256683,-0.010786187380241787,0.02132389135203604,-0.013569461502014895,-0.18750893881734035,-0.019023336581853706,0.06794031802193563,-0.0256809
0.0088269,0.005260470827378352,-0.01157343273894595,0.03321007058168217,-0.009628654457905377,-0.2002384463108276,-0.020968949108418924,0.11632935550397897,-0.0256809
0.0093462,0.0010629019234929173,-0.00996303592037424,0.04588112063584145,-0.0067098660031186756,-0.19656360487588334,-0.012712508722869182,0.10333566732658271,-0.0256809
0.0098654,-0.004293213774895149,-0.007984446082125382,0.040884169302224216,-0.004387436636921698,-0.1873182465831485,0.0014652221825909029,0.08677461849687337,-0.0256809
0.0103846,-0.012557081163204047,-0.004680579277245451,-0.0030552354291680946,-0.0009791309854460775,-0.19563858468503492,0.02015910546050429,0.08556110352183088,-0.026953734507276964
0.0109038,-0.014514462104366938,-0.002182,-0.07712877158433783,0.003324058709716155,-0.24361475369051033,0.017969084493370983,0.11104355607770881,-0.030108547943072578
0.0114231,-0.010844613085437854,-0.002342514765824858,-0.10484409978361113,0.004297214862994339,-0.2876517809393502,0.0011667126747100232,0.12420370324155462,-0.03182451486299434
0.0119423,-0.006922100198002394,-0.0039115199207990425,-0.09111534362618087,0.0036434237664945703,-0.3085716938779639,-0.012038963867207788,0.1192351869174697,-0.03117072376649457
0.0124615,-0.0005842450955218864,-0.0037428258092117744,-0.05491318758566116,0.0009395574606532572,-0.3690477093497179,-0.031243638223550613,0.10296592360210624,-0.028574722547760945
0.0129808,0.003442546022969959,-0.0018842642439353592,-0.039425266814631425,-0.0027774733969591855,-0.44509343816737945,-0.04487299742930394,0.09088536570074993,-0.02656132698851502
0.0135,0.008323437948199305,-0.00040675626361833574,-0.04294781035855945,-0.006052491965466203,-0.46488152890700113,-0.047390764375826344,0.07128414125700759,-0.02572037936055532
0.0140192,0.014157819387056837,-0.005631819046646733,-0.038568292836407905,-0.013052660619638688,-0.3530706255226973,-0.03422611390548023,0.04515665455236191,-0.028449921627503722
0.0145385,0.01009691285125944,-0.000944149052566714,-0.043808165316413426,-0.009509598122963776,-0.19651477924561944,-0.018483882298891186,0.0504915380783435,-0.02672472075438056
0.0150577,0.014799905679657402,-0.0008556173437414796,-0.06454401639460779,-0.015536121953163342,-0.09308242195316334,-0.026048581586022978,0.044296470918493445,-0.028522464765544056
0.0155769,0.017652200289452878,-0.0013507780520789422,-0.09576497644889227,-0.02541886463995575,-0.0007157921273756549,-0.0369837958076176,0.040282079294158224,-0.030140407583171464
0.0160962,0.01805072072749354,-0.00068525177576928,-0.09643463238391935,-0.0372094092557993,0.16905980330363424,-0.03716399373166143,0.035386718295280645,-0.031570677381615
0.0166154,0.01855347746326421,0.0031113667308129674,-0.03426110064371468,-0.04711009450107551,0.31493810500112746,-0.033665642322369134,0.045260954123373255,-0.028852080214366662
0.0171346,0.01925926613519724,0.004399779970297718,0.019521837334475822,-0.05800215440907906,0.31703273461309434,-0.03389966454078896,0.03855396266552418,-0.028670537053619313
0.0176538,0.019271747340168427,0.0034116910426089846,0.04833951474231842,-0.06969791117612618,0.280909437237642,-0.03303534734016843,0.019640528423322253,-0.028887915958989437
0.0181731,0.018994556935044586,-0.0006075285462525636,0.07689004389920595,-0.07607329049397459,0.28479010290937584,-0.03275815693504458,-0.017918647614656016,-0.030551058389732502
0.0186923,0.018354777989680018,-0.0034559880412799292,0.1222776473454752,-0.07548265597936003,0.2851759,-0.03548559904643992,-0.06695675520603332,-0.03102251100515999
0.0192115,0.015498545097542957,-0.005102456470737113,0.1611359293063517,-0.06536995160647473,0.2260621259019788,-0.03770738005229708,-0.08653523772143827,-0.02776278577708882
0.0197308,0.012971360984508535,-0.005798767595336995,0.17374600613089844,-0.05641529738353828,0.18502779307879078,-0.03648891859392868,-0.07905686587685026,-0.023430466806509377
0.02025,0.009244423526229463,-0.007026292006946088,0.1489755529297691,-0.050376020375279947,0.15055001841643764,-0.036846032868291995,-0.039197974810959095,-0.020764486268765345
0.0207692,0.004003429399493158,-0.00940268518779901,0.08615080475457972,-0.04560400525912856,0.12165937675895062,-0.029106716857696755,0.0034299590019386487,-0.025117146279146407
0.0212885,-0.0030660589022695425,-0.017061138750338226,0.01709279497585159,-0.03148177863447144,0.14921943539413599,-0.024704971762462467,0.01764293150378257,-0.027563747799979985
0.0218077,-0.0011236912394317457,-0.024350938258143925,-0.010703714338777311,-0.022607921831572047,0.20130307503694297,-0.03642345903310014,0.021652478802314714,-0.03127152973417046
0.0223269,-0.0031395765811125793,-0.026834742934626937,-0.03145378352515793,-0.019011898009822815,0.18080118134651096,-0.05245421326849566,0.006101345787054581,-0.03215641951573951
0.0228462,-0.0015037669813120005,-0.03130922028508801,-0.10817650416438504,-0.027003200943936004,0.033207259985118955,-0.06175962563385392,-0.039149898112128,-0.031425381602784
0.0233654,-0.0019702533471134174,-0.033701539958659744,-0.2309632184244566,-0.041968034685958784,-0.07800442989709869,-0.07019348466573799,-0.05693801699248589,-0.02952337367171436
0.0238846,-0.002808337319262556,-0.028549403746584816,-0.29423477848768614,-0.04315654871530748,-0.05880244168130441,-0.06289679681515793,-0.006838377823367188,-0.0274792703033404
0.0244038,-0.00269234369983004,-0.021721286159547104,-0.2904583022247915,-0.03431117694801857,0.02783900022566146,-0.013355171201394582,0.10141656110843558,-0.022554293389801795
0.0249231,0.0012698787726738584,-0.019282939534396675,-0.2593694735474891,-0.02364341046298545,0.06441401801618679,0.04211694214068103,0.1559742944660798,-0.01996359549726224
0.0254423,0.005531802078202452,-0.019707557247994834,-0.21894312111662445,-0.00848538671655987,0.02135936127167087,0.05254977001267868,0.10621826309049517,-0.020887540067527945
0.0259615,0.008353518903404245,-0.022323611750780698,-0.19978377861287341,0.002197479416142075,-0.039823859121604896,0.024351476787759348,0.024139400730938485,-0.02269647846821303
0.0264808,0.012173287891897514,-0.01999463744374749,-0.19627940443035624,0.013699758928668381,-0.0836627092421864,0.0077939888530035775,-0.03446350825737838,-0.022976819404374797
0.027,0.013693548524378844,-0.021440809912855796,-0.18445400662787947,0.028481030080565344,-0.09582708807647623,0.011838754818524321,-0.06978624763076657,-0.026643570084951253
0.0275192,0.016526503543899895,-0.022955037906991823,-0.135473767483618,0.038511476904599704,-0.08839268636970844,0.008686126911954209,-0.07721743963359982,-0.030280037270999885
0.0280385,0.022728319047967592,-0.02504121648367735,-0.07746843428187034,0.04590209120919338,-0.07110331402767696,-0.0011590417581613247,-0.05220117091145117,-0.030535384011145663
0.0285577,0.026997839646692428,-0.027256443179768147,-0.03886032293729337,0.05109104317976815,-0.05635831717353943,0.00038819374440690445,-0.008609605445034758,-0.029618792615129386
0.0290769,0.026734239276236447,-0.029628846513871977,-0.015795329783695317,0.05346344651387198,-0.054249514209891575,0.006055562447910173,0.00799713937109141,-0.028696230579833785
0.0295962,0.02410936385907851,-0.0323013066233063,0.007106732754787933,0.0561359066233063,-0.0712852979340864,0.002375873986012984,-0.025029397188392796,-0.028695516750240777
0.0301154,0.026037538492274394,-0.032972076784765235,0.016057684133217096,0.05810759980021646,-0.09680986574715326,-0.011651019906427019,-0.04112652685531179,-0.029022197690109983
0.0306346,0.03147018510642647,-0.03155141524821487,0.028162856910916134,0.060061561702142156,-0.11576437286841368,-0.019221469858211597,-0.0011424047043496776,-0.028431946099285947
0.0311538,0.03471083584776032,-0.02225526506575868,0.06083561887627099,0.06114666795282487,-0.1322642642101291,-0.017807603800585187,0.041020849223063066,-0.025310529217998357
0.0316731,0.03458720213567735,-0.01468644341708376,0.09271807394862226,0.06470554341708376,-0.14260097861375268,-0.015858210356092185,0.07015544234924508,-0.023335749179526674
0.0321923,0.032598692541252104,-0.009113360385373522,0.11883428432343486,0.06312910388270467,-0.14257257480678243,-0.010563947832443712,0.08115848480572076,-0.019881100759069337
0.0327115,0.0313878,-0.0095674,0.12452667252933663,0.05935127879516867,-0.14046266224182855,-0.004010189695777212,0.06499667317586656,-0.016588588081436404
0.0332308,0.0313878,-0.009280181241809522,0.12065905365470635,0.053628635746048696,-0.12291688989115655,-0.008546231786249291,0.02679816352420309,-0.015969634896515872
0.03375,0.0313878,-0.005206184689312264,0.12566289380620108,0.04738821384914279,-0.09827466340530316,-0.024688918454255186,0.011110870553236625,-0.01642403513315189
0.0342692,0.0313878,-0.0010585343693657713,0.13751323504012797,0.03761169777518916,-0.08257293258856883,-0.0374281301512337,0.015702867853074405,-0.018201599555986096
0.0347885,0.0313878,0.002092148074096205,0.14424788091934784,0.016732177164670764,-0.0790829704002482,-0.0403027555627037,0.012726476676240162,-0.02147064252228917
0.0353077,0.03065722021411319,0.0037905618556584517,0.13979902288729473,-0.014573857287888787,-0.08081081972749231,-0.042906508819127914,0.004905259863746151,-0.023106711005688566
0.0358269,0.02436724988871477,-0.0004407549992948232,0.11297792639641072,-0.034657024631781205,-0.08261150080937618,-0.04761158882358655,0.007886846470283308,-0.018383375368218796
0.0363462,0.026109636579645143,-0.010558197623903427,0.08966221549286406,-0.05015973861124006,-0.08878677511270215,-0.050414061942781176,-0.00359887175989965,-0.01598214631858057
0.0368654,0.026609995045466565,-0.018999038068332058,0.06660275683588322,-0.06729358280038426,-0.09001799256819985,-0.03657790481328215,-0.026803632871009904,-0.015313302477266717
0.0373846,0.02811749891585529,-0.01806027437124993,0.03802086483976648,-0.0774032711188158,-0.08971200429141506,-0.022881943276612512,-0.0434606144405921,-0.016386675410230853
0.0379038,0.030734145962976443,-0.011667808732016628,-0.005084114231586872,-0.07792515436600832,-0.08924583451694415,-0.032525735586036025,-0.044426332024604887,-0.01949863833582115
0.0384231,0.033210110604990274,-0.008368552526679634,-0.034596074747332034,-0.06055582390396329,-0.09401014679896803,-0.05314571633270188,-0.03999121936471744,-0.026237087205506264
0.0389423,0.03648633240672324,-0.00570293403170131,-0.03709386123201833,-0.031045845599365973,-0.08756923106984688,-0.06512003583870354,-0.042904020303780106,-0.034385455490333616
0.0394615,0.037952167961099265,-0.0022203800972518373,-0.035348054692600495,-0.015141990306450534,-0.0783261621508476,-0.06793482499265248,-0.0467665886584551,-0.039045581229598045
0.0399808,0.03999466851532539,0.004692298896302468,-0.041582975514850906,-0.0016289905370769342,-0.06506573923804584,-0.0631285338267343,-0.05258336851532539,-0.036856691021593384
0.0405,0.041400969567204696,0.00998586791969687,-0.04556419958812304,0.005473148558430648,-0.057638151441569356,-0.04413624273690605,-0.05479921524249664,-0.028891733315934004
0.0410192,0.04099854068945931,0.011729513295472156,-0.04610071815150321,0.007350963530261236,-0.05576033646973876,-0.018383511515499017,-0.06003023128024302,-0.025538532250018214
0.0415385,0.04080768486053159,0.009501474203272348,-0.05080658653680319,0.007222571215132896,-0.05863011215132896,0.01193251364539869,-0.0763095441065374,-0.025731612151328964
0.0420577,0.039821535036821024,0.006900271729366185,-0.06754581110885984,0.008283286610280204,-0.061068181905905676,0.015647435902879425,-0.09183500868534526,-0.028327539741195548
0.0425769,0.043325808165954466,0.0022142795851138354,-0.0896469497827864,0.010542220414886165,-0.06253420408297723,0.0069463591702276705,-0.11433924328126184,-0.029785199622941304
0.0430962,0.04466096041796971,6.431513529992278e-05,-0.1010595667009555,0.014474346680382201,-0.060974188533745984,0.008289485563556284,-0.14325701092851928,-0.029134625203841528
0.0436154,0.04349873381872402,-0.00872871772057275,-0.09234221801472375,0.017572728529407,-0.05664562321451532,0.010535896397055251,-0.16332808730016793,-0.02837936786764825
0.0441346,0.042901774783091956,-0.02317654534298452,-0.06301688409712292,0.018481037825362066,-0.049282121024280735,0.008860824349275872,-0.14394581509638907,-0.02893772521690804
0.0446538,0.04248660141438025,-0.038402812766838074,-0.019983185513272106,0.01591437640721533,-0.037454553369601566,-0.0010104577977992865,-0.08252569301989165,-0.03229001673312894
0.0451731,0.042742860203603024,-0.04310790970719842,-0.0006741365822037229,0.013832503557197992,-0.030207396428595178,-0.012429188982193534,-0.021975379632206696,-0.030048639175006154
0.0456923,0.04356109730306344,-0.04149800190093589,0.006118425966979283,0.013485925620575353,-0.0195126586102546,-0.015231218016509866,0.01906635197110601,-0.024176849030958333
0.0462115,0.03921593948007215,-0.0343146885018086,0.007398502098724489,0.008506333588779058,-0.00301456078261084,-3.379386773570952e-05,0.01777198234783252,-0.02212257046647253
0.0467308,0.04146850001228329,-0.03253070017196614,0.0092317,0.004044800233382622,-0.0022014000245665914,0.012747851008687156,-0.001130450750737943,-0.02654735126663637
0.04725,0.04073206474554452,-0.028255829491089037,0.006131085591583897,-0.001676605763366441,-0.01793679088233254,0.009051864543905485,-0.02167841098477536,-0.039437214811694175
0.0477692,0.040185315654311056,-0.02716233130862212,0.002030467407332947,-0.0033168530370668208,-0.026001299260935577,0.007274970714487239,-0.048468953586852895,-0.0459981224723147
0.0482885,0.040864611843094166,-0.029419400626565416,-0.005676412674281192,-0.0029258748433586466,-0.021783149482095684,0.010643161734433072,-0.07941586800008721,-0.0400920365904923
0.0488077,0.040116,-0.030743414616175715,-0.013988118563461363,-0.002904847563970714,-0.015554672270728995,0.004414855978240144,-0.08162302459213494,-0.024821680858231134
0.0493269,0.038007161344996,-0.026815295151700287,-0.025718825076869005,-0.008543151667345907,-0.014282369127016472,-0.028446308565013248,-0.04393391594606266,-0.01545434579990439
0.0498462,0.03641845960478248,-0.01873160622568519,-0.03846766855141424,-0.021429652570599936,-0.006701339843241589,-0.062452446344914744,0.008510320589504787,-0.016972838482768305
0.0503654,0.03720472593673344,-0.0040258629883862555,-0.05338631578713564,-0.03556383616640939,0.011368678735482819,-0.05934374728132877,0.025541809503898387,-0.024107464598716825
0.0508846,0.03411400136149468,0.010127888047192769,-0.06955663838756644,-0.035050048978878985,0.003768408168968113,-0.03848677114289636,0.013615358889444191,-0.02656619591551594
0.0514038,0.034577942820642714,0.018288345293048194,-0.08202388969786147,-0.026838706053263203,-0.03436107408898515,-0.030531406053263203,0.011082670174118618,-0.02779666589732528
0.0519231,0.03569300063573115,0.012725197710788026,-0.09835840972336996,-0.017861539132024047,-0.05325700838269857,-0.04604947020427125,0.03738407217056151,-0.02317444948606902
0.0524423,0.034455782160798976,-0.002487074301317957,-0.11216747624399268,-0.011856131734772254,-0.029184914836406808,-0.052216120902998805,0.04759930989093788,-0.01666859626443625
0.0529615,0.03571989568631801,-0.016275414224113258,-0.1129625,-0.008911842605860917,0.004973469771020129,-0.0467938650812505,0.022999430605067508,-0.0195905530804571
0.0534808,0.03529763949123088,-0.0216526,-0.09996887898246176,-0.00887595480981979,0.012351357540949248,-0.03496193949123088,0.027162836809507988,-0.026579759473536736
0.054,0.03125964058846412,-0.018910363615811474,-0.0960919051129941,-0.0038027403861154094,0.00258924855457017,-0.03358046932203535,0.04727291645004955,-0.034919871007510046
0.0545192,0.03172332203642886,-0.018148770918767328,-0.1129625,0.01007180782364964,-0.00014710301416888112,-0.03705229121710863,0.028744430819320228,-0.03457762986007849
0.0550385,0.028953463088628117,-0.012636162985519984,-0.14203407046593558,0.025846263787257632,0.002956757497884809,-0.03691825201024963,-0.016823814995769616,-0.03642893309708888
0.0555577,0.026911267834076186,-0.0016207343126538798,-0.17822007612528193,0.03945581937359037,0.00950480650679104,-0.0518623866337511,-0.03156354117211174,-0.04073685997178665
0.0560769,0.027041231072234884,0.0054580613113340525,-0.19181954096525158,0.05583309598350054,0.012099243863840072,-0.07738391764124036,-0.00697358441252382,-0.03963069379794379
0.0565962,0.025719383326078333,0.011374173507954884,-0.18590973897188628,0.06002481880636391,0.01748946055543745,-0.0937540704878949,0.022471468069049903,-0.03428937805924211
0.0571154,0.02712163591302901,0.016048194095490558,-0.1528801791293941,0.06376403527639245,0.024812046398553365,-0.07272102425467433,0.015616330695377535,-0.029926958844208814
0.0576346,0.028903797578558144,0.019705887893810146,-0.11947795044863616,0.06612981956878827,0.027667936650043738,-0.03400241864147612,-0.03173439379618791,-0.029086665837489062
0.0581538,0.02922053328526655,0.0193027,-0.09950903929702877,0.05814078621766643,0.026959630499959766,0.0007573724813840542,-0.08056484633528865,-0.028323997996079257
0.0586731,0.028172660783811396,0.018676198218750745,-0.0985325493019091,0.04899571567622788,0.02555569542349705,0.008748732116810482,-0.08069688048600498,-0.027307421567622787
0.0591923,0.025808767390074976,0.019279825196337308,-0.09699402519633732,0.02468925615575296,0.01426379669898125,0.03660227967537991,-0.055102921030158424,-0.028019362598168656
0.0597115,0.024652916502748312,0.018646962622938766,-0.09619670585969185,0.01571702714580478,-0.005274826641187658,0.05116789562843539,-0.02321279752836264,-0.027658553879809547
0.0602308,0.02321228016887689,0.01797623041016513,-0.08428484207855111,0.023192285199949515,-0.02984109264732703,0.050085389141678184,-0.024666385029261873,-0.024490373360875894
0.06075,0.02212594227457712,0.02004523994453187,-0.06964435086835938,0.028202759462141652,-0.04903036526562446,0.041962882039485755,-0.07819223007263987,-0.023875486106249785
0.0612692,0.023019605249527154,0.01925043959806046,-0.0546213023841788,0.013596688147625904,-0.05474949136843418,0.03546506157752936,-0.07488951507318238,-0.023157702028718877
0.0617885,0.026298186241148554,0.014669333216031191,-0.04232061538347815,-0.018354522749873165,-0.04348523292673512,0.014830287224572756,0.03696450810396317,-0.020986573465721307
0.0623077,0.025932042144020902,0.014461970240034833,-0.02746708515822572,-0.0437176392416872,-0.02297867979817347,-0.008598061764864499,0.11800902006545876,-0.021779432585882264
0.0628269,0.024294525865125146,0.011732776441875242,-0.016550391264181282,-0.06145731763113061,-0.01615577660136842,-0.01583038468069045,0.09221826062074151,-0.024235625705631966
0.0633462,0.0211323176050358,0.0057558173403950506,-0.011623167962231496,-0.0928206,-0.028224551414065744,0.013692668833991653,0.030724339174603998,-0.029488970869893844
0.0638654,0.020306391088976458,0.007761824617599893,-0.015236010743627902,-0.12200520678548403,-0.04979128075421406,0.05578608682782866,0.019234837895632805,-0.030884469192855153
0.0643846,0.018553065030152686,0.009925452848527803,-0.02415846266761168,-0.1367635707272083,-0.05349960490431666,0.04736881865574361,0.0028149450878454246,-0.032775305697055605
0.0649038,0.014779385717246922,0.010452715058155156,-0.03998009717073156,-0.13345580675359517,-0.03946188352713031,0.005242318207079824,-0.014913541957495991,-0.03192187812004422
0.0654231,0.013089939056942152,0.00973558013472255,-0.0742285882975594,-0.13373624158738648,-0.029960254673027844,-0.02168152416049725,0.0028003098916370567,-0.03078038072633196
0.0659423,0.011378059221660979,0.010209431284075338,-0.13232858510990775,-0.1409703033464897,-0.02396038715924662,-0.026891540778339024,0.04368093271913371,-0.031431853073886996
0.0664615,0.006599719651939937,0.011234410074584299,-0.1971780969308724,-0.14066344439226175,-0.024330440049722867,-0.022045748486186297,0.06739042278174678,-0.02806909975138567
0.0669808,0.0028196304163465805,0.011335527959531943,-0.20453412330901588,-0.12914089855488678,-0.0273594,-0.017533762343978486,0.049947027526120166,-0.022278289673157554
0.0675,0.0022309209312049412,0.011793106735999148,-0.1646503353830463,-0.11831302988221878,-0.027086174819198124,-0.01365675467134483,0.024970343685748752,-0.01864257736574449
0.0680192,0.0045878921267917434,0.008648761089647005,-0.096517305240975,-0.10526996372188026,-0.02827349523669306,-0.004603174472726523,-0.0102057926044598,-0.01631903985685076
0.0685385,0.003955042277611052,0.00892054489076126,-0.05069641983084355,-0.11688048919332444,-0.017942650241057696,0.009874287529265419,-0.029433309976032915,-0.016639656891746308
0.0690577,0.005405808375079859,0.008337571688639652,-0.03274268461933924,-0.14655024021686358,0.0006569236112222484,0.0008571281668419751,-0.015830087779754948,-0.0186779929944191
0.0695769,0.0015617310570800436,0.008748161178649946,-0.0291484936389952,-0.1917427272239835,0.014914965618812634,-0.030520207296514938,-0.013465780540286503,-0.021392200796199058
0.0700962,0.0008829160371359207,0.00893971603713592,-0.020205836398653837,-0.21318210175439142,0.01326629206443055,-0.06083437723448853,-0.028427519648323372,-0.022441032836672835
0.0706154,0.0010183064899947812,0.007978578633879572,-0.020467325807857317,-0.2210084099006821,-0.00022147965570164588,-0.06300660151455124,-0.003996551804200182,-0.02176435419306543
0.0711346,0.0035935269610660164,0.00620841629866748,-0.03854554969493032,-0.2140924065126347,-0.00019640293429126028,-0.027726487928534226,0.008375949772368184,-0.023550946116586896
0.0716538,0.0062688341889057825,0.0027051442394228817,-0.05633105586148481,-0.21741436852190463,0.0036245429560642075,-0.004945782119774695,-0.05519177496734648,-0.02862200644544184
0.0721731,0.006949166252380233,-0.0014765012428593026,-0.038679274054005286,-0.21834074377377938,-0.008760779987305428,-0.029831299418194943,-0.16067228130941394,-0.03495542281903415
0.0726923,0.007563750841382026,-0.0021468315763724342,0.016554128710092576,-0.19842661423310057,-0.04570792108610249,-0.07450842767882984,-0.2450902063512948,-0.04052102652808028
0.0732115,0.007843338002687385,-0.0010214479892504597,0.054533881501894844,-0.17482003220471073,-0.07941038567412223,-0.08697815990301941,-0.25982572412899446,-0.03829839597850092
0.0737308,0.008481710862041287,0.0010526513859556584,0.0682057373106889,-0.15702265608696434,-0.07855428797055866,-0.08585812401019537,-0.1684789220287615,-0.03143830778545104
0.07425,0.01145928795431781,0.0009919222485004122,0.06911578262205346,-0.11641157252984966,-0.02452882363928031,-0.07647090439356852,0.003555485514227671,-0.025116331632863628
0.0747692,0.010981575965361742,0.0007593452683324032,0.05821189967957237,-0.06804563231870905,0.07887423699251414,-0.04515641106850985,0.1224860442212981,-0.0204154725318149
0.0752885,0.009244666477683478,-0.0005759612206767653,0.031364202517689656,-0.01964961487289102,0.16623101570387458,0.013647845384785175,0.09589221314605244,-0.016862047696240973
0.0758077,0.0068796223184587404,0.0032085007841457652,-0.0037776109681333077,0.013529150975241827,0.09778193483512207,0.06106059756264296,0.014762145019109605,-0.015337147525110149
0.0763269,0.0074390838507165545,0.0036997908455020244,-0.02219560215971251,0.039804028269376575,-0.04387042831472509,0.0478950124089985,0.0014136079988764636,-0.015981837134969173
0.0768462,0.008431860965624722,-0.0013568185123489797,-0.017400179580444815,0.06431172877479939,-0.10401151542543721,-0.009033122033720559,0.06857643065168122,-0.022014362676512206
0.0773654,0.005208074268554269,0.0038509514628914626,-0.030208827754229388,0.10319369834310241,-0.06661887052538565,-0.048314159034842284,0.17417860711625444,-0.02495221019953184
0.0778846,0.005181823694426902,0.0071017885159456425,-0.06107755396104139,0.15386368121743987,0.0041475237633963515,-0.07317252753370226,0.18105138675223376,-0.03295058851594564
0.0784038,0.0052033,0.005486694358363652,-0.09578574827526148,0.18780869892610738,0.02792453207367654,-0.05018217274182966,0.13866207524129529,-0.03288323025427278
0.0789231,0.004582056082657091,0.00560722745118371,-0.077888416202123,0.22255930449962427,0.04350098685317541,0.019066323259601652,0.11208961664218332,-0.03202576593139796
0.0794423,0.0050058402650295115,0.0033472695477298328,-0.029723273762136335,0.24092137831423738,0.055083186957426894,0.056779160396114144,0.14726000113731022,-0.03174327119346623
0.0799615,0.007277222368082063,0.0005234074560273545,0.018584255147330205,0.2542283126616104,0.05794236437219109,0.03643680956445018,0.17383254069137047,-0.035279574560273544
0.0804808,0.009033287693731957,0.0011087625645773184,0.027071817037046635,0.2573013833893687,0.039211088082850294,-0.022391117292047052,0.13754061114553073,-0.041133125645773184
0.081,0.010158231459723088,0.002889552955111827,0.028540030102550594,0.25632025836390837,0.03322227017938228,-0.07907662526507987,0.0904521072599361,-0.04734279544694884
0.0815192,0.00917292690739793,0.0025177,0.036264994107490116,0.2528312538147958,0.07836635628251273,-0.09836704444812229,0.08252419736017592,-0.046126872548142975
0.0820385,0.00796279794128838,0.002369904117423242,0.044085811776559056,0.2506326897064419,0.10596022198266859,-0.09679090938626782,0.07866887699217169,-0.036956381910030124
0.0825577,0.008508717492382543,0.0018978825076174568,0.04752751263712332,0.25088301749238257,0.09514304626141709,-0.09139959883760075,0.06897144572973549,-0.03190362507617457
0.0830769,0.008673956886617063,0.0010314766396661715,0.046318280844844406,0.25342536123516524,0.06496880922330485,-0.08258733301911848,0.027500404420233094,-0.027816874429549627
0.0835962,0.01029290824161832,-0.0004839913255906456,0.035484098463255925,0.24507973984547857,0.050077594852158826,-0.04697959915470694,-0.006049175946307039,-0.024466463486669525
0.0841154,0.008223147013763882,0.0003922868996265796,0.004751617537269814,0.22287753058571816,0.05296574569422402,0.05242227052350593,-0.010603056786465006,-0.021285434550057967
0.0846346,0.0030615744743536307,-0.0018781813814115922,-0.02109278008644766,0.19041798808014954,0.05909044759776376,0.16850842017785192,0.015686862219501226,-0.018263718618588408
0.0851538,0.000689671772746854,-0.0024711570568132866,-0.0231681066310692,0.1575079264146399,0.06235181381247308,0.19637818860244718,0.03584794686387444,-0.017670742943186712
0.0856731,0.0004436425818478446,-0.0018222465747939024,-0.01054039345947797,0.09684145493976734,0.05419914395861479,0.12307586819275877,0.02363856574867553,-0.01678584423420338
0.0861923,-0.0003270689424611213,0.0027768037409912714,-0.005589546148538678,0.019999404954832448,0.037972996696778366,0.032608185464131634,-0.013979710681625866,-0.02058466189824822
0.0867115,-0.003553362685243311,0.004244316277934143,-0.0062384120115644235,-0.059166215811264085,0.025384857859060552,0.000421552566207737,-0.048935059045980986,-0.024261976749773925
0.0872308,-0.0045172560243905155,0.000679227707313813,-0.0058747,-0.11993010169647018,0.025038787951218968,0.0036994162682956718,-0.06591854955735618,-0.02594338012195258
0.08775,-0.0009356500003443892,-0.0033364595176410884,-0.001607050000344389,-0.1798235981713012,0.02400694728457027,0.0053675749238329155,-0.07928196192874687,-0.025893393807125315
0.0882692,0.0033372352867873023,-0.0033002014650904766,0.000703053768676129,-0.21724650068890322,0.01379535376867613,0.007694148472601593,-0.08789869706981905,-0.024972466178303173
0.0887885,0.004349949433217121,-0.004059737074912841,-0.011702619106996623,-0.22332271014938962,0.0013896808930033764,0.015542683107432688,-0.08637962585017431,-0.02471928764169572
0.0893077,0.005064861479671413,-0.00747199142687987,-0.05677613070588645,-0.1895837686033341,-0.01971089218555786,0.01828183077378497,-0.08403957824657268,-0.026233437743277556
0.0898269,0.005533732126173655,-0.011535940559750643,-0.06818640286396385,-0.14800662910389523,-0.03159003499013751,0.007340429262209805,-0.07247295379147894,-0.027014919861539092
0.0903462,0.006958620093818091,-0.011629834320565743,-0.03488845755589889,-0.129368806702633,-0.02805971219234356,-0.0070402857873333525,-0.031330276750585855,-0.02802136335940079
0.0908654,0.010727869420640954,-0.010392169420640952,-0.00016961626987391926,-0.1381109388412819,-0.005312415740422488,-0.02754173311749529,0.0031976205233689415,-0.030408010095344336
0.0913846,0.014760183520742183,-0.010882751310883412,-0.005613941541669026,-0.1426338348316256,0.01879060259096288,-0.05200421402998714,-0.011138672799570842,-0.030065588560975742
0.0919038,0.018531384298041714,-0.013523134034939429,-0.042129062440547344,-0.13287793763891204,0.013437221936953757,-0.06120572156494849,-0.0659675866365187,-0.023839281667018857
0.0924231,0.02049903343229683,-0.013654126902183547,-0.06453698952099168,-0.1115205281078904,-0.02181042345041531,-0.042934670435613234,-0.09336955542621575,-0.017280354012438007
0.0929423,0.02100864555385795,-0.01182397955713064,-0.0668957954342542,-0.09743805843276232,-0.04427773836448977,-0.034137373645726325,-0.013895817836586373,-0.016743355434543153
0.0934615,0.02217328617611649,-0.011731903420698636,-0.03960967638521177,-0.09248409985862853,-0.054597248266112314,-0.047280420523909295,0.061284903891748566,-0.018185513776806765
0.0939808,0.026971853180243845,-0.01374807717653603,-0.00867553541859356,-0.10069479493818631,-0.05517582227881937,-0.055672056615189466,0.031003342728422405,-0.019525978908111096
0.0945,0.027487796552228116,-0.014800363435616467,0.01667632572245961,-0.11991345396980103,-0.04515150057438666,-0.0472446013003301,0.014879368107940065,-0.020151822077741098
0.0950192,0.02914615896904324,-0.013268884190814366,0.03422012078121521,-0.14171133143261083,-0.029937738985038518,-0.020473565189780565,0.04029904369133126,-0.021458871400620277
0.0955385,0.02977021999482782,-0.011219791430788077,0.04506373270373853,-0.1410667512289008,-0.021600382861576155,-0.013987425945728318,0.020232756941708736,-0.021816049868023275
0.0960577,0.032172997897859164,-0.01027673263261972,0.054828905608391,-0.10953151510136891,-0.019998754360105907,-0.029669476482021444,-0.008116495795718328,-0.021747425931767858
0.0965769,0.03579395580072539,-0.0098746793384117,0.06204906375844014,-0.06346293590576531,-0.023722522435263547,-0.043050797123228776,-0.009718809395932055,-0.02192906740150297
0.0970962,0.028722206365746097,-0.010817696112579208,0.06474881943710396,-0.008093006005285147,-0.025379530038578766,-0.048381052310247856,-0.0163891212066604,-0.02655640600528515
0.0976154,0.026738030567385378,-0.009656414746319703,0.06474068632842626,0.04082868812542806,-0.009214799759248061,-0.05695472438934747,-0.02355733510712121,-0.025221902953799988
0.0981346,0.02367323406123959,-0.010758095972782404,0.061942934061239595,0.08299393447002337,0.013730357504551958,-0.055748230034021996,-0.0115001809584071,-0.022051867407757362
0.0986538,0.021124884617160986,-0.012170891010331189,0.05939449073192042,0.11930228748779861,0.01928575477324518,-0.0404299017612663,0.022559505745546996,-0.020076736237086015
0.0991731,0.01919678251065883,-0.0099031,0.05672501056423614,0.1574629552679458,-0.0017643021854302872,-0.014581139428677718,0.038741054876685936,-0.021538357062116223
0.0996923,0.019038421665001803,-0.00846554583749549,0.05430842999001082,0.1819414948726032,-0.02309988484263567,-0.01374061397390659,0.026487136822366135,-0.024582294182482856
0.1002115,0.018516828835104474,-0.00976952791223882,0.05117887301062683,0.20097955547651147,-0.03274927450839198,-0.041776112049871694,0.016316154326712493,-0.029537426066507513
0.1007308,0.018544836425163823,-0.009686415249268427,0.04485814559325458,0.222858710303646,-0.00845101200370372,-0.07275172678932006,0.011894302627361906,-0.0347658998454493
0.10125,0.014870999880367634,-0.006715244840974355,0.044385867552773885,0.24202775451658476,0.02820456611951782,-0.0691068905481172,-0.005031822248807192,-0.03374977809455278
0.1017692,0.014673387044350662,-0.0063161340660317184,0.04488618704435066,0.2596428574748987,0.01967862390419207,-0.06300045912594537,-0.04295634086109601,-0.033531222748470486
0.1022885,0.015219217671483062,-0.008059353014449188,0.04419947412441677,0.2807276736915582,-0.009972297599545644,-0.06335061002714544,-0.06723979318608651,-0.029087776299618562
0.1028077,0.014330612574591442,-0.011684787226498052,0.04162790019891051,0.3041950170809488,-0.02674391767768033,-0.058885890962249325,-0.05169572948166568,-0.022725512972412456
0.1033269,0.0096957009787672,-0.013998597866249999,0.03584360115149082,0.32863329406283825,-0.014597408412866972,-0.03477590824014335,-0.028147307837121556,-0.015524600403021789
0.1038462,0.004648131718793921,-0.01563159075638101,0.02990528437505167,0.3405098391689371,0.010046517762576002,-0.011022729581166247,-0.006472540049898163,-0.013446189531268086
0.1043654,-0.0017665690642160628,-0.01759983670668904,0.023410732255286393,0.34091065913947627,0.03113531584442888,-0.0016080505342389224,0.054102670114857844,-0.013094415444620294
0.1048846,-0.005173649524700449,-0.019493516274453383,0.017742039426929347,0.32929543627025215,0.015160914205047402,-0.009219101578338601,0.0660654580020678,-0.0119676936866456
0.1054038,-0.0073369068284598,-0.020921030068395085,0.010982914982461638,0.307908910959959,-0.02639861863209815,-0.007025751402978574,-0.01045435389056785,-0.011078143303475002
0.1059231,-0.008839289227575485,-0.022238842288007914,0.003113163110457411,0.2745834301745811,-0.059954251741847396,-0.001349596951820638,-0.04932809361675717,-0.00937347693106129
0.1064423,-0.0082246,-0.024640171877247694,0.0005942986361865508,0.2391830165725357,-0.07025086377200596,-0.00787881126264594,0.00022304293376026535,-0.009580851649805416
0.1069615,-0.0037643454134309753,-0.025212278552959735,0.006108400206734598,0.20881787932806903,-0.06450330543913109,-0.01756236279090217,0.060613017726072305,-0.015619048346250618
0.1074808,-0.008385002445876337,-0.02690339816559275,-0.0031742048917526725,0.18187270720725604,-0.04322114514160372,-0.01375104724838912,0.09620543011562253,-0.016930125081864675
0.108,-0.011095061725661314,-0.024917069137169345,-0.010350496078220563,0.14639690419316326,-9.82347370923958e-05,-0.008599442196118124,0.10110395641073491,-0.011043042419984246
0.1085192,-0.011490904447102018,-0.023557738882244952,-0.015193053365224229,0.127541181924884,0.019280938027279662,-0.0048128033054288,0.11371615179606837,-0.006963046634775772
0.1090385,-0.012359534068503066,-0.024593796998068254,-0.02434855866151534,0.09343449005638303,-0.02496539540365378,0.006343477829791797,0.06997456532197158,0.008775648389602
0.1095577,-0.013077117128802405,-0.0263824675396868,-0.02908616806349888,0.06700365175322306,-0.061612767015874724,0.009392430067108173,0.004346545467478114,0.020742034329706147
0.1100769,-0.011960243640441914,-0.028323556359558088,-0.03182108545318603,0.025472210979187365,-0.059100587306076216,-0.0021195090637205804,-0.04710117995709206,0.024528429106224138
0.1105962,-0.00807941500372267,-0.028649302715712536,-0.03426461034690186,-0.012338407933805333,-0.0410047073951952,-0.013701136236136533,-0.07322484330605387,0.013157572892886141
0.1111154,-0.004430329711364483,-0.03131903212540082,-0.032874149917210715,-0.07823542954578593,-0.030605958594836162,-0.02204851554335212,-0.09362200274519346,-0.0025833106551027716
0.1116346,9.443955462303845e-05,-0.03288007355554019,-0.033868825246025164,-0.15876178385687637,-0.008864557124334961,-0.033777000860224476,-0.07749128786413806,-0.017388144874396206
0.1121538,0.0023990709877524784,-0.03356209041749132,-0.02987279584385903,-0.2438234580840346,0.021998837184250615,-0.04518657904067643,-0.036893576935517904,-0.03465784460206121
0.1126731,0.007352821177606827,-0.03451527458687181,-0.030854365703014818,-0.3116874648965265,0.04009539412514456,-0.05148682364256942,-0.01376615273400133,-0.05102953784406421
0.1131923,0.008639224710448597,-0.0285014745164447,-0.031637747874683785,-0.35265957067405934,0.02128516056295425,-0.047178279884804115,-0.011789152898422924,-0.056122303457286415
0.1137115,0.007576024644184373,-0.026844908087075667,-0.032307406663813154,-0.3719696357054375,0.006745792953229468,-0.022371430925040153,-0.01804359036200937,-0.05197191500619374
0.1142308,0.0071020759841656156,-0.022834124480416818,-0.029427326240143856,-0.37656361724815784,-0.004944340192705256,0.004257724575164911,-0.022178840752035783,-0.0519782235038779
0.11475,0.008534692916693154,-0.01933538754790922,-0.02863255921468184,-0.3655785138887123,-0.013066589487647329,0.003831978141590501,-0.021558707361208233,-0.05644570027790139
0.1152692,0.013137676908069936,-0.018873406653458026,-0.03118743581216084,-0.3691031395304021,-0.019497510273882867,-0.02420276418783916,-0.017808922015833933,-0.05503494853239162
0.1157885,0.018560073558126913,-0.018560073558126913,-0.034002173558126916,-0.4157520779087338,-0.02893361436336105,-0.06895664235455255,-0.01713713452130232,-0.04116006673066775
0.1163077,0.020937009605304813,-0.020760248026524077,-0.03739548868329406,-0.4640290855813173,-0.030035720922010758,-0.0914624811316668,-0.018216485124942422,-0.03232120308052583
0.1168269,0.02079509941866923,-0.023816397869551743,-0.03847390271177903,-0.4829777048426978,-0.02914599477037571,-0.09957387946748825,-0.014618501162191013,-0.03186911084711612
0.1173462,0.019743454499236843,-0.02252828969949425,-0.04044597287748026,-0.48573448081259657,-0.025791681621756588,-0.08195675464185817,-0.015741318124046055,-0.04019074523104316
0.1178654,0.020536001910848374,-0.01966768275789206,-0.043480205732545116,-0.4799906834393141,-0.023549996178303254,-0.06158674836262134,-0.023389127433299264,-0.051595033165844385
0.1183846,0.023161730571013752,-0.016629058616872933,-0.04648224768621509,-0.43736531355476016,-0.02569010084963635,-0.028740461948312587,-0.03377431600472146,-0.06419595920566575
0.1189038,0.024056176605497193,-0.016514463270478442,-0.048654328178724233,-0.37098875659629515,-0.03401422486314602,0.007795673303266821,-0.0414426531115928,-0.07033596325713061
0.1194231,0.024496898306326783,-0.017330646655316806,-0.04792891409778219,-0.3294752135759552,-0.04817522662967836,0.016258896740440766,-0.04089681277157931,-0.0627293458084802
0.1199423,0.0297129255972834,-0.016965079979578905,-0.0512505542662139,-0.2980447893106018,-0.08423274208871905,0.005884857570024208,-0.018524723440313008,-0.05049794846417645
0.1204615,0.03363552887016404,-0.015124174297751689,-0.05174863556491798,-0.26766739870184864,-0.11348903113758223,-0.013604126351323995,0.0054159686109959155,-0.05439669964107752
0.1209808,0.04042480658719274,-0.0156658076113886,-0.04624608838430871,-0.22600198358557247,-0.11702112998602979,-0.03782422952017224,0.020560142067578627,-0.06471647944398823
0.1215,0.04426656746549607,-0.012939671217503688,-0.04387342041911683,-0.1585858138557278,-0.08932944896301405,-0.04948469305444492,0.024254110578263155,-0.0542071330956193
0.1220192,0.04892880056912569,-0.014035826559193637,-0.039684616653419706,-0.09022363332806671,-0.053798840133966956,-0.03224427098954016,0.018272009927001245,-0.024529474637312233
0.1225385,0.053955033010732976,-0.012784476155672762,-0.0386171508651848,-0.03579162702085756,-0.04798326290177741,-0.016502513823803987,0.027059160828866276,-0.002456090719910708
0.1230577,0.06150146125759257,-0.011976477451756283,-0.037252212442075085,0.0019035169779632781,-0.04485592278230711,-0.006296225466944917,-0.0102522047534223,0.010683122548243718
0.1235769,0.06035468877530948,-0.011005673156496728,-0.03858884874915614,0.04492861055019566,-0.025382606025023374,0.01975939445317977,-0.05513880134898971,0.013148075592659413
0.1240962,0.06045133124022028,-0.009438632080359199,-0.03828827993124033,0.09545263947228567,0.0030369828530298656,0.0657584749677689,-0.04483200066523368,0.017578097829393728
0.1246154,0.06593274829542367,-0.007993070426803717,-0.0384855775568645,0.1448631922155988,0.015352743465337852,0.08691933968820519,-0.008772841022281066,0.014147846618959608
0.1251346,0.0659648,-0.00701837306418748,-0.03872767564527084,0.19861015425073736,0.021749126466439957,0.05879047730874582,0.013430408729981972,0.0011638580470598736
0.1256538,0.06703895859598344,-0.007362917311380262,-0.03839272760267771,0.2704164757249084,0.03602025877843877,0.007116489834786441,0.0247578430678096,-0.011821974187199217
0.1261731,0.06812213732153635,-0.008703537321536349,-0.034650788035390956,0.32961059471288917,0.0452550863660164,-0.011876952141563809,0.02070351707816904,-0.016617796902916235
0.1266923,0.06895033757585803,-0.009531737575858021,-0.032166187272425935,0.35749317213608794,0.03517869105651043,-0.0019385490897037383,0.0074523952451710515,-0.015651604390948676
0.1272115,0.07137770301323987,-0.009832826529498654,-0.03281419772564311,0.37164807955468904,0.013989850011950498,0.025008190902572454,-0.01356662499402475,-0.012449370457261476
0.1277308,0.07164501764618021,-0.010996633740884759,-0.03386735061132714,0.3637354669062306,0.007973788795912562,0.026606188220373674,-0.014532668128884907,-0.010326778685856956
0.12825,0.07043162094924689,-0.011393100031184043,-0.0345391581015062,0.34830920812056165,0.013246436528673708,0.013671783111033911,0.0003039959709032331,-0.007012357415552518
0.1287692,0.06942266792516608,-0.009467291825387516,-0.03534888804988928,0.319021815779261,0.01837801542372587,-0.0055506845226221384,0.02661382007107121,0.00011560154911511363
0.1292885,0.06899665632142243,-0.0020807390712934966,-0.03704141839288784,0.29103183357516876,0.014741432178491613,-0.024455374460392035,0.03197394942862055,0.005389811500085957
0.1298077,0.06893570998371974,0.0037593201302421023,-0.038051509983719735,0.2683942141666292,0.00474318212401525,-0.04656581353027268,0.013244384703877857,0.006294649918598686
0.1303269,0.0685363776680609,0.006289426063242101,-0.0375382553361218,0.2522440871789641,-0.0013557257154651655,-0.06413739271128248,0.009531712007472442,0.0053232893277564055
0.1308462,0.06752828272044212,0.008339525838229181,-0.03563697416177082,0.2356678951470044,0.0014909460551302477,-0.06270606972434876,0.018075529575312166,0.009599916479818083
0.1313654,0.06643587217531056,0.009432017742602942,-0.034544482257397056,0.21818810603626643,0.004495298792158088,-0.047684306039209555,0.014388410077671828,0.01629138871448626
0.1318846,0.06418767964090491,0.0078889,-0.03491738562841642,0.17626549928526952,-0.008721453131818411,-0.04259100111704033,-0.005419483231855875,0.02226512590800143
0.1324038,0.06286868226529725,0.007844009359178356,-0.037158293960143224,0.13102002907769694,-0.0278971078836974,-0.0505226,-0.016744287920286448,0.016899450008253956
0.1329231,0.05886972482918547,0.005536793317462375,-0.04007097626646819,0.08236420841386033,-0.03570431509639795,-0.0509833859992557,-0.022538933466319327,-0.0008436164153251384
0.1334423,0.051588039288388524,0.0006339200193621372,-0.03841599755568103,0.031809514071332645,-0.020232142213997925,-0.03741237826772124,-0.009549378267721243,-0.021085229605469984
0.1339615,0.04893475417317651,-0.002908709518646924,-0.03914269224377906,-0.04533884583080863,0.009972236898308654,-0.044541547003102526,0.029032955694743755,-0.033603269091501145
0.1344808,0.04298930823707675,-0.003165022164531707,-0.03639354609339327,-0.14947733391261842,0.020674644088865258,-0.09096565794213742,0.03522423620146901,-0.037188604118538374
0.135,0.04162246193245907,-0.01155049292707195,-0.039388800904512786,-0.24840165566827394,0.005080789486377798,-0.12183996988153441,-0.00950566681328206,-0.04537038612727077
0.1355192,0.0336302959027441,-0.012169099256441315,-0.03915992787413095,-0.34086285692898766,-0.014349148734475835,-0.1077256357394182,-0.05381249810456787,-0.05651551645669735
0.1360385,0.03218037024857775,-0.007435462720728919,-0.03926741404971555,-0.4034705482171516,-0.0246132266804512,-0.08568675573283971,-0.06777848453130454,-0.06485520165199116
0.1365577,0.02504503140613308,-0.011840485976933471,-0.03819012521491996,-0.452931014804027,-0.009944506230572825,0.01993803283395958,0.003507207910572837,-0.07658966273354674
0.1370769,0.021534926007553353,-0.014757478796064014,-0.03735479499903474,-0.459970968194096,-0.003907268210083632,0.11937995628813362,0.09140391450428054,-0.08600455259116277
0.1375962,0.018303808907046092,-0.01932560751167285,-0.03721185236996438,-0.45073000789988127,-0.0020302432783152746,0.10247711743402395,0.07846746703224425,-0.0783856
0.1381154,0.013980318214104968,-0.024769929553526242,-0.03795097617537684,-0.43686286890986104,0.0011076304037431115,0.0501604058108136,-0.002803063017136939,-0.05718928866057873
0.1386346,0.0142672,-0.02940508841600649,-0.04594172211407884,-0.43968096559045156,0.005521530932785671,0.18867690741688428,-0.04774956630192765,-0.04254626630192765
0.1391538,0.01901507304864742,-0.030784166799125125,-0.05192353591284767,-0.41578991428393264,0.0006493481879209185,0.26607631218343586,-0.04055528832653212,-0.03697418044559775
0.1396731,0.013796317363149116,-0.029979571770398186,-0.05674354242504371,-0.3873739366465504,0.009283877671725478,0.13614446032684518,-0.029988948685472566,-0.03310370257233809
0.1401923,0.01425504019397222,-0.02527539386244203,-0.055122792989219876,-0.33424200728431147,0.006051962574961353,-0.012796934329945575,-0.0045562196120555575,-0.02913750701078012
0.1407115,0.01837343201984264,-0.01989626798015736,-0.060060044006614216,-0.2504896524688446,-0.0032758420363781706,-0.014573822086832293,0.044136658782537,-0.029697153774269236
0.1412308,0.021818562657773554,-0.016451137342226446,-0.06120842088592452,-0.19364525350618364,-0.009591914872584848,0.016432268133479564,0.052462305636470336,-0.03658732952906469
0.14175,0.02704773375471476,-0.010659117293478623,-0.056446894533962025,-0.13727107930530905,-0.013855338820412046,-0.011214844718351817,0.04875981898952471,-0.03609605611389067
0.1422692,0.034008653046089,-0.007883001581791836,-0.05492104847667194,-0.08965598425604525,-0.016332333304690708,-0.0757746789977271,0.063447,-0.021980360779089738
0.1427885,0.04389438325304007,-0.008988297540905377,-0.05288768473580114,-0.03689607241726188,-0.0052835334971234596,-0.13320420345689252,0.04607826650287654,-0.015684783741206847
0.1433077,0.04391375132730632,-0.008201958967086512,-0.04722923171501153,0.0028636695580480957,0.005745688765280749,-0.12842813097721617,0.009082410663290508,-0.017208191622424464
0.1438269,0.03573129068771939,-0.005286925205541334,-0.0436529120873699,0.03780366182419591,-0.0023419765821387785,-0.06530187517289796,-0.028799140802984693,-0.022458426845312764
0.1443462,0.028233993726146666,-0.004179541117119054,-0.03991280627385333,0.059027782651490016,-0.04446235287062493,0.019953197999050945,-0.041706256615630155,-0.02668356568463333
0.1448654,0.023166055826424704,0.0017231544703736699,-0.03350071263908089,0.06783358582307775,-0.08100947247436743,0.1289581223803528,-0.044461364921275025,-0.026233820160569382
0.1453846,0.02341583504694118,0.008963868037552941,-0.029505695887341178,0.10775017274953202,-0.08333744739038867,0.24299909854299084,-0.03868108457752941,-0.025765735046941178
0.1459038,0.025346418235238605,0.01019066882353734,-0.025416185698233527,0.13794330027591742,-0.020773977977620546,0.25775718740762116,-0.023977123345308212,-0.02762412147054462
0.1464231,0.028644248603905367,0.009126691215205771,-0.022037264401233186,0.16333470768835665,0.035113967372122065,0.1752768212163004,-0.01723380726774214,-0.03056242316726064
0.1469423,0.03470422526395018,0.008555192683034547,-0.01611971001617222,0.18636469148921056,0.05047471312854813,0.06128513418790876,-0.025125507930812505,-0.0319404889906817
0.1474615,0.03925698376331073,0.007940154995167512,-0.012186286690146628,0.20308045132171215,0.034217485918712674,-0.013004795232953696,-0.020027038372761263,-0.03213088637495509
0.1479808,0.039356609040521046,0.009195829427485737,-0.00949679185181953,0.21646810336100128,0.0015414269588250146,-0.04277301098794034,0.005227964371753087,-0.036681096267899546
0.1485,0.036221215066872044,0.01339776326196074,-0.009100563513666142,0.2283646012481301,-0.007032512817118781,-0.033489942200945116,-0.00441785797827798,-0.0472030983209414
0.1490192,0.028830744195502325,0.01748955992361909,-0.009688035954171453,0.24091610973575486,0.013596997558534739,0.005066853552440671,-0.02285026854376647,-0.05624960599236191
0.1495385,0.019446359736404347,0.020861349348985703,-0.01183343674354873,0.2519176332235018,0.03195126996705055,0.02040475366884454,0.006259746990144588,-0.056007566854884415
0.1500577,0.015952949429643752,0.020764510507264564,-0.013344920520504797,0.2443180340429204,0.02730702907193354,-0.01416977939809791,0.04780807410601207,-0.049173514047007816
0.1505769,0.006114107467516173,0.02155464794345592,-0.013300867223755243,0.22334518617237054,0.02420076281215146,-0.06321130842518673,0.08951884787711913,-0.04780937880435957
0.1510962,0.005193144084185496,0.0223239,-0.018889270032795124,0.1766420165301718,0.027318593413499192,-0.09592400680513496,0.10234699659743252,-0.048201363336977235
0.1516154,0.006814427294513046,0.0223239,-0.02154235076905826,0.13242417988423033,0.03380390187992019,-0.10712590324713488,0.09674604837643255,-0.04849615008545092
0.1521346,0.008474550003486476,0.01984543564977849,-0.025760984053820945,0.049566405629157616,0.03182332847641097,-0.11657417764907191,0.061405687525002195,-0.043679941837468435
0.1526538,0.006176896423677202,0.018698320047903137,-0.024922921240859094,-0.04445919099115951,0.017995817066785783,-0.1123801922496039,0.030026283417335743,-0.040484374343006835
0.1531731,0.0065432595331273175,0.022069220137564235,-0.02365950581641588,-0.1276639372462488,0.013514789345953264,-0.10946499417688905,0.019625138849865692,-0.030710433033449808
0.1536923,0.015101929117394344,0.018637880440707386,-0.023590672279790365,-0.1580970404417062,0.011801414558313017,-0.10085305499925089,0.013421409116933358,-0.023244914558697174
0.1542115,0.012538749555843713,0.01978530898446483,-0.02208930095252929,-0.13908383319586845,0.015798785545083318,-0.08562591141751508,-0.0030719458099432613,-0.009583553237527447
0.1547308,0.007758742498959426,0.01822031500208115,-0.024425519448557743,-0.08663907183162163,0.020497876864427972,-0.08220273369396847,-0.00825495104843936,0.0010522624458846868
0.15525,-0.0020478861646952328,0.018094368188316844,-0.026855883529198987,-0.03297904712447467,0.005055757016598954,-0.10568477695052227,-0.01074238352919899,0.00946024446088779
0.1557692,-0.018034950562946846,0.022922578791665756,-0.02960748424245434,0.0003190723023546952,-0.027474307365417772,-0.11035025896294964,-0.02200454104098781,0.024850670653262307
0.1562885,-0.030774974050971838,0.02267572712508045,-0.030028872874919548,0.023257587423638804,-0.03750653358738255,-0.0984608647885024,-0.0325582979619803,0.027901782999356407
0.1568077,-0.04366552283631532,0.018668827201529934,-0.027197061582659447,0.045102049831626294,-0.005812344392094691,-0.10109603371537852,-0.03024119872333597,0.014608160508342462
0.1573269,-0.050562420658218796,0.013733790385722087,-0.023363725855561623,0.051108641879358145,0.014814448840592846,-0.10711770961427791,-0.027415283207000197,0.0009274665227439903
0.1578462,-0.05220492130902414,0.007195475521547042,-0.018149540075261168,0.022851156435952445,0.0011724942653466592,-0.0922057144566193,-0.03425585485123804,-0.005871336085001019
0.1583654,-0.05272054953452393,-0.004572236906925194,-0.012696254405518567,-0.020511864017881375,-0.01249580443719636,-0.04147020671446221,-0.040354341771774264,-0.01394615884271493
0.1588846,-0.05133966592272732,-0.013675209624764886,-0.010101372931865697,-0.047546167265602686,-0.016910764303795022,0.030567283815244227,-0.04400955179669902,-0.018485880483765614
0.1594038,-0.042636175488364035,-0.020541136601057757,-0.008257556862823865,-0.06763834738704598,-0.022918402289636916,0.0713454204288522,-0.037864970588471596,-0.03975896895563406
0.1599231,-0.023742294176044083,-0.02394701094789519,-0.005339277996176394,-0.10495858790506185,-0.03132405049249656,0.0364912927611174,-0.03190813017368271,-0.07486242358080014
0.1604423,-0.006995947450872989,-0.02527991138204281,-0.0018509433861696495,-0.13876290827814441,-0.027774288914340882,-0.03138818204212286,-0.028797818699382277,-0.097876525867984
0.1609615,0.0012802446644841667,-0.02559573024296945,-0.00026622048806487764,-0.14834181791285334,-0.016214773962668298,-0.07590182000425194,-0.026043804436123946,-0.10323656339786556
0.1614808,0.002369873056828719,-0.023874398779911078,0.0011180455679608897,-0.13775555916824236,-0.014062271291043246,-0.05245079328779473,-0.031194483413844138,-0.1106724718367398
0.162,0.010012637682906665,-0.023126850511532297,0.003981928458974545,-0.12583218115854666,-0.012337495781623032,0.0009368469068387856,-0.03492871744059169,-0.10295163706922321
0.1625192,0.01290147356827509,-0.025065743996479855,0.004758196980630143,-0.12059163489499161,-0.005964421623496702,0.01536476311557487,-0.03248304435425153,-0.08913164547094521
0.1630385,0.023275761880822407,-0.029032846633774156,0.0058747,-0.1205114635647138,0.0032880356440241846,-0.012059099996886067,-0.031174776733796622,-0.07415076396190177
0.1635577,0.03452138419140476,-0.03178189949941989,0.002713851744282388,-0.12185308718713743,0.001452200500580113,-0.04166142745681725,-0.03014898768771754,-0.05702484292831271
0.1640769,0.05209595618094365,-0.034845064983858316,-0.0033484624723774574,-0.1125426551334519,-0.007035504120629096,-0.06125368329650328,-0.02879036876381127,-0.043498424872175354
0.1645962,0.06109331166766281,-0.03682460466706512,-0.007078614001195376,-0.09275954314234214,-0.012891597666467438,-0.06681765090052297,-0.026466070101270098,-0.030815556706344102
0.1651154,0.06205020146535825,-0.03729498084015488,-0.008609235039327099,-0.07260759687398315,-0.01228600365262305,-0.0740237865041513,-0.02168331714847176,-0.013166765858470892
0.1656346,0.06231642764089539,-0.03670192570450851,-0.01035286179552302,-0.04281641268052259,-0.014628306513732228,-0.08867868644156102,-0.016654942254326337,0.006337756687203163
0.1661538,0.0621361454882463,-0.032160827148253135,-0.01701341135262883,0.0045319,-0.020966443741813716,-0.11810873464220933,-0.018519084788698542,0.010230351892921798
0.1666731,0.06855241134927316,-0.033247182740678394,-0.01384478226985463,0.06712403054077137,-0.03281731773014537,-0.14341693498946698,-0.035336929550242285,-0.008428886226180786
0.1671923,0.0705958871217987,-0.031120712878201295,-0.014253477424359742,0.10559627864165104,-0.032079783863460394,-0.15960351507722811,-0.038711448409618834,-0.028859005457365125
0.1677115,0.0772287517898377,-0.025144273389146078,-0.015580050357967539,0.12955908349481934,-0.031074562231524345,-0.15011402008485605,-0.03253716079965419,-0.038235339916280885
0.1682308,0.0843362170219242,-0.021984495755669874,-0.01561,0.12040289805645328,-0.03589225097177336,-0.0918078586778044,-0.024832164106604132,-0.02966472636366079
0.16875,0.09101281337418732,-0.022920486549674116,-0.022388451425875124,0.07556627394057362,-0.04285033435871218,0.009288484779324875,-0.010200329359949245,-0.012035308992263445
0.1692692,0.09589480040991873,-0.02073929699850476,-0.01775106841290798,0.025961139528534308,-0.04045696011711788,0.02508879811711911,0.010891692468476436,-0.005126666939945818
0.1697885,0.095151551698046,-0.019372363773534497,-0.01965734830195401,-0.0003556092500885096,-0.040737439104817426,0.003986059525710104,0.027156349908126137,-0.0008804913206034871
0.1703077,0.0781747716436974,-0.016273283955440473,-0.022793346740909395,-0.00025875927531120147,-0.05515163905261774,0.025953196044524802,0.014349284178099208,0.006686685570868398
0.1708269,0.04574597140248929,-0.010757062956229925,-0.02346369077426026,0.030576735814780667,-0.05840750553877152,0.05252582142937288,-0.02318564180306121,0.006202411077543037
0.1713462,0.03349662163602454,-0.00902665147759252,-0.026007967327615476,0.07489656889918721,-0.03951847516005343,0.04011496179035087,-0.04891901892957649,0.0025462158500229575
0.1718654,0.023761999057280953,-0.0044754232057566835,-0.0294383339060858,0.1298515763228838,0.000274784572955263,0.06328301091754931,-0.029224464760175276,0.010518023205756682
0.1723846,0.008515487262595824,0.0005261494911320077,-0.0332589486741939,0.17844883360595082,0.042971120111596234,0.11271280390655607,-0.0025124455255025554,0.03529292780564726
0.1729038,-0.009307953684813516,0.003653649257133243,-0.03428579953255285,0.23416605638694882,0.052270051959268544,0.09556345762419863,-0.001037877684331227,0.04210846940065791
0.1734231,-0.02811382886188213,0.005693840961259725,-0.038256640961259726,0.28370991923785815,0.009270593375835719,0.05630055358638032,-0.025559068783082534,0.031584400908314325
0.1739423,-0.05993412996394488,0.0061647062303444656,-0.040562386190802914,0.3330487848958717,-0.04230597180620563,0.017775646463185416,-0.04916580026091164,0.004352812668023677
0.1744615,-0.08898241492426581,0.005842547669877714,-0.041601586019266286,0.3526654766987771,-0.05134717336317281,-0.007343319841718628,-0.04934200638999669,-0.014753274306704907
0.1749808,-0.11563768596581021,0.005413600074184537,-0.03919510034619451,0.34634870816695523,-0.03842310722728441,-0.031886799307610986,-0.03758580752402256,-0.025931699851630925
0.1755,-0.13124739399419158,0.004621405622450245,-0.035528028112251225,0.3252579085639137,-0.028254361436579566,-0.03776648407627702,-0.02403571140585919,-0.02675529762986838
0.1760192,-0.1466434706513509,0.0031246845797964717,-0.030702351561053526,0.27277276339801376,-0.020109386363857645,-0.02432343970897234,-0.007301714374460872,-0.015498922504707642
0.1765385,-0.1505608,0.000880341101724654,-0.027787572604285174,0.18797130632079476,-0.018442831491690636,0.0018188725988502307,-0.007861756220381945,0.01671366314708762
0.1770577,-0.1505608,0.0017732851915679268,-0.02615046410712837,0.1183219333076843,-0.017996403779213136,0.0012235765389547154,-0.014558792561762353,0.03338186415927377
0.1775769,-0.15304315053351605,0.004328650533516056,-0.02399973640745754,0.055843308841456225,-0.017649606183310493,-0.028768314662719424,-0.015571886940973596,0.022333139764298387
0.1780962,-0.16119131574579795,0.0032606983337951584,-0.022404450791528408,0.002888526020180613,-0.029541668286679243,-0.05171798486557963,-0.014020997917243948,-0.007285042821626638
0.1786154,-0.17623019074888013,-0.002827527309397674,-0.027964761675345024,-0.054476080925581635,-0.04785879304930501,-0.040071677129163055,-0.01226320620269815,-0.02880773768251282
0.1791346,-0.17761127491533366,-0.006276935020412403,-0.026970814608639763,-0.132764451398928,-0.0403099104760266,-0.024328194360401286,-0.0139315,-0.04018727304319881
0.1796538,-0.1709045809117168,-0.00974893505651416,-0.026147359563039443,-0.22780281261146787,-0.019747730734641016,-0.02423571575732704,-0.013678751804758178,-0.05454909539956666
0.1801731,-0.15393956071775938,-0.015633348532230036,-0.023970274742202008,-0.2981810232175748,-0.01926475315722475,-0.03734437746284876,-0.01568007210057324,-0.07349327283785403
0.1806923,-0.11430668776854874,-0.027328066155576224,-0.019172257361895904,-0.3625736785468607,-0.04626071364561357,-0.04874471698320199,-0.015977123731476004,-0.08804014979545938
0.1812115,-0.0592686367545193,-0.03316896554132732,-0.01785179025428673,-0.3648908137069053,-0.06309714987625063,-0.045286467814510296,-0.00789174632006315,-0.08293876542867072
0.1817308,-0.02198329216211133,-0.04127981864800665,-0.013869026102443768,-0.3233523316540768,-0.06544953044574305,-0.0418281075387837,0.0067552875980967375,-0.08131832336880057
0.18225,0.02089058070707362,-0.045361320407844026,-0.015522625576754991,-0.2776656283640491,-0.07485127639352641,-0.03146696851191821,0.011681333160458265,-0.0783067412270235
0.1827692,0.0690704955248849,-0.052336967619015885,-0.011164379428590467,-0.27397612085727496,-0.08113516476196823,-0.0182901434757226,0.0009855791903117697,-0.0660337198089867
0.1832885,0.11315843994670483,-0.053888577949966404,-0.010113108700470318,-0.3003884604470408,-0.07766385082584133,0.007623448647175153,-0.006854866150100783,-0.027544049803127194
0.1838077,0.15281336492005765,-0.054267523524238616,-0.008019609623031419,-0.3365542110528922,-0.06609550184472873,0.047874370484772256,-0.007493621473094309,0.015595139182230957
0.1843269,0.1978120936767277,-0.05665790285526491,-0.0009960853499710056,-0.3678333110142446,-0.06334835965268541,0.040721459655303986,-0.004810550781828725,0.040271809414956665
0.1848462,0.2228756921340978,-0.059504067443334745,-0.0017208602330004222,-0.3626553450473918,-0.0728101219958809,0.0032943176265623994,-0.0063370337216673706,0.05237552920621521
0.1853654,0.24560716320782847,-0.05861175555529605,-0.0043026810719714505,-0.3128238508169611,-0.09310754206244927,-0.03142217837416369,-0.003608152337464927,0.05770649731411166
0.1858846,0.2582655492990179,-0.05609945409494412,-0.0057779199065357235,-0.2414141984484322,-0.09361297511683035,-0.03611179502336607,0.005664550414368429,0.057046070140196414
0.1864038,0.2638742357530357,-0.051336612544801416,-0.007288559580921989,-0.1474615502315514,-0.03028660347908399,-0.024867392954914466,0.019790799380347945,0.02949268222184996
0.1869231,0.2665662883501002,-0.04480094626601441,-0.006154868358704759,-0.07853046127590213,0.017733488594278198,-0.018070057996740066,0.023235586322750718,-0.014409466212706513
0.1874423,0.2598628737952711,-0.04576566955094195,-0.015431408734909634,-0.009371355694399178,0.0020395947962830807,-0.01266011306132256,0.005931951927202161,-0.069828431167318
0.1879615,0.25054186545661083,-0.04463585035837707,-0.01853841151446306,0.03765715784848357,-0.04724855713172943,-0.014072387052028663,-0.00621352025381814,-0.11304384700482037
0.1884808,0.2320458640714126,-0.04057517031116625,-0.02185941218527461,0.09158111442527363,-0.06793140590944693,-0.025692525394846392,-0.0015254036333739152,-0.15082240950674686
0.189,0.19961133122636493,-0.029632077160791227,-0.024704014085803652,0.1563146419467524,-0.04013276447436201,-0.03951509953354186,0.023661730915706357,-0.16406254458970168
0.1895192,0.1728408338937499,-0.015880529431111057,-0.025793644847500016,0.20240369915388895,-0.019768737406111143,-0.04153142868916663,0.039423276515416654,-0.15528302359972226
0.1900385,0.15136296554514686,-0.0061316891591675134,-0.02853550617398414,0.23043152418468152,-0.039266327198953094,-0.03513375226070368,0.030740761023739505,-0.1476668328883115
0.1905577,0.1282323482570299,0.0005658008581278073,-0.03328086883943797,0.24068234850028422,-0.0837962498244338,-0.023450750196053013,0.0028935547219148656,-0.12949970474862935
0.1910769,0.10311985925483137,0.007185448543232821,-0.03595211262119104,0.23141207087455523,-0.11026483774324183,-0.007772139866507448,-0.02071085333689552,-0.07616930886093434
0.1915962,0.07359628494542855,0.011671122863142841,-0.03637854052057143,0.2185508709194198,-0.051462623727767144,-0.00021254010509890592,-0.007072061213169289,0.010462601301428565
0.1921154,0.04166094604726695,0.013872239369702428,-0.037778445229109746,0.20996952322828374,0.032858780497747896,0.006758341824617878,0.02142554301780773,0.09143346329455858
0.1926346,0.011556707830459829,0.011843041733548504,-0.03882382963074307,0.20951543572158376,0.04432414121176974,0.004811758424203459,0.033162349327380394,0.12685386875268911
0.1931538,-0.0062395073006635835,0.010345812737098276,-0.03851307367466665,0.20938178545618305,0.0005333781104857006,-0.0005882927875028381,0.02789057097177741,0.10877164003239106
0.1936731,-0.03188461521772626,0.008059659243078485,-0.04173623513035008,0.20220978898237832,-0.027481648225456807,-0.014762022270764546,0.021171317475187128,0.06342073627616125
0.1941923,-0.0444623175007488,0.00652766976125694,-0.045827408932208755,0.19214988903797603,-0.01600494641885411,-0.01893409522513881,0.01833706666464889,0.02409325022463961
0.1947115,-0.054776926561569315,0.005929713665463227,-0.045976942486697536,0.1800413226286937,-0.007035604981948405,-0.006974973309264541,0.019682423349644398,0.005257722268218332
0.1952308,-0.060238640484428244,0.006456983499489781,-0.045845085761745105,0.16204116524156126,-0.00853953399795912,0.020473498261765224,0.022863145008938903,0.004543839487489562
0.19575,-0.054795369931492324,0.00880596897260809,-0.04775983054794979,0.13992512339253763,-0.0024392315068340253,0.04597461098668274,0.02655938424658299,0.01212498759841145
0.1962692,-0.04115301285131972,0.012724023478452381,-0.049113007826150794,0.1251110089382443,0.01919103606212274,0.03470792067747051,0.027645005869613094,0.01577036805659736
0.1967885,-0.025278508703474922,0.01307761936436303,-0.05101898023659127,0.11088906957570316,0.03824167034070616,0.008938028077291778,0.026775509881704365,0.020850180630910056
0.1973077,-0.006128226110269511,0.005161860161986393,-0.05693180646545194,0.08675631533451628,0.045461869181009085,-0.005356055727454224,0.0251774,0.029271764870707793
0.1978269,0.005821219957964744,-0.006109316420713095,-0.062628201515965,0.06532647852607026,0.047647097851262435,-0.007891111620157284,0.025145098106164256,0.027664497726052513
0.1983462,0.019299536743964677,-0.019227518572907294,-0.06508182024785579,0.04694192482021233,0.05100549092292622,-0.01607517064125078,0.024747404136686975,0.022221273136808925
0.1988654,0.034784712024187106,-0.029729259972589257,-0.06451563692729397,0.035698718463646986,0.04394484336675384,-0.024732017569004627,0.02135012156376376,0.024514255390940938
0.1993846,0.048154891692858345,-0.03616612214563013,-0.06343091870843189,0.0361425556113617,0.028113125255967947,-0.026366313414250005,0.014841828685483649,0.02260443628393526
0.1999038,0.06501477503270761,-0.04524895859348265,-0.0613316272656271,0.04278135821961248,0.013010030632843773,-0.027391569741026404,0.004778355226265987,-0.004214938436159063
0.2004231,0.06930057733353873,-0.0501669106266483,-0.06073542454446719,0.04223482110914895,0.021247115739950133,-0.02529262980191667,0.0023255718436686282,-0.030759400408966565
0.2009423,0.07017503422832908,-0.059164125851299446,-0.06320835120909297,0.026175905705407954,0.03205554283206334,-0.027792151209092977,0.0024475121310264334,-0.07588189234318089
0.2014615,0.06614078135487614,-0.06489114659971579,-0.06811199887093654,-0.0018182259996132085,0.01977295309713603,-0.05385596948909911,0.005150060451625381,-0.12682008672819906
0.2019808,0.06451050711815895,-0.06421182519822799,-0.06947056073486754,-0.01866439311235753,0.004013635475536504,-0.08102712582867437,0.004606635706052983,-0.15005145413189674
0.2025,0.0642863,-0.0641184,-0.06998894973608082,-0.04021098592898867,0.0003543755694856174,-0.10830383249803927,0.0018795021113534847,-0.17860980666463447
0.2030192,0.0689096671404906,-0.06766300595898318,-0.0708903223887379,-0.06659905293147253,0.019723674636699436,-0.11712792906981669,0.005148361194368946,-0.18900096563884589
0.2035385,0.08064297423199765,-0.07229678223113818,-0.06847858477201145,-0.10618129997358829,0.044710770604367775,-0.11859421027444574,0.011842100504724434,-0.16302493522125958
0.2040577,0.09422621975936218,-0.06392085011744152,-0.05604324847428493,-0.15838115544389622,0.04678983773103013,-0.1089884686067132,0.012795999018984776,-0.0795014372134264
0.2045769,0.11439102596256194,-0.0688217612330639,-0.049163780704985345,-0.211964765983129,-0.009891095729373274,-0.0896478666469802,-0.019615968690087165,-0.010467081343195538
0.2050962,0.11222234895908123,-0.06448448797815058,-0.043199999697461515,-0.24666343653472403,-0.062210186182200866,-0.04464806108089997,-0.03398337308609871,0.018132225512134045
0.2056154,0.10445475224442452,-0.054817192606729806,-0.03555370728344188,-0.2859926846204592,-0.09430141208505372,0.05655085282906388,-0.025321028167423265,0.02349017581317043
0.2061346,0.09664861069791401,-0.03339579421614802,-0.0379339,-0.3074890035659713,-0.10238542325521496,0.17605453449086955,-0.0069073712929824315,0.0010538760145754472
0.2066538,0.09480016678194779,-0.017642595827177622,-0.0420436159231978,-0.3089550868511165,-0.10700658201345886,0.22937048581358635,0.003367388933743991,-0.020262276165122654
0.2071731,0.09364874449631849,0.013601960672983106,-0.0379339,-0.3064890481654395,-0.10988508875920378,0.2323018023669875,0.002342141694004389,-0.07006761674255457
0.2076923,0.08177738405615934,0.06303974872170327,-0.029083652967362265,-0.3006353949497934,-0.11095811111476356,0.22494075734851704,6.759078976811584e-05,-0.15001637813276147
0.2082115,0.05440183557999233,0.09294884220261443,-0.029022207557787137,-0.2615792511435227,-0.10672031155475062,0.19285088002659503,0.0004825777826067631,-0.17474335509362493
0.2087308,0.02311166166593449,0.10749046575567925,-0.05176549519516397,-0.19409115361596577,-0.08717330015356584,0.14487891078419587,0.010420972655169171,-0.13857874377720988
0.20925,0.0002722722484745305,0.11292506516527633,-0.08185853389043372,-0.1362591236468834,-0.08305644860159114,0.07906655750075318,0.023296643370920713,-0.07063662266602952
0.2097692,-0.015214018586528232,0.11264603214915236,-0.0902294412543981,-0.10347286893194939,-0.10035641248152238,0.02158600553848016,0.029295811657708667,-0.012877037687632528
0.2102885,-0.03449229170103275,0.1047069942279922,-0.07571669692896382,-0.06625978266193634,-0.10685906930992625,-0.046476531583050845,0.030574913177997938,0.04277377022406756
0.2108077,-0.04695270344414641,0.09300391743802713,-0.05731245234142948,-0.035401618018000215,-0.06575851428386725,-0.08682394898111556,0.025940747658570514,0.07373224382946408
0.2113269,-0.06519880957332051,0.08389692544459629,-0.051645941375948974,-0.01628403711100141,-0.0033818948799388664,-0.11209124884995106,0.029500711672638937,0.0986405209851031
0.2118462,-0.08054212822851727,0.07672855065336043,-0.08098771132012884,-0.004488005003904361,0.056387766470442524,-0.13271161866145406,0.03558707536258263,0.09390903595754621
0.2123654,-0.10523971115956583,0.06709075238967055,-0.1283457960095379,0.0034750063213656026,0.1542573099001821,-0.1652356564332564,0.04451788399649856,0.06927463958201684
0.2128846,-0.12847163530445427,0.058252445951636735,-0.12148747456706749,0.005304608361676614,0.225439789924194,-0.1871726094437637,0.04984085596677691,0.03547208256165189
0.2134038,-0.1461389249007234,0.048275904595316665,-0.07716369493880015,0.00754785525975305,0.24497649880051134,-0.19864586951158622,0.04392526564987503,0.0072796027960837055
0.2139231,-0.16379988453421698,0.03263322960340786,-0.04408053325927981,0.006932337748170416,0.22881376480170396,-0.20363400371373125,0.02987617965662886,-0.031499422999687485
0.2144423,-0.17617256376493123,0.017444512023051813,-0.04940811253388442,0.0028278658459688095,0.21189145678432109,-0.2043850099420142,0.021287979795666954,-0.06110804567777248
0.2149615,-0.17797656231750164,-0.002676741253054211,-0.06955568205024155,-0.001064860335211887,0.21005369178833225,-0.20458963258551957,0.015570080200823991,-0.06447341642333553
0.2154808,-0.1626672092920342,-0.023436397597323584,-0.08412388492109238,-0.0038883317510599188,0.22218173348347967,-0.2062020372632869,0.009434777460331771,-0.03541264224443232
0.216,-0.13099415420816715,-0.03923873561446128,-0.08647574523856266,-0.008723480853023945,0.23604874204289247,-0.20257310281780838,0.0044411935715688005,-0.0015230480563710436
0.2165192,-0.10509269680535101,-0.04669948787793103,-0.0836603512020892,-0.01336883908002023,0.24435411251730427,-0.19300084696016848,0.0035965753606267605,0.010864601837742337
0.2170385,-0.0782715325718688,-0.057243427695339244,-0.08125328313663947,-0.01670568329742941,0.2312788246372197,-0.1791804988198369,-3.656729265214833e-05,0.02182722769533925
0.2175577,-0.049359384384556275,-0.07284214222489258,-0.08301533161701127,-0.01801682106078813,0.17099479522358693,-0.16537676833133058,-0.011054662885986161,0.03231317888755371
0.2180769,-0.020948786206132903,-0.0889789570295094,-0.08824180013886354,-0.018812932534023226,0.0808092017403282,-0.15254787335915987,-0.0254661132509883,0.02252809933083302
0.2185962,0.003574472255205732,-0.10535767036407441,-0.09376120189113132,-0.017597580867027916,0.0029834700475657953,-0.13443412344256056,-0.029908803236740448,0.0028883865148707616
0.2191154,0.022526436898017678,-0.12183762894661283,-0.09623320795140484,-0.015812284066472917,-0.042061728259563204,-0.11273556721872977,-0.022492866875204954,-0.006038261126474429
0.2196346,0.044423517206940474,-0.13963738598004594,-0.09551751344645767,-0.0102991383811076,-0.040195193001834995,-0.08256099036472092,-0.009869175221398123,-0.009539116945540176
0.2201538,0.06137351942119846,-0.1430231710035733,-0.09695200467442414,0.002263833444470857,0.026167395998558406,-0.05613665158237484,-0.004049965108525289,0.002077647807313222
0.2206731,0.06557956254358491,-0.12973579624915643,-0.0995718810441692,0.015466571970520973,0.06465876183309471,-0.03897254774482209,-0.003089683882215459,0.026289612264982325
0.2211923,0.05647488773490771,-0.09375777702839357,-0.10045297860629925,0.035878534260319624,0.08932931859556166,-0.019882188053924894,-0.0007400903832019898,0.05257555830231465
0.2217115,0.0313966719074098,-0.021349432471932592,-0.09887021236121472,0.0707558154622574,0.1290966809107134,0.0036593703568884644,0.008518895620657607,0.061382556949743226
0.2222308,0.009173580092354083,0.05366788977044084,-0.10253016200316688,0.10742009001848646,0.16267888109791565,0.02692628588547781,0.017110546104506793,0.03398733001318227
0.22275,-0.01053103637700201,0.14454506429593159,-0.09146068774219589,0.12017313771318944,0.12066941941834246,0.04839471152685765,0.03520495137487363,-0.01139875047956831
0.2232692,-0.03282327199338658,0.22505179975620743,-0.09450728610136763,0.13250733942386447,0.021717303992508194,0.0638236502168701,0.03550513446110186,-0.04693344355303296
0.2237885,-0.05364771388220469,0.28693908870780643,-0.091428291076217,0.1209897495034698,-0.05792365850111969,0.0764782434111342,0.038398853542697994,-0.062084926771349
0.2243077,-0.07715799689194737,0.34733733664116073,-0.09077543989492796,0.09797112391641412,-0.0823220208812188,0.09154656134561504,0.04206827978985595,-0.06257287993557056
0.2248269,-0.09869061768254915,0.3935211591725943,-0.09018143290182622,0.06797394771055792,-0.061234861098997624,0.1121882601194556,0.04088026580365242,-0.036139657215433524
0.2253462,-0.12220622518357296,0.43309857882711067,-0.08410030860408012,0.023319401118514195,-0.06856964905014132,0.13397134503945762,0.035852058435424605,0.0014237755047642564
0.2258654,-0.14275752350644003,0.4543106729287181,-0.07799342652151789,-0.023014309899922515,-0.11600573752096845,0.14192638174636116,0.026334072662460378,0.010205101915549786
0.2263846,-0.1630285355558029,0.4656001128056543,-0.07511755951095316,-0.0556904360818535,-0.1225481999326507,0.1525003039912676,0.01600381694982231,0.004702691864564359
0.2269038,-0.1787655938949525,0.46568085931520814,-0.07216586481563059,-0.06445765936789387,-0.060115385680567124,0.16941645857928908,0.012633300183979757,-0.0099208455279036
0.2274231,-0.18102114413608408,0.45615749961872143,-0.06878257678141211,-0.05894409211179442,-0.008238028754371875,0.1764336513411851,0.008498162069384092,-0.02997010634967102
0.2279423,-0.16404121451975734,0.4263275871393558,-0.061335581746398984,-0.039441295173396014,0.0031922977078939953,0.17348100517558135,-0.011870521724240959,-0.06551004502182145
0.2284615,-0.14634241877761645,0.40380182531783,-0.05811760436014236,-0.02683755041055757,-0.03904345578104785,0.17307879794343453,-0.024206021822620816,-0.07476169006617397
0.2289808,-0.1095723824957622,0.37601215072382893,-0.051900818310682884,-0.010925504654054057,-0.119893486734128,0.1867697405240522,-0.035328090050679176,-0.0662463852012467
0.2295,-0.07424717119658784,0.36012409113483157,-0.0436386300245828,0.0016255121455521612,-0.17004049297164417,0.192362222996227,-0.043486788088242,-0.06089699564713942
0.2300192,-0.03928748057054386,0.34616898329648876,-0.0337717735098763,0.007482449806503535,-0.16479777578802227,0.18147045698878317,-0.043416387100449684,-0.07015103735475219
0.2305385,0.01139159848452221,0.31943840049372496,-0.022072648353507543,0.007975807448602483,-0.1387419087172178,0.16985237122734295,-0.03548606377874046,-0.08768882185208253
0.2310577,0.048619724688173514,0.29371919158031534,-0.014336778008071791,-0.002475090352158548,-0.10392239836643717,0.16478751125504487,-0.025326070677429056,-0.10125918848587437
0.2315769,0.08991071124835681,0.2659679109747977,-0.007615397579922187,-0.014821115682369202,-0.061669282210857865,0.15485547898688437,-0.021680242339536134,-0.1025559
0.2320962,0.13083302388135937,0.23263548176036153,-0.0010299303727729183,-0.029146280485822563,-0.061944847736458086,0.13748679457070226,-0.028577327983596856,-0.09263731387245654
0.2326154,0.15725630046307346,0.20298741594548625,0.004501634263064136,-0.043609593889192555,-0.08081344021666975,0.13341656200675212,-0.033381625308559544,-0.0810526060563027
0.2331346,0.18005262045835327,0.14735941442478628,0.011473444038600749,-0.06467750980239301,-0.08717200662417539,0.14620567450717784,-0.03059253026194158,-0.05533199337582462
0.2336538,0.18635061801589162,0.1048197405786318,0.013625986584681638,-0.07832340304638573,-0.07851681344631302,0.1580988567076592,-0.0232404538699715,-0.049778941884861996
0.2341731,0.18762712476070617,0.06680971796966617,0.015895256799730223,-0.08626584879905579,-0.06787965156212247,0.15696422160013487,-0.016432727722525138,-0.07431538383622514
0.2346923,0.1889682788462774,0.025303242258498032,0.025181361676277637,-0.0858269564106408,-0.08603576435468367,0.13349811703201894,-0.010534519092870764,-0.10135103040522385
0.2352115,0.19013980501387961,-0.030758217936475776,0.040841337411523466,-0.07755915256071727,-0.15432934600826576,0.09018859630958243,-0.004314006810257588,-0.12372398284921164
0.2357308,0.18661463332082423,-0.08485132875914483,0.058150118997542806,-0.06552910473938306,-0.23272820491708673,0.043094890516267394,-0.0013855907290151429,-0.12269659522308962
0.23625,0.1745595928311815,-0.12910956396673653,0.07631254956230979,-0.05271575609228301,-0.2601201420622275,0.0023733145741721886,-0.006995223631587728,-0.10087182354111587
0.2367692,0.15720805270784027,-0.164551446437798,0.0903897796008428,-0.035670326612766055,-0.23942522911941772,-0.03190138170511724,-0.021221053505768566,-0.08070857988790542
0.2372885,0.1394703250823657,-0.20019942204344482,0.09757876421321936,-0.012309957305431468,-0.1711058267879351,-0.06674186041659229,-0.028413295212754576,-0.08902354402792001
0.2378077,0.12496117221243032,-0.23535699889853207,0.1020819874342997,0.015047221271458792,-0.08390053544133314,-0.09750017185525285,-0.02063697338001843,-0.10663355599843702
0.2383269,0.11253142569202679,-0.2682896036635533,0.1031928136444434,0.046879799884209705,-0.010493122206228288,-0.0947636645586637,-0.0078889,-0.08863969190137627
0.2388462,0.10532928099438141,-0.2891273234987314,0.10254923849901977,0.07339581894801642,0.030053795582466115,-0.06990228526790984,-0.008355066204689064,-0.02123364245757217
0.2393654,0.09165880860253431,-0.32227303097201654,0.10284730575662454,0.10830767632894746,0.08104870661736015,-0.06112770355526914,-0.01032427411429812,0.07840856503187961
0.2398846,0.07365200419565517,-0.349045824620398,0.10231940739034215,0.13043917243225178,0.09870380210755816,-0.07008463189680235,-0.0027237902742240964,0.1374522352054271
0.2404038,0.051284036568695734,-0.3651227362828687,0.09854484044272105,0.14385991969289139,0.10429581483650806,-0.07511744335285725,0.013632722024694108,0.16834798059961506
0.2409231,0.0077469511346163495,-0.380507926969356,0.09627970756218697,0.15638976288805512,0.13032778268304496,-0.078715026969356,0.031427998210131376,0.19690253811128022
0.2414423,-0.03003828854821358,-0.3896680264175629,0.10043033498939985,0.16182857193542796,0.11014706649198175,-0.08787512641756287,0.034004276179939556,0.20506070904708362
0.2419615,-0.07795303635866106,-0.40324486341626475,0.11304642494955217,0.1634464154001378,-0.02695274589643401,-0.10684895949249965,0.018779796245686695,0.17652900628470203
0.2424808,-0.10342854241173945,-0.4111927688425095,0.12120496977501358,0.16281449720248778,-0.12123400864899257,-0.1154193131192571,0.00671619713828772,0.14464275380877611
0.243,-0.11721263990871193,-0.4134127,0.12392787299504732,0.15956169821781982,-0.06896936374986015,-0.1381342516429792,-0.003191581014858058,0.04713426836155846
0.2435192,-0.1030494136069853,-0.4187612414074385,0.11734359394442116,0.15207202869371927,0.008524348832494262,-0.15958064020231547,-0.011372114744913233,-0.03270529447978761
0.2440385,-0.08937623648358699,-0.41943764368774106,0.11437874941419457,0.15188405537099217,0.054789554132516696,-0.17260719657290127,-0.014715427592257507,-0.06656736860768946
0.2445577,-0.06584693075484496,-0.43586667995253053,0.1027053788479263,0.13854149064724108,-0.009134801690186383,-0.17276082031014675,-0.012440990653573531,-0.056787915660714894
0.2450769,-0.057540343025059164,-0.45058774056979733,0.09338210874206361,0.12000150312756784,-0.06942337624202388,-0.1605229188733582,-0.014377094779229068,-0.04258410627384891
0.2455962,-0.06186394925534791,-0.45745430014442273,0.08553662551674879,0.0784513834071148,-0.07864649717689087,-0.13896470873524905,-0.022509124427597504,-0.046656131496004324
0.2461154,-0.06774952137429648,-0.45738616263812315,0.08391449839591685,0.03559543015456158,-0.04829575725140705,-0.1394134177109804,-0.02714316034025644,-0.05505992585071305
0.2466346,-0.07282019367926978,-0.45448836261611986,0.07684261071156104,-0.036213995895291236,0.020684540417055714,-0.1495672620850878,-0.029998330777027873,-0.05462474370461037
0.2471538,-0.0720073,-0.4503294358670451,0.07103665527662296,-0.06663991049348676,0.060008164638833746,-0.15184157412056284,-0.027467945289015028,-0.051911919409577865
0.2476731,-0.07844231026607142,-0.4357037677203064,0.06265651940952997,-0.07031661644657115,0.07928911200213291,-0.14289456858833713,-0.03164943524265246,-0.06659447840186618
0.2481923,-0.08697449550505182,-0.41025073032989445,0.05211249280808292,-0.05644801145270327,0.07930728966161919,-0.13160814291574935,-0.040982154153119774,-0.07307789886684839
0.2487115,-0.08442641927436215,-0.39508971470897736,0.04803557083897944,-0.054919241617662436,0.07344671433103293,-0.12358174074076334,-0.039325942554857975,-0.06441451558587645
0.2492308,-0.06513519950644728,-0.3639692212935131,0.04467906234721775,-0.0740040197733574,0.06854884096026044,-0.10306712018663175,-0.02940186019334301,-0.06418483805289076
0.24975,-0.03795604589794567,-0.32783699860547555,0.0402025754326909,-0.09542756774113301,0.07622298181456177,-0.08132381634992691,-0.019329597947313645,-0.07185888365670984
0.2502692,-0.00453017531912486,-0.28445961244053247,0.02947475527830619,-0.10284723422968706,0.0985283685944804,-0.06650992642873302,-0.012841711096479913,-0.06566904781408227
0.2507885,0.018010137161017153,-0.2620836883361566,0.03104372473226976,-0.11016596835567258,0.11929780260072888,-0.06852906728014413,-0.009664386175884691,-0.07114192764823062
0.2513077,0.04183403380348269,-0.24017875606800565,0.025324283573967467,-0.11233929923380184,0.1293260974195581,-0.07724856551891066,-0.014230889589640914,-0.08386902827215996
0.2518269,0.06673026157275712,-0.21150931988627852,0.015402556968207215,-0.10284216495475754,0.10224514250061531,-0.08514543207011835,-0.024086669559307446,-0.08047862192296476
0.2523462,0.07834253102182898,-0.19497446367500665,0.008712874281335402,-0.08592860773167037,0.07649610565416928,-0.08539787434507147,-0.025475064472163945,-0.05687538201300577
0.2528654,0.09097547096915473,-0.17250661119203856,-0.0005196127516678639,-0.06290228216119331,0.03305772090576489,-0.07566210735977405,-0.012723203527509537,-0.0022225512659637763
0.2533846,0.09629558923455184,-0.15948835928321714,-0.006192353341378335,-0.055412885808023275,-0.0038561710813492384,-0.060625048760700226,0.0037608781773375995,0.03625117619672467
0.2539038,0.09822927740758554,-0.15175387243886745,-0.011398273285524386,-0.05303301643563003,-0.012036927740986853,-0.04738706968472695,0.01313156952317184,0.04993533647205749
0.2544231,0.09586086304661667,-0.14301501452078147,-0.03168862017395134,-0.05175725655940022,-0.0016148995807954945,-0.042903829753864905,0.012691208601499445,0.050619479411206564
0.2549423,0.09337644753761298,-0.1301355559260967,-0.06728802443271795,-0.0476774764288545,-0.015378770100926916,-0.04487622377531537,0.010794647537612993,0.04197616351091874
0.2554615,0.0858711879463336,-0.11541178983604174,-0.08836286461629136,-0.04134232587637503,-0.060653255471833346,-0.05024964611774999,0.01050431280320836,0.003380011753541621
0.2559808,0.08666947775441278,-0.0988730429267383,-0.06764175145300654,-0.05091014918317154,-0.11183984641691137,-0.0381715997863978,0.017724704905599284,-0.029308437389589465
0.2565,0.0779894352305938,-0.0921610077867896,-0.03252441090345358,-0.0638497850968454,-0.13511572019856116,-0.015323817707178118,0.023325819573280216,-0.04460102250618178
0.2570192,0.06945270676788146,-0.09229873797108332,-0.01641490120592372,-0.0763794584378668,-0.11941923699175129,0.003677205549713959,0.027181116298376117,-0.061674397400525896
0.2575385,0.061881239670615464,-0.10408659092470308,-0.007272660329384536,-0.09556825742448706,-0.09538123306570256,0.009103279331783128,0.029884092987243614,-0.08932570328439757
0.2580577,0.06180904724008971,-0.12128257164626535,-0.006212591852154877,-0.10314301002416827,-0.10524478006081232,-0.0027734937284780185,0.030483233589638697,-0.08935341036265923
0.2585769,0.06063327147177395,-0.13886629058619365,-0.008381778377017212,-0.09750287257484667,-0.13739995954940448,-0.009210356754034425,0.03008467147177395,-0.0864240658654231
0.2590962,0.054983617260028254,-0.14392200973821265,-0.014462567696340519,-0.06904340077032604,-0.16191014402269516,-0.004612538235252919,0.025117274254108805,-0.08469334893751289
0.2596154,0.0489169376959781,-0.1373038138501579,-0.01942621461238155,-0.04491468481146349,-0.16880409807275215,0.0018677374996883488,0.01932643499628554,-0.08290087981238577
0.2601346,0.047508257213193045,-0.11508625957190531,-0.02688455780858867,-0.0282916944585144,-0.18909828370725296,0.004336271147227821,0.013035715411088717,-0.08208873478356479
0.2606538,0.058178012457286356,-0.08280392837060715,-0.03851558483577613,-0.03217842674108566,-0.21496674475697952,-0.00595979817348705,0.012833226609758025,-0.09434574678048395
0.2611731,0.07208731200564772,-0.050618961809190136,-0.05883041460826674,-0.03572819953321247,-0.22715570732260146,-0.02866266672617967,0.008967881371382595,-0.10393200188451916
0.2616923,0.08187434341879332,-0.02798140095003312,-0.07597996176114181,-0.028027004963644363,-0.2340901667247862,-0.05217449236061481,0.004688980491327604,-0.10842748040555435
0.2622115,0.09061331906239269,-0.002077914158749981,-0.07179035378848345,-0.005250744257287103,-0.20690145576078198,-0.07260149705058674,0.01533079976632478,-0.11972118803818924
0.2627308,0.0957056721748932,0.03261875290142691,-0.05280115970099668,0.020666607900642266,-0.14506130229871236,-0.08017111044850499,0.02889193304935928,-0.14263376152546428
0.26325,0.09631425181102983,0.05568427785209001,-0.047931337115015175,0.03373652134407764,-0.11250299234032865,-0.0793661793152932,0.02943964522628136,-0.15976926845812492
0.2637692,0.09484881847093371,0.07203385312097765,-0.06079846093795204,0.039802922207777966,-0.07879828951768363,-0.06817515859307192,0.023750810825602257,-0.1603419863260008
0.2642885,0.08713060262461775,0.08365913017295089,-0.0711024124618577,0.04249634994375818,-0.06700865116989288,-0.03514338407994517,0.0215276261498501,-0.13094677496380097
0.2648077,0.06613678814659489,0.10642310200234335,-0.08697728695622606,0.0454871,-0.09894501215921966,0.02386704225145429,0.022185176890324773,-0.06439445893891456
0.2653269,0.04730683431651427,0.11644027010296906,-0.08791703023980306,0.03922203601382082,-0.10373140951347487,0.06964770342639805,0.030128726187286882,0.01134832041326912
0.2658462,0.018014261026346918,0.15065086408768896,-0.058906765449275304,0.04166169837298469,-0.02564429651151445,0.08393586610008143,0.06505551760076542,0.05607286610008143
0.2663654,0.0015095559787614496,0.1708834437105693,-0.02752979062137208,0.03676932073405851,0.054301017321305316,0.05466768598518804,0.08036673683193298,0.023659372466208556
0.2668846,-0.007347386974616942,0.18874031257200555,-0.0032444762046672636,0.03248366199424561,0.0465868315896421,0.03409660914298773,0.07550965692681169,-0.038339483534144965
0.2674038,-0.020526635284395682,0.2063903129468829,0.025583589323313196,0.027339176488855074,-0.05069812450163914,0.025435681505684257,0.0569009,-0.0781962841650577
0.2679231,-0.03714705002695484,0.2103516695156192,0.04829241435779581,0.022436988301030403,-0.14039779310034226,0.02445027764441318,0.04415932172942691,-0.05594857842475964
0.2684423,-0.05745953188097853,0.2066224,0.058465020089773584,0.016130426733655296,-0.14832782334634956,0.01820902610340621,0.04749810135803841,-0.005345211153165548
0.2689615,-0.06808717137389322,0.19931289890263787,0.053327298623941685,0.006248357826786342,-0.030456521313398474,0.012837776562955296,0.0569009,0.029947385024809186
0.2694808,-0.06470443217991466,0.1856892986605026,0.033512472339699416,-0.012510162416918161,0.1649774379190717,0.01078506139002225,0.047932301444652194,0.04660826289751459
0.27,-0.03472229696992618,0.16938059680854767,-0.001968894061731561,-0.04243681094776507,0.2440157932630558,0.01203988372832869,0.018746549701166338,0.006802952711425206
0.2705192,-0.021985190970372187,0.15897248328085767,-0.03853841144291457,-0.06225673022456568,0.1977232995352613,0.015832526435241617,0.003893641352626292,-0.04192694109187515
0.2710385,0.0017568149817678404,0.14233134330509511,-0.09513320190741947,-0.0842651426091281,0.11080629786384859,0.03998382736014918,0.01022470500674899,-0.05908984617569269
0.2715577,0.021855466985881932,0.13459925970335906,-0.12688415051767038,-0.09228979717535106,0.10107698544101716,0.055238840832392645,0.016618390504556522,-0.04392499218172542
0.2720769,0.044479108112599655,0.13478245851797116,-0.1039563822238882,-0.09154389904779499,0.12969377640237054,0.05624187545016551,0.020519480706150117,-0.019839745467597668
0.2725962,0.06296997583349809,0.14518474476408536,-0.03399106994952459,-0.08945323650282216,0.12255558223027031,0.04894889728329529,0.022163829655485856,-0.01250001505302497
0.2731154,0.07157495054954258,0.1562476796546149,-0.00669886342433183,-0.09755583899663044,0.10992068486880209,0.04931189861988455,0.015856412809009467,-0.030893595636653413
0.2736346,0.07394025370681906,0.162132475246295,-0.02101786484715225,-0.11269901161304724,0.1269919305999806,0.05818332432074292,0.0059503078466001695,-0.058967559080380635
0.2741538,0.07372137331267288,0.1554073755947196,-0.05586686354880442,-0.13130571183638354,0.16464870373474844,0.080488558771636,-0.011117897041789955,-0.05391966625345776
0.2746731,0.07114628368413638,0.1377314931206618,-0.07961171169948023,-0.15610648800628737,0.18411252910728712,0.09381311396243502,-0.02058350825410836,0.007245781013664332
0.2751923,0.06392062105868926,0.1235179837700941,-0.07264655078694895,-0.187000934107461,0.17494254369127646,0.09196282738761928,-0.017235040583893503,0.05450512628545887
0.2757115,0.048470740664249945,0.1009012489363728,-0.04854179189163363,-0.23384664851903159,0.12072678263776182,0.09008302623135868,-0.024399492828468487,0.0874255510636272
0.2762308,0.02810029464990592,0.06765858029576072,-0.0067459877231208516,-0.25128808748814147,0.0008852373281933027,0.07501148234241045,-0.04888587483315254,0.04315709342070839
0.27675,0.02521620890801246,0.05749197310387826,0.02885745104770348,-0.2380694813380897,-0.062473013674546954,0.08205174755535855,-0.055120253841579425,-0.03281053797295362
0.2772692,0.02404463397232404,0.0340088929960619,0.027989283184121215,-0.19844105970699194,-0.02710002305945538,0.06983965133654568,-0.05920928318412122,-0.12212897583961664
0.2777885,0.029259349481011984,0.03116212337836147,0.011746416785758976,-0.16738880659787955,0.05203388587759027,0.07607176452479522,-0.06515153923746984,-0.1736355299205783
0.2783077,0.035433656742443836,0.038261253372478335,0.00021253727810261727,-0.14068111760631155,0.11379658336213189,0.06403977709637129,-0.05994699477200482,-0.15022434614329996
0.2788269,0.041670922138672184,0.05114176972982009,-0.002818046310221302,-0.1252244684488935,0.16748870475675662,0.04110526310221302,-0.052077522138672186,-0.11342050796948125
0.2793462,0.04327080129591965,0.06563781743809169,-0.002536081700370941,-0.12788424164773615,0.19600971325115102,0.03863486383512416,-0.05458729272646466,-0.08662317030749522
0.2798654,0.039840804991416436,0.07637412074719324,-0.0028534,-0.14705233572144255,0.1746674670566515,0.04760708463732361,-0.06626550737874676,-0.05159998884253921
0.2803846,0.03751426568299124,0.09932818075448166,-0.009336535749532724,-0.13968909660978848,0.11095181215731201,0.040913256940456,-0.06336325767956658,0.008161704383550244
0.2809038,0.030120212982439547,0.11999534266860218,-0.003303168471099588,-0.1081295127417818,0.023815997916604468,0.02509945369421992,-0.08307315192392863,0.03528626276884542
0.2814231,0.032770780109670404,0.1468114392413256,-0.0037751132274383824,-0.07018964119612127,-0.02382643136266653,0.024861945463227227,-0.08135935770433016,0.020343651470565563
0.2819423,0.04293133203696012,0.17154852165857568,-0.011020737768380131,-0.048241450868675574,-0.0024235537782888493,0.026642967553676025,-0.0713424465920622,-0.013025491137305126
0.2824615,0.05021616805430385,0.19837581511702815,-0.024771406417475772,-0.03035844740688073,0.019092374149699026,0.026560136509849328,-0.06329642901945835,-0.00497542690114033
0.2829808,0.04209969385086356,0.23423106119092524,-0.03851888128470635,0.0013479068750672442,0.01432310376381194,0.03472444421708444,-0.06115309853294245,0.06762289522717697
0.2835,0.01720984491868511,0.2657131261574472,-0.038915467345541896,0.040941760173458366,0.0125887,0.04618502552568892,-0.06469406223174125,0.15942528461528369
0.2840192,-0.006974796032597331,0.29306172147046344,-0.03344990471144823,0.07864658566609313,0.009875213812212447,0.05444486429541079,-0.06477604041603743,0.21346327602084555
0.2845385,-0.025914860859948936,0.3085999325248164,-0.031476705126780594,0.10475258807689147,-0.010009583934500452,0.05462934444792486,-0.06223700517407331,0.21978248237520043
0.2850577,-0.043337089952401084,0.30191680469635934,-0.03801501292818463,0.11789343343331429,-0.04208208487360715,0.03453867883999007,-0.05969207441607641,0.17387171971276325
0.2855769,-0.061195155286520496,0.27144222086481384,-0.042814883245074084,0.12267784832791802,-0.055578051672081984,-0.004977275205454316,-0.05834673988288642,0.10878638477652199
0.2860962,-0.07560494072549524,0.2249913460900536,-0.04586021466549939,0.1282044113590042,-0.054383001218977066,-0.04445767242950094,-0.056488373042008135,0.05279911704454363
0.2866154,-0.08350897633282459,0.1934045225510311,-0.04832869159782005,0.13414362976423236,-0.05182058129760088,-0.06439343050971005,-0.055446493511995605,0.020787854229439014
0.2871346,-0.07619590022783845,0.1231545070658151,-0.05352157196436252,0.14107188785745006,-0.08271956400761035,-0.07437796910476195,-0.052515251429800285,-0.019791914794836576
0.2876538,-0.054290560917645767,0.06746648749214236,-0.053060701217379595,0.139750796391299,-0.12997720833857176,-0.08439056771044057,-0.0474644253043449,-0.03864952858464855
0.2881731,-0.023773564197250574,0.02405070183587066,-0.045510080902883304,0.1362900954138215,-0.1589210654427529,-0.09964897235327749,-0.04557677022572083,-0.04950349842805664
0.2886923,0.010431428745001288,-0.01924851715540036,-0.033268612079386216,0.134822382202147,-0.14816650048978527,-0.0968193377075145,-0.053884653883344284,-0.061107056484938076
0.2892115,0.024854634640654655,-0.046554540401388865,-0.02584698269293092,0.13314200383993946,-0.15362768845366512,-0.0909380134397881,-0.06438697693384673,-0.06782848650717889
0.2897308,0.027438467653613106,-0.07230243159410892,-0.015463422604433542,0.13123144607043122,-0.1989999046839676,-0.1084703731445018,-0.07102794041985502,-0.08173845021645147
0.29025,0.019402467435499213,-0.07968454631765276,-0.006807687400096851,0.1356599736469449,-0.21354800800515805,-0.13122257186235758,-0.059770918475575356,-0.09868098135653791
0.2907692,0.01058081583450592,-0.07873080454414519,-0.003094871037891135,0.14056423809260182,-0.18294930785421545,-0.13295716688643314,-0.03955224241233737,-0.09803263172514393
0.2912885,-0.01210564731348893,-0.09023609190942511,-0.002202150625700395,0.1453844228292511,-0.12723577092623353,-0.11513780849416083,-0.010142720746999978,-0.0773935379692753
0.2918077,-0.03148680900799312,-0.1122911,-0.004650797657916063,0.141027065250055,-0.13746486075727762,-0.09824545389997798,-0.004133880187248348,-0.03360941017903508
0.2923269,-0.045736164471301,-0.12180862950342623,-0.013924259100202925,0.1372619431158672,-0.18257749790851738,-0.09743561782664327,-0.015473615984335713,-0.014193758944378335
0.2928462,-0.04964704921989285,-0.11311787038977472,-0.024353083741687372,0.13928978690905255,-0.17663885566163753,-0.0987391885462423,-0.02387459683263481,-0.03939687407907035
0.2933654,-0.04924520892043873,-0.08018024258258784,-0.03427828215912253,0.15281423772710678,-0.08319756474266654,-0.08291589441914274,-0.024493605946959155,-0.10547495705131027
0.2938846,-0.04460539953946379,-0.04083098115083336,-0.04026348486045182,0.16642183073963257,-0.005999841709026069,-0.07677311121739275,-0.022945124869063808,-0.15576598601179234
0.2944038,-0.028847265159577966,-0.0067650029949346165,-0.043140729740895056,0.17238287036924374,0.0417533211140745,-0.09594024304502242,-0.025081667466112928,-0.19460511849545817
0.2949231,-0.006149238570090795,0.015411228093241795,-0.040792649984996654,0.1712088693500599,0.06993012274979389,-0.11798606411663651,-0.02677746398660752,-0.22473869211985822
0.2954423,0.025230669812574685,0.034738352391418335,-0.03008051109028412,0.1640671346840886,0.06425328964713681,-0.13076585226346904,-0.024990461105421528,-0.23900015473742445
0.2959615,0.06220868781536772,0.05471974808537301,-0.015208149108895957,0.15188425025589938,0.011522122710536936,-0.13467099049761827,-0.021838896109080345,-0.23064258208049976
0.2964808,0.08997909165118222,0.06496677770733418,-0.007373905923739331,0.12180572679694589,-0.056863302175238994,-0.11425077409546815,-0.01217964009821935,-0.18091133801901774
0.297,0.11241454696135639,0.06988974094579473,0.02579881567380153,0.12402167434589224,-0.02299618227538139,-0.1050485619318157,-0.014379973702598258,-0.11996921036325946
0.2975192,0.13201370805989665,0.0756187527528569,0.05353920407711435,0.1152773931666921,0.05148061193500028,-0.09615356219418697,-0.013023147395314483,-0.07338352311461918
0.2980385,0.15740731583264658,0.08228339464412472,0.08163815946838267,0.09874135939803172,0.11898602398731041,-0.09458281801405215,-0.017472508154663828,-0.008997147521866141
0.2985577,0.17632835747453318,0.08992716910501093,0.08800528330596256,0.08199838914469278,0.14195801679135248,-0.08978215211902843,-0.02339865844433374,0.03251117795045779
0.2990769,0.1862338749909523,0.09548247500765575,0.08950209997772869,0.06864179453847116,0.14573030000278392,-0.07883001952524757,-0.02871697498538446,0.02823310978628705
0.2995962,0.19050321635757964,0.09775947807885386,0.09688878549694253,0.05591121771753171,0.14649829814547785,-0.06608168061335205,-0.032440369139362886,0.0037182755443556665
0.3001154,0.18929270884481222,0.09100783229087225,0.09828579806128679,0.0357672597544647,0.1457737103085988,-0.052968460348799706,-0.03491744608237264,0.007681709833672105
0.3006346,0.1813778860884375,0.08074796418842743,0.09007783372134258,0.020817126314908917,0.15705961761477932,-0.04930414689293905,-0.033451738164525464,0.029960382862463775
0.3011538,0.16585839067478148,0.06819899985111412,0.07912369073061366,0.007041475268531008,0.19297729414229692,-0.04490951994788994,-0.03080937539880615,0.045967309325218544
0.3016731,0.14977402821012095,0.058404813362431425,0.07292645443979778,-0.005602118049672261,0.18953117270740585,-0.036073189767006034,-0.03189548791842166,0.040960682154732725
0.3021923,0.13968270042204267,0.04761506771045804,0.06915570351261147,-0.022157685332378364,0.14332826063540094,-0.029424554218324947,-0.03702690290446454,0.020611812226005076
0.3027115,0.14438515847392686,0.03999759983821691,0.06410137775414443,-0.03407206410935316,0.11803615216365168,-0.028728808305214633,-0.03970934451942765,7.301063757851937e-05
0.3032308,0.1491284189821549,0.029287969712751657,0.04582748404929832,-0.04601420584032045,0.10270102219074412,-0.016302268009251338,-0.03405721075241,-0.012903526703111678
0.30375,0.14823171091107576,0.017160916195926006,0.016951653578202722,-0.05770880225988014,0.06000596736703581,-0.007366155690870088,-0.01988813978936963,-0.02282880739751762
0.3042692,0.1444184829602802,0.01014761778703321,-0.013105757734667262,-0.07005606195671799,-0.0033072976823013142,-0.017315713564982484,-0.007335491480140101,-0.024098253924152473
0.3047885,0.13902997408385848,-0.004314774406640218,-0.0355812750749971,-0.07465101801399862,-0.05908017507499709,-0.030043464904071594,-0.007511318013998616,-0.030941227862142363
0.3053077,0.1299980697596727,-0.014535190624364916,-0.049173074213617184,-0.07925405948241182,-0.0688875223306811,-0.028147750946547936,-0.011324403125211694,-0.031807026901562105
0.3058269,0.11943824280373337,-0.020091525002276213,-0.05672177658234813,-0.08188450438700318,-0.052549084736040225,-0.0225177857003503,-0.010359712368697382,-0.024970358332574598
0.3063462,0.09716216168427357,-0.028727949475495583,-0.07982922505597081,-0.08909903936473526,-0.03130752569044801,-0.03509275558086898,-0.006412259364341505,-0.02412389052568571
0.3068654,0.08187714518692699,-0.0347903894949588,-0.08835712657649183,-0.09312471928016597,-0.027348825474353047,-0.046174902804181295,-0.003528940248295214,-0.04040251946145641
0.3073846,0.07095108707587058,-0.041749211065481566,-0.07513785351664508,-0.09488387224520822,-0.043967247798616875,-0.04075525669055489,-0.0027553453965831406,-0.05107698839113255
0.3079038,0.06063364810118227,-0.045146403783185504,-0.05852924750752742,-0.09400307137950022,-0.06007256044498018,-0.030563603575667262,-0.004516872166223356,-0.04025625605368988
0.3084231,0.0330291578071405,-0.040969601961450136,-0.04832549680000734,-0.08992530829645913,-0.06040682383750413,0.0029573693035922837,-0.009455443045719745,-0.005699433831424056
0.3089423,0.00490957049685958,-0.03386059064310845,-0.057389462556331414,-0.08780917187473401,-0.04992314241008254,0.029541443305100917,-0.0161404763582919,0.007745070387676899
0.3094615,-0.02648963851824599,-0.02733272255445136,-0.07119635641965245,-0.08538273845119788,-0.04814760923904169,0.04140940410989203,-0.017544961005649243,-0.005055921092944293
0.3099808,-0.044867234527128,-0.025530170729499913,-0.077727058631782,-0.08485466493543736,-0.05170701777315681,0.05033762927050009,-0.012837847162280555,-0.026362622575875586
0.3105,-0.06406659851041989,-0.023435835431940225,-0.0823302367108068,-0.08120750224850738,-0.05148779820119409,0.05170823716050829,-0.009472837680447608,-0.03957112411916547
0.3110192,-0.1073679382691449,-0.017951658510064864,-0.08715974930221199,-0.07394204207599421,-0.04797719038738863,0.042796915038494615,-0.0028923362453524668,-0.04273569680408943
0.3115385,-0.14241200063438594,-0.010797402360106493,-0.08536427926377076,-0.06730620416239542,-0.044773924340807104,0.03880662152293141,0.004972042259160654,-0.02697087728486509
0.3120577,-0.17309606153892873,-0.002386504871343448,-0.0800685289930681,-0.054689904327034855,-0.04165886991831472,0.04129873929737972,0.012759910304311622,0.0019998062519604905
0.3125769,-0.19798865111580982,-9.35588938821483e-05,-0.07439419988421618,-0.035427636654815936,-0.041061325400882566,0.03773952758725804,0.015709229075004466,0.02151459030435272
0.3130962,-0.2110184922920743,-0.002940534171038363,-0.07206913330798118,-0.022617283170277763,-0.04880544166119535,0.019887765999492935,0.011227990736491224,0.011676125770586774
0.3136154,-0.2254966336920432,-0.006553271489441118,-0.06705034122026875,-0.01048157813024938,-0.05226540762258171,-0.004432071583797286,0.00969595204456683,-0.006481956449211097
0.3141346,-0.23235390375589768,-0.009243829838657944,-0.06515991930250092,-0.0049910111634313085,-0.038955216379378974,-0.021013444810117757,0.01458671340714813,-0.016491704435302804
0.3146538,-0.22660512867093344,-0.012369173426742822,-0.06931592148534181,-0.0004727016513947935,-0.025576298134501723,-0.03077800396317451,0.020255230536431686,-0.012798877175813851
0.3151731,-0.20429222931212065,-0.014680512290304239,-0.07505870927352858,0.005250106889187286,-0.04005895326029475,-0.03274968037064071,0.01596229761565871,-0.005105115083878304
0.3156923,-0.1710833554824654,-0.015099573706851664,-0.08047525492659749,0.01563648784343779,-0.07283228725063633,-0.02550170194309033,0.012171495817418613,-0.003269586853425832
0.3162115,-0.15051320565037649,-0.01610489766428124,-0.08244082091249216,0.02285514796217834,-0.09737418734246722,-0.015352121021468856,0.01853526040175774,-0.0052301209124921665
0.3167308,-0.12843870427514678,-0.020620108578275436,-0.08294266285585784,0.02719166428293336,-0.09747146067327173,-0.01440138857365331,0.043237250736044126,-0.005857926428293336
0.31725,-0.11511030309720507,-0.027364860652848415,-0.0826120041177369,0.02295324456483903,-0.056767767317815125,-0.016152592661830178,0.0624991782237466,-0.005770171008804615
0.3177692,-0.10456784012794205,-0.034887693596671224,-0.07674510616081269,0.014980570650890954,-0.029943539196618314,-0.010590384311533207,0.055760579528335824,-0.007571344183591145
0.3182885,-0.0893386198367417,-0.044521180774034795,-0.0664554710775574,-0.00017127323920192346,-0.030937341997453394,-0.004158505220191016,0.028257810464915288,-0.010631016458208282
0.3188077,-0.07613704408643387,-0.05146083637414921,-0.06168169255194849,-0.012895829470152277,-0.03264163621312232,-0.0021776909353730094,0.010647273556586147,-0.013668573556586147
0.3193269,-0.06344127233939309,-0.057336362220859735,-0.05590961899681495,-0.027403543755044057,-0.034408141845536595,-0.018575673819921257,0.013974173932390928,-0.015169754721086321
0.3198462,-0.04334308706404028,-0.065891459513753,-0.04028590185960243,-0.05941522806302628,-0.03167339993958847,-0.039867755342220666,0.022640928872004442,-0.014354655342220673
0.3203654,-0.024908140619657244,-0.06970548122052313,-0.015361791327102012,-0.10166056758161089,-0.020090821715322487,-0.03953641972273656,0.02745603955153966,-0.016571610087787528
0.3208846,-0.012667623058624717,-0.06998367668487071,0.003555417378272137,-0.13726942127757866,-0.012996795939329283,-0.030355969399266824,0.028986073170321053,-0.02213543650447843
0.3214038,0.005216956794733704,-0.07031829124802928,-0.00395394658724986,-0.1542411169173168,-0.020992122758261247,-0.02152828194467622,0.02639178758378182,-0.035288201590072364
0.3219231,0.016369901298971545,-0.07214306133325267,-0.024515106427165867,-0.14995020362402864,-0.031657748717941844,-0.020929781196582505,0.023609644649659856,-0.04515782926503858
0.3224423,0.026101152187685554,-0.07140579478054482,-0.04397769604762411,-0.1359430175528816,-0.0378504188199609,-0.019750224986674114,0.018449130152825753,-0.04530531771279224
0.3229615,0.03580566730153179,-0.06529607579719861,-0.050766699612480655,-0.11165059986867196,-0.03225407925187136,-0.015497256040833808,0.009324689126821365,-0.031830745082258076
0.3234808,0.042071289314918985,-0.05417626812989875,-0.04697184763080266,-0.07974925240005432,-0.016962892723795107,-0.008440938092299337,0.0064720966219808445,-0.025158180922993365
0.324,0.04621793002435185,-0.049647448587149784,-0.04617864417751595,-0.04509929009771753,0.003070245009170709,-0.007655075706425107,0.018116594189846937,-0.02725102496647744
0.3245192,0.049677076121124465,-0.04739773194157544,-0.04719879340713221,-0.025587711401519157,0.013123338534443231,-0.011480032649954638,0.02677297743634449,-0.02876233577592795
0.3250385,0.047439832518720526,-0.04612054879139818,-0.06322809039986386,-0.02819635783348675,0.0024130150402475467,-0.009737542166513248,0.027316864458371688,-0.02838777410616441
0.3255577,0.046222574882448464,-0.04201417050975927,-0.08894823701504681,-0.03820570376240304,-0.01344342059215364,-0.014645698716078988,0.02323328229318582,-0.0283665
0.3260769,0.044911820473600726,-0.038917320514659896,-0.10123345416526668,-0.03775693452293512,-0.01339043738102246,-0.03584662813710159,0.019518600041059174,-0.024962141029319793
0.3265962,0.0424748353699626,-0.034737214956109486,-0.1034075390296229,-0.02515227795540151,-0.010687301925070634,-0.0485084,0.0186439830149756,-0.018545309307884894
0.3271154,0.04292350363684111,-0.030205640477961378,-0.08751825293947392,-0.011895721433884128,-0.017096928989802036,-0.04777695223980174,0.02361690826414475,-0.009925961764145346
0.3276346,0.04297817290621506,-0.020761177751115828,-0.049560078537667064,-0.00199186073116647,-0.02636118299853377,-0.03541313362813997,0.03828009999075844,-0.005429148967876622
0.3281538,0.052904412297846815,-0.018875096925538296,-0.009181237157636586,-0.0033588669095393686,-0.029185973720272276,-0.03093211844677022,0.05064641537230852,-0.011009757024344756
0.3286731,0.05503322055156691,-0.018342894862108272,0.009578766677006476,-0.006285978258404501,-0.022267426163192158,-0.034125330827350364,0.053307425689458635,-0.02325032521572512
0.3291923,0.056252886239785894,-0.01895822928927899,0.009946473744278967,-0.010306034568583134,-0.014950293119892946,-0.043860045127191424,0.050753061920963495,-0.03985045871935767
0.3297115,0.05738211668510098,-0.01853472582468212,-0.004168822726952182,-0.013552530051260293,-0.015514908342550489,-0.05444653850441664,0.045671524917045604,-0.04323815005530293
0.3302308,0.05844979038649109,-0.01802469837196081,-0.024388317394906253,-0.01863304389541036,-0.019266166378506543,-0.08255412446432019,0.038088360833980976,-0.034448802544094964
0.33075,0.05987037852002035,-0.01641285297380899,-0.04723496914542264,-0.01774859159456718,-0.02366161263956093,-0.13460138799969107,0.0289616810406586,-0.03043614557979064
0.3312692,0.0603679746495726,-0.01410065480590946,-0.05499877349454659,-0.0130344746495726,-0.023411164981070615,-0.16096601678026837,0.025438965009412146,-0.036722287888128535
0.3317885,0.0659662292436263,-0.012818966123790798,-0.057006321404448175,-0.005557323264234461,-0.026919453702689757,-0.1463382512117118,0.02400164161406736,-0.03585614629731024
0.3323077,0.07386517923224069,-0.00966671225136722,-0.06704761706219924,0.00769232423626151,-0.03928588433896071,-0.09103072401477987,0.020172627645933586,-0.010386867084694875
0.3328269,0.07912927867255412,-0.007653922227237144,-0.07912408048409475,0.021626612866717757,-0.05925845080084553,-0.05820770022180767,0.016147139838635083,0.009895260044482032
0.3333462,0.0862060332369622,-0.014308622367536076,-0.0826889622281044,0.03782682599067812,-0.07256927612922896,-0.04767787129196535,0.012578532928626143,0.008687231111049272
0.3338654,0.08865049025440921,-0.02329150778079797,-0.07509945890972232,0.04392553316181637,-0.06735551774561295,-0.0426784686553131,0.011625354982407491,0.001652317819444625
0.3343846,0.0896629539858592,-0.03358207840633676,-0.0680389779473924,0.050231367940417805,-0.05252462159366324,-0.012881413972845653,0.010810523007070404,0.0018014751022910277
0.3349038,0.08716336003863621,-0.040842365575524196,-0.06241798365579114,0.05364843709082157,-0.032040186929218534,0.02130543848625313,0.010277327151529738,0.00916003975716735
0.3354231,0.08111822507459014,-0.03870969311982416,-0.05514460789445396,0.0488666587595518,-0.025181438596302643,0.053476389260744016,0.012502730701848678,0.020264778822472723
0.3359423,0.07167901707133766,-0.029708807943760067,-0.0445223381870793,0.038789997363952035,-0.024812058584963968,0.09853137967334767,0.015508971039088574,0.023552753348484216
0.3364615,0.06272199131368203,-0.01838102867460383,-0.029543606418580604,0.028326367546592214,0.0030960215177119332,0.14788953547554096,0.016672906792894873,0.018579797732262624
0.3369808,0.05267939855767022,-0.011991781797070009,-0.020376005128784198,0.020325876968597896,0.04308021770144724,0.14538015309549018,0.01729953446204744,-0.0009448768383972356
0.3375,0.040137533904470384,-0.01742274341649423,-0.02556404807004904,0.010428608447252815,0.057542800155659025,0.09312392848051387,0.017887785407644175,-0.0279723704547151
0.3380192,0.027075260925058256,-0.028982556856951735,-0.04089051448995397,-8.132545029165791e-05,0.027974434460076785,0.04894507705636661,0.016483346752570672,-0.03540701315779777
0.3385385,0.010823325558550746,-0.04801403761248217,-0.053210386445519696,-0.011304050008310165,-0.018821857177307864,0.0347448,0.013932593222759849,-0.020920863546170138
0.3390577,-0.003768603049984897,-0.06703298699706203,-0.04627874783083371,-0.020559271199396743,-0.0428236387409734,0.03465408258605213,0.010517801616282582,-0.01910756304530652
0.3395769,-0.01638659043432474,-0.08757380928065298,-0.03512805569372824,-0.03347061273896824,-0.05265388753215236,0.0299590175128094,0.007583385945505875,-0.04375647985613883
0.3400962,-0.028817394046168798,-0.1078247083731608,-0.029949947916219834,-0.05120264109852547,-0.06513630201667028,0.024142375014737393,0.002151757442187744,-0.07181055771062729
0.3406154,-0.03784736104822779,-0.1170475953485974,-0.03147776980435284,-0.059217510904375895,-0.07128636747865155,0.012065511081826345,-0.00011034632683321375,-0.08167642293083949
0.3411346,-0.051239252946659576,-0.12586243058933191,-0.020617149776028954,-0.04917796212403534,-0.06388650645468724,-0.018982044049967853,2.9274223327013517e-05,-0.09592963334398978
0.3416538,-0.05668101324740019,-0.12695078264948004,-0.005108213969860994,-0.028771442047200817,-0.048105401582539425,-0.0369397719914691,0.0015257177805592767,-0.1004190450666294
0.3421731,-0.05859511074961537,-0.12744892373206043,0.007035535637513895,-0.013809449657527333,-0.02733224174684052,-0.04141106839667599,0.001850241805975381,-0.09086964575146299
0.3426923,-0.0572366,-0.13449674602087597,0.0027662104510690014,-0.005813086033892062,0.005264103985157547,-0.03848724110754825,0.00010576868295009037,-0.06684846216398121
0.3432115,-0.05371574906691632,-0.14928659524348745,-0.01697111395335029,-0.00335561697769456,0.040526748774823554,-0.014965247846836952,-0.004862267910778241,-0.03613677244729465
0.3437308,-0.04948129764114615,-0.17224395064619352,-0.03839272623590698,-0.001695551179426925,0.04690549896066417,0.019823351179426924,-0.0090929912066119,-0.01611185682767656
0.34425,-0.046174444793593145,-0.18602242208917147,-0.05299791089077319,-0.003348977603203426,0.03257588537642738,0.021476777603203427,-0.007852962433025967,-0.014596174894968322
0.3447692,-0.040879955274025936,-0.18886589089281197,-0.07090932572685084,-0.0304523963469459,-0.021708974080431764,-0.005741859351611266,-0.0061878600720431925,-0.022181038847308918
0.3452885,-0.03274237816838374,-0.1690954503053547,-0.06491526559548431,-0.06968942495025397,-0.10776893461037831,-0.03286326821207897,-0.008801488934382035,-0.029165208648007444
0.3458077,-0.019969473374096804,-0.13730075835417782,-0.06743265524412403,-0.08210856940510437,-0.16074116288729273,-0.051010560904441005,-0.010346858360354734,-0.019980332582480297
0.3463269,0.003217072615561427,-0.08028671950415163,-0.05334374822676271,-0.05572241134202555,-0.18236541968841125,-0.0696471606852454,-0.011255357383154224,-0.006402683957586984
0.3468462,0.023554156338749133,-0.02901430903220237,-0.021262750801122835,-0.023927852917076872,-0.19153146771052917,-0.08626062272533414,-0.01469262539144844,0.005054790744173995
0.3473654,0.05003989698005731,0.026628558984849962,0.0025559461623611028,0.00034858741854493615,-0.18102732921642115,-0.09605860247825031,-0.019402628313431543,0.00045409419083312767
0.3478846,0.07793231849323091,0.06723037667405603,0.02734032409248589,0.007846683314605016,-0.12700575917980894,-0.06896717113817831,-0.017677663667710165,-0.02721543358884731
0.3484038,0.08757391043330734,0.08275835671546217,0.05270579346983201,0.0030638868997536622,-0.04196800754267711,-0.01894135055974796,-0.0054379267052339095,-0.05029819491028831
0.3489231,0.10962579046221185,0.10682156816132236,0.05865634580095996,-0.010084908398080092,0.05789551231219312,-0.011683895005651816,0.01306580391411303,-0.03520447991392297
0.3494423,0.11240538166125025,0.10711283840374689,0.04649067183432555,-0.03875892541606346,0.09791323313884268,-0.03380084565641184,0.03374246466782272,-0.006592559989417504
0.3499615,0.11332932582050566,0.09525720186474061,0.04506651538313789,-0.07576043439313282,0.07639948303372911,-0.04341075004474586,0.049583409042095426,0.017999513607889
0.3504808,0.1154951765636437,0.08008753668699187,0.039264942805323284,-0.0988970489802781,0.019176975216109924,-0.03946115391210709,0.052702515382989035,0.020147809171747966
0.351,0.11435016411870354,0.0753336578327526,0.017237704299178213,-0.09632115662717769,-0.03725757573613838,-0.023574773498257793,0.0446468428497009,0.013954691567944233
0.3515192,0.11230543702740566,0.07731415768296496,-0.0014815922284343087,-0.09274926347555257,-0.07702045271909233,-0.014945927924166753,0.03414508513702832,0.016167052393335574
