Time,Rectus Femoris right,Rectus Femoris left,Hamstrings right,Hamstrings left,TibilaisÂ Anterior right,TibilaisÂ Anterior left,Gastrocnemius right,Gastrocnemius left
0.0,0.0056916829727060485,-0.013007938422833777,0.028190223559303534,-0.015961120202235588,0.08551240101117794,-0.036483968109175806,0.013337201011177927,-0.03087705306351925
0.0004655,0.004727788527699521,-0.014640030592801277,0.0426089931075537,-0.014775486615649442,0.08996656429328849,-0.03440649457972194,0.009283428547237182,-0.028658208537468352
0.000931,0.004461645170232697,-0.017869282405530144,0.037789636568829985,-0.013875296136186157,0.07390300791198455,-0.0411231,0.002908084866503012,-0.025337465018367856
0.0013966,0.0029736391949448443,-0.019481566267463248,0.015054732774448545,-0.01258347220891544,0.040472611164338236,-0.040851254863602963,-0.003488205462408091,-0.021520782295017145
0.0018621,-0.0002789804809618942,-0.019868551352987037,0.0052480237218748985,-0.010192439639707793,0.00598977567649352,-0.022231193089472273,-0.01085266216175324,-0.018286059160462755
0.0023276,-0.0013541480801574017,-0.021996137922742076,0.00018598058300435479,-0.0067611958655078705,-0.010320741282098235,0.00564936452536487,-0.015875106798059167,-0.012711611923147353
0.0027931,-0.0008851242965365411,-0.02314350188353312,-0.0339355601129426,-0.004074319527313117,-0.013693329509691751,0.025722159717955596,-0.014430328458589792,-0.010191854596202308
0.0032586,-0.003054469851894147,-0.021745132990745774,-0.06738001468244799,-0.001957779250595845,0.002550599389723407,0.026635623226320286,-0.012733709764425486,-0.013736775588936288
0.0037241,0.0003199733612779942,-0.018194673005923236,-0.06625524740064649,-0.0017124539881535293,0.017533782692627755,0.011112041879488305,-0.01014247681611481,-0.017358586858458664
0.0041897,0.008186516110204423,-0.014092036651165823,-0.03889782882949477,-0.0006633530783534758,0.027934049079543253,-0.009671514269290925,-0.00721900690563693,-0.020557519334014358
0.0046552,0.013308242365081812,-0.014296693316033069,-0.028926873004628307,0.002458713367933862,0.03942459583681726,-0.012740068971197553,-0.00175392205367705,-0.022526884470659654
0.0051207,0.01889632043369335,-0.014315428441692644,-0.055448264393422216,0.0035176389237798348,0.05276553138122424,-0.0024936296624772595,0.008183532634527521,-0.02520767575114223
0.0055862,0.01977816180784163,-0.012093847751258411,-0.10506495224874159,0.004714175168460791,0.06558563269605999,0.006775474951220035,0.015305728872419981,-0.025364603389158507
0.0060517,0.02009296739704214,-0.012902787453353529,-0.12674311654647802,0.0038794117830723888,0.06512590276348985,0.002409638876281097,0.014500240403429262,-0.027375609409984854
0.0065172,0.028302665108927195,-0.01041639842381177,-0.10828218611899305,0.005576486150935562,0.05574673583461009,-0.0029755122409337,0.008640746371585527,-0.027756160252592473
0.0069828,0.03515100050007208,-0.012934121344035363,-0.05686019633928971,0.00426224795016894,0.03186876775393663,-0.00458123952743252,0.008180806781297066,-0.02860698801772497
0.0074483,0.04115378510956278,-0.015526304525648831,-0.010379685766308145,0.006126710204359184,0.002293124438051038,-0.0036159372260930337,0.026344863926968488,-0.030342573138695348
0.0079138,0.043522042316851216,-0.016495026254742126,0.013545664368564258,0.006676892498645106,-0.012566907257895013,-0.004953749818206108,0.06155928312195149,-0.029922926254742126
0.0083793,0.043318333617790035,-0.013954649774413875,0.017582849889067005,0.007627616041970708,-0.009987440080439568,-0.006104562585059814,0.07963414376293658,-0.02849052517011963
0.0088448,0.04391447750784783,-0.012831934078682824,0.018517003750359022,0.00772349026323348,0.001038785740305761,-0.004299587244614344,0.06391412809227533,-0.026259834078682823
0.0093103,0.04589021422152565,-0.013372596049142767,0.010395746002416788,0.006832000438984138,0.007191706145777921,0.0005773201023526951,0.030404705706793784,-0.024090890342348983
0.0097759,0.05103911777475774,-0.016899624406627352,0.0012812478203136856,0.004449462262304346,0.006915703332767076,0.0068519288756429195,-0.006259636652099429,-0.022022199966335462
0.0102414,0.05103947358415406,-0.018469157988927804,-0.018813837127403952,0.0022393997963334787,-0.0014857103711076506,0.005567015654880535,-0.04521143670259562,-0.02250644207072647
0.0107069,0.05224626721110794,-0.014732742308444008,-0.03116490581733503,0.0015359463033232403,-0.03220012702886236,-0.002355937752304518,-0.08054615242440091,-0.023683210115956893
0.0111724,0.05017034059752648,-0.009756131904469919,-0.02014456553753143,0.0021385328537530477,-0.06751449827140842,-0.01145983631093623,-0.11212416582738216,-0.025534787200281326
0.0116379,0.049708404628405756,-0.005619347305048313,-0.006472043485911813,0.004460802750747492,-0.09968452908226834,-0.01855095269495169,-0.12361277227715041,-0.02717515871468618
0.0121034,0.05034331981871943,-0.002174437112762997,-0.007880064178491637,0.0041455716917076,-0.10726200240603083,-0.022583565460603736,-0.11367192349623073,-0.029041693896683693
0.012569,0.048071419279277244,0.0003452087349730686,-0.025382224974026462,-0.0015402088388672196,-0.07524189467590084,-0.02085869467590084,-0.07817335819343336,-0.028212407770836233
0.0130345,0.04782163391703793,0.005046075086015431,-0.052432146374030215,-0.0020384198475568603,-0.022158081383824073,-0.01501919384081636,-0.017475818459027858,-0.025938237213828784
0.0135,0.047905117494918534,0.00940995512076067,-0.06998901684463879,-0.0028538200611515213,0.023259054276978355,-0.002429037397453534,0.04614504656680396,-0.019939991252540732
0.0139655,0.05041874230025133,0.00818290157833489,-0.08206513920572046,-0.004018119571790777,0.050036259855273824,0.012592344693314092,0.06858924874132971,-0.015700696905469137
0.014431,0.05370840160153778,0.009800286499038887,-0.07785785580929624,-0.004990976201153336,0.058017976481984174,0.018788632495194434,0.03146883534052233,-0.014493389702114449
0.0148966,0.0543192365293896,0.007395613079871292,-0.07706459968049115,-0.008035173106266029,0.07067791528184546,0.01080207127128756,-0.00576657127128756,-0.018374388091743
0.0153621,0.058502244758410274,0.007146857235922138,-0.06521507460821419,-0.008298702505849773,0.08158793337868839,-0.00694531643358552,-0.008045806921703785,-0.022720470703877532
0.0158276,0.06067430225196936,0.005906372766087727,-0.04546977158153086,-0.0082246,0.07309836179195177,-0.027352976202613954,0.012238655652381414,-0.0261780997865175
0.0162931,0.0595764062573527,0.004672791854908023,-0.030225286743875424,-0.007624041243901183,0.05272764442934772,-0.04428766375359105,0.027943044353654137,-0.029568418696364528
0.0167586,0.0560193864306632,0.0034318652791576767,-0.043330496187118886,-0.0082246,0.04480132768473669,-0.04790943460083695,0.027629882191724367,-0.030519604468579303
0.0172241,0.047785121859192745,-0.0003273937956618361,-0.06186800265900207,-0.009624401179922115,0.015395009899849158,-0.05683250265900207,0.03507655420978862,-0.03353879468199586
0.0176897,0.04217790966619648,-0.0026904942002821137,-0.0596621425312645,-0.010392296193909559,-0.02255649481962285,-0.05526022126563225,0.049362482600846344,-0.03545939426067026
0.0181552,0.03908815412522867,-0.004589984988830162,-0.045884673238750354,-0.010259543402964496,-0.052180718510792305,-0.048284360372033354,0.054836912866717,-0.0359487437303185
0.0186207,0.038654425189809466,-0.007301609297973962,-0.03480062713468403,-0.010990544940209575,-0.06857518338010488,-0.038727430993248636,0.052942468216328996,-0.037199652324493494
0.0190862,0.03906259819542692,-0.008943519721483472,-0.03349459809242931,-0.011078,-0.07445449734365515,-0.03436971389577378,0.05128659809242931,-0.038680601907570694
0.0195517,0.04174005336673499,-0.01066774912734726,-0.032556533915101826,-0.01028930758919923,-0.10027283298626706,-0.032976983898178346,0.05350349152122454,-0.038041187281836815
0.0200172,0.0392708977498902,-0.012810046643362716,-0.031761617785545766,-0.011505364428908475,-0.12883701757720947,-0.03319598789181283,0.07095906657485014,-0.033985465606047455
0.0204828,0.026557599008957263,-0.01591280499786732,-0.03321770249893366,-0.012776961999146928,-0.13938402597349478,-0.03936037475568159,0.10936218443312713,-0.028358571003838828
0.0209483,-0.0034623851301615,-0.01952591852578542,-0.027941300976463263,-0.01446290736914527,-0.1397494157890503,-0.05647439569372013,0.14724092413465883,-0.022619822372459377
0.0214138,-0.03224544114148719,-0.02026170904739364,-0.010744947397484335,-0.01261822238096972,-0.1435515761903028,-0.0704274018725476,0.12866612571345346,-0.01912221787287722
0.0218793,-0.05678395603485369,-0.02097059403924476,0.012245621671021478,-0.013238888078489521,-0.13604454305812574,-0.07725122847093713,0.06864062026402665,-0.016345035764531436
0.0223448,-0.06263888244722383,-0.0201650377016182,0.03516398914774176,-0.013051990646145034,-0.10970770900040255,-0.05909772770811248,-0.0037292872485978085,-0.015561745900539402
0.0228103,-0.05711954920038156,-0.017329118302886987,0.05182593915551587,-0.012090526788452042,-0.07607036883502542,-0.02862216744638261,-0.0434239362245221,-0.016349474924556722
0.0232759,-0.05497088495320057,-0.014375961737176805,0.04653864617371768,-0.01137923852115304,-0.06673553370885803,0.0006253705867772779,-0.07593532647833968,-0.013146630868588404
0.0237414,-0.04791685303702334,-0.011097198866660503,0.038463727027529176,-0.012190667044446499,-0.08479771412272764,0.02913730464866248,-0.11411708128247865,-0.0129244
0.0242069,-0.0417152114328634,-0.00831814472461491,0.018895347246149094,-0.0125887,-0.10803821826763234,0.028142933736725422,-0.11074332274883593,-0.01820867561957771
0.0246724,-0.03701317906650579,-0.006827892337128684,0.004451038505693025,-0.01257522308428217,-0.10164555477171618,0.007959360379467756,-0.07173839571520182,-0.023882330651485265
0.0251379,-0.030985733408110144,-0.005502129671172302,0.002631998019365861,-0.01224562593423446,-0.07561902582956898,-0.014484775493073317,-0.025205052197464845,-0.029056335164413846
0.0256034,-0.023061673283243184,-0.0035454888558022753,0.013240916945759455,-0.013529426716756816,-0.05671429969481656,-0.018480039694356333,-0.02623423358888685,-0.03105727221395057
0.026069,-0.016877147058122204,-0.00024354366954955266,0.001481452365322154,-0.013148989706408347,-0.0450135019186273,-0.011563871324143072,-0.07018203294453472,-0.02947585059182731
0.0265345,-0.009537095307501449,-0.0009517161487831426,-0.03575424838251594,-0.013227446924985512,-0.05222095362493807,-0.006191770566319908,-0.08855446373870038,-0.029222076537507243
0.027,-0.0001082990588011539,-0.0033274192083379145,-0.08332240960416896,-0.010534940676866635,-0.06669517335025914,-0.009942856024318918,-0.0621823939750138,-0.030143690395831042
0.0274655,0.006372274243680593,-0.003773637121840297,-0.1125927479842006,-0.00889624281119111,-0.07780748114542015,-0.0157835829451283,-0.03288130086436503,-0.031005850216091257
0.027931,0.012105651743592377,-0.0035375155828748788,-0.11328549199043238,-0.009529268397989865,-0.07760986276775989,-0.02027685412293003,-0.01165732030522569,-0.030741823592442506
0.0283966,0.016892373781505536,-0.0032537223319354246,-0.0841411763725449,-0.009870832209030931,-0.06328339611344096,-0.01725995245028388,0.002809771485272083,-0.027068180259103937
0.0288621,0.024296023402599533,-0.004441572232469555,-0.05118372341875143,-0.009808655850649883,-0.04346673980057109,-0.008121923087010539,0.015262937136646204,-0.02356922575093543
0.0293276,0.027562275967429748,-0.0047053348928088904,-0.03732969866330666,-0.009205112196931974,-0.031176618351623577,-0.005732003675906672,0.03020311019189197,-0.02283303489280889
0.0297931,0.03279323446485137,-0.0013802120958127527,-0.04725159335648009,-0.008896,-0.03135745865647688,-0.0018640801590038161,0.04848214536943706,-0.0223239
0.0302586,0.0370604150247641,0.00493777900744918,-0.08143404440729195,-0.01072520751238205,-0.028628577282999612,0.0038245431699884974,0.06488222426159572,-0.02415310751238205
0.0307241,0.0374304,0.012019879967742187,-0.12143627449851035,-0.0109102,-0.0214114529446124,0.009580408835090235,0.06471978608418506,-0.025602671132651952
0.0311897,0.03558094379959068,0.011373379579736956,-0.1301329452777078,-0.010664648918608313,-0.023473977361146096,0.005675831401602376,0.04301139638700324,-0.02619376860122796
0.0316552,0.0385494984895859,0.007654546036709043,-0.10374424101988855,-0.012039950942462765,-0.040691527924108246,-0.0024855933203875094,0.011800123018354522,-0.02601391143298831
0.0321207,0.048165010966508666,-0.0001425666859613563,-0.06799654428054731,-0.011794238806052938,-0.05682941873823121,-0.014446355224211749,-0.01757533376891543,-0.02673143424663645
0.0325862,0.057204799885001066,-0.00370508408856417,-0.049270231763189495,-0.008937604020437884,-0.05633231585175367,-0.022681696209559985,-0.036975627742751614,-0.026846287879004182
0.0330517,0.06286834212608049,-0.0036903506168023746,-0.039592566364641396,-0.006909984202719816,-0.05127385524103948,-0.02066428946847988,-0.051668111980236575,-0.024711378936959752
0.0335172,0.06936357478021535,-0.0031891,-0.02483833329674686,-0.006131147246642739,-0.05022877478021534,-0.01216925043956931,-0.06727245862629094,-0.02036811536324959
0.0339828,0.07421153858682718,-0.0031891,-0.01797042468559615,-0.005592484601463646,-0.05507673858682718,-0.002473322826345644,-0.07616031204198051,-0.018482796105122764
0.0344483,0.07846657681281922,-0.0028660964522447528,-0.016280500316774884,-0.004894592270939742,-0.06534908390832972,0.013208618528092408,-0.07358962768526067,-0.019101957334402175
0.0349138,0.08076330800205346,0.002438666972851588,-0.00905408049239517,-0.006120624353764213,-0.07265722919992361,0.023566196172775184,-0.061534326938707355,-0.02280858696147018
0.0353793,0.08246130326479761,0.007507005604228164,-0.0004382955840703858,-0.00835075456597863,-0.07397660916912381,0.02615185248947956,-0.052106484075516026,-0.02476841592448397
0.0358448,0.08288878986072098,0.01179097287844186,0.00965044689721574,-0.009521462864887949,-0.06075437883256016,0.021015651711002017,-0.05133181140533616,-0.02564261905407329
0.0363103,0.08003934063349125,0.012027690502314793,0.010506624538540644,-0.011151814407266744,-0.04015168902254241,0.00663770891853795,-0.0740215,-0.027566352769243352
0.0367759,0.07480925141117759,0.008349364967320897,-0.0014011748850351973,-0.013497952409838497,-0.03257358917043858,-0.0072666729745271596,-0.10825319754281897,-0.029496777707390356
0.0372414,0.06853045573348643,0.0025345095141707397,-0.03068495863897691,-0.018034202053209047,-0.03877916159248152,-0.02045839053603273,-0.13193677270861887,-0.029854415322962367
0.0377069,0.065407754799794,0.0005035,-0.05393122016004799,-0.020793058582860572,-0.03920909742873172,-0.025926830971434285,-0.11832884672030802,-0.02956174141713943
0.0381724,0.06406155347389292,0.00046559855250416954,-0.06619219739470168,-0.02157679710500834,-0.02759765628543175,-0.026260269312894224,-0.09195430128059019,-0.02866429855250417
0.0386379,0.06357846854100623,-5.077790157687314e-05,-0.0675417333444605,-0.020853684467328916,-0.015989948328049824,-0.01554761768974075,-0.0671722547717532,-0.028402931458993773
0.0391034,0.063087338739353,-0.0032660733287877444,-0.06260757117547106,-0.019863764093453574,-0.01436324504258797,0.0033140958500817294,-0.04640735900803767,-0.028894061260646992
0.039569,0.06258726923540718,-0.006703502528545007,-0.05795603822584303,-0.01998094358819761,-0.018336661529185654,0.015644217940988046,-0.0335050180012813,-0.029065274352790434
0.0400345,0.06161875681815229,-0.014128764394165747,-0.05230643054274579,-0.0203037810606159,-0.020273686363695413,0.017258405303079507,-0.022528543939059332,-0.030356624242463607
0.0405,0.06046691559913406,-0.023692064204762664,-0.04981952889978351,-0.0203098,-0.016312991661652742,0.008794620926769239,-0.020639183670199974,-0.031466982467714316
0.0409655,0.059188592644924876,-0.030588057850250414,-0.04946366053743739,-0.02032016789251252,-0.008135219495426482,-0.0021988083454257045,-0.027277711822336844,-0.03228412186459895
0.041431,0.05747927067621882,-0.03628579774593725,-0.04803922556351568,-0.020605054887296862,0.0035450624271644166,-0.01188496616809332,-0.03425740076276966,-0.03385095790412927
0.0418966,0.05470182126301505,-0.041815848421231185,-0.03750138084860829,-0.021644060631507527,0.018385262097296004,-0.019816874846553072,-0.038428960631507525,-0.035429009052738714
0.0423621,0.05331516112224659,-0.04337143923729459,-0.014271767693819581,-0.020696846805336074,0.02567017507961591,-0.019548709106296292,-0.03701460117871363,-0.03634205623009602
0.0428276,0.05252069301794439,-0.04255832027513298,0.008444942563367518,-0.0177769116150078,0.027880025579119026,-0.00992308137030926,-0.028892018564436083,-0.03529957673735707
0.0432931,0.05214853369999286,-0.041805013260001425,0.021327725420024268,-0.016176267399985726,0.03092594087998287,-0.00017831326000142755,-0.020592521539970023,-0.03435653369999286
0.0437586,0.05075375088310789,-0.04208396982337842,0.026069986997433157,-0.013386701766215791,0.027578462119458948,-0.000457269823378421,-0.01473443370905316,-0.03296175088310789
0.0442241,0.04657389461134744,-0.04263868306808356,0.02206123728925748,-0.008756356915500195,0.010953206119750881,-0.013622608489568602,-0.011458480373757284,-0.0317235
0.0446897,0.0432988856229131,-0.04055452999926434,0.016553162810090317,-0.0069699399993694315,0.0029143299971624405,-0.022554604379083704,-0.007736822810720886,-0.0317235
0.0451552,0.040909184192344045,-0.037615327461840264,0.014573065701342302,-0.00550747379565828,-0.0027595856181912917,-0.0215875831031942,4.7798574152754575e-05,-0.03096005924550087
0.0456207,0.041326650516899835,-0.04135335374598106,0.01684368275041203,-0.00426161198713938,0.0028921224758863373,-0.014082997003215155,0.0017191607391184457,-0.030275253745981057
0.0460862,0.04074094832134582,-0.04980046347763346,0.016524196642691627,-0.0006323167865418671,0.026964366115690627,-0.004577424316285727,0.007042231534803946,-0.02975575167865419
0.0465517,0.042099668890575585,-0.060871934204839925,0.011696091660341565,0.0016365208613864297,0.07009190404200359,0.007640835872771611,0.022808276989786148,-0.028397031109424417
0.0470172,0.04388554348617405,-0.06637481079320054,0.004224526055303791,0.001071365105417307,0.09564806867504588,0.01758130803853129,0.04875832378801027,-0.025991527816591135
0.0474828,0.04275485735596835,-0.06812444873562727,-0.0030977548272229103,-3.9261209896288436e-05,0.12534520389317988,0.023817569539159616,0.07422870625532937,-0.023369241152253185
0.0479483,0.040564813906259184,-0.06289865951681822,-0.010587017410688048,-0.0014459634821376095,0.17830126763245122,0.01893831864628381,0.09147052137600745,-0.022675759129465595
0.0484138,0.03721533716097132,-0.05289871148291396,-0.02320828238190925,-0.002157872567805736,0.24113152593188555,0.006009484927788148,0.10282919736879464,-0.023630508851708604
0.0488793,0.03548254460558426,-0.03963965289206129,-0.03914339178639111,-0.0015371378422337036,0.25805196606548964,-0.0025216809246914897,0.11418986063463983,-0.0243115621577663
0.0493448,0.03472287142334977,-0.02220699663717732,-0.05352937140507394,-0.0010581571350246454,0.21606517565975852,-0.0012916537356503135,0.10705482335970927,-0.023819935720812795
0.0498103,0.03588847185608427,-0.010551079113558202,-0.05877457335237924,-0.0028065577841264134,0.17352102027612684,0.00045666010972545394,0.09204776119011543,-0.022362935179894655
0.0502759,0.03571274269748342,0.0034240438150995073,-0.060618771718448254,-0.006249557302516584,0.13931208687220442,-0.007746188729233617,0.0815299487971239,-0.021845571718448253
0.0507414,0.03322245304045571,0.018433105181551248,-0.06186854795836992,-0.00881839541157311,0.1295693255214022,-0.019572442371117407,0.07539917268771684,-0.023645207179202515
0.0512069,0.03166178217625238,0.028264162790223722,-0.061730673920841264,-0.010372518887317357,0.13285099043166348,-0.025208255847737986,0.06182456340978751,-0.026455163039579368
0.0516724,0.030833982672197245,0.03501660463533306,-0.05818745775934252,-0.0126755682941134,0.13207341202395317,-0.025171386762517352,0.02441474667955869,-0.0280308
0.0521379,0.03558354950674304,0.034918393210961574,-0.056675873678990595,-0.013697452958676241,0.11167526256633302,-0.01926773038016202,0.005001544601999926,-0.02726831828099052
0.0526034,0.03485817987047092,0.04170495581596875,-0.049443517843219834,-0.012567678112817358,0.08167507609083595,-0.01223515941938516,0.01357031986520124,-0.026507456137525434
0.053069,0.0324034278196065,0.04676460771202632,-0.04496852249895532,-0.012666181842508745,0.048570341337734906,0.00026609380222307184,-0.028926606834900573,-0.026134185213071
0.0535345,0.03286632326021483,0.04642274032683689,-0.04232296043871099,-0.014538646520429672,0.017023883273077262,0.005230024621460928,-0.13671479499902808,-0.027796892445161127
0.054,0.032222168235295515,0.03644207807196254,-0.03542896837692682,-0.01281475099943251,-0.007481521503143549,-0.005164251565957723,-0.19485496523129928,-0.02822305598172562
0.0544655,0.03679776388925556,0.035296031943307764,-0.021431645831243303,-0.020709459839912587,-0.0254518001180937,-0.02027645602675702,-0.19007087036084852,-0.028321922104715194
0.054931,0.039730187210573586,0.026205519647221873,-0.004716832899730539,-0.025547914643838876,-0.03351592057546983,-0.04314918322804382,-0.15693466153494862,-0.024949678961447917
0.0553966,0.04268244954203654,0.015706215973475535,0.017692994580179748,-0.028911304856734828,-0.04660708444661728,-0.06444445298701033,-0.12161734574422124,-0.02081677656500147
0.0558621,0.04266619426696616,0.008433332222802563,0.03589436375097128,-0.028256485362868695,-0.06788867017512157,-0.058271922768089277,-0.11878502092078096,-0.01988382037016514
0.0563276,0.04065046071699392,6.784383923216547e-05,0.05639200412546891,-0.02101784094533383,-0.09380375629589266,-0.02408842213499467,-0.1060346388326961,-0.0201790956591525
0.0567931,0.039876381887481036,-0.003476179605414496,0.06416502442828141,-0.016270216095671003,-0.10283003588253457,-0.005517905403709287,-0.09085736681932007,-0.0203218066582658
0.0572586,0.03771574954700608,-0.008486385742396046,0.07090511392944056,-0.011465250781157312,-0.10949467428125795,-0.007915595313056124,-0.06318098242099447,-0.018390686070559444
0.0577241,0.03520339436115347,-0.011501266766615845,0.07145879436115346,-0.010291998240131073,-0.11386798620273118,-0.014678444211229694,-0.05067848378377497,-0.017730602819423267
0.0581897,0.032442654083112234,-0.014814151183938532,0.06847894212648475,-0.011110871036181476,-0.11678976297820061,-0.005962347393535517,-0.039810917646731274,-0.019247917115434644
0.0586552,0.0291934904970218,-0.020432577105360762,0.06487583396161839,-0.012654182909234124,-0.11818631285089345,0.008167191199400963,-0.021194199297620835,-0.022454895088083796
0.0591207,0.026586005891820634,-0.023433004053534136,0.06126316555974377,-0.015947534440256237,-0.1171244462238975,0.011179126888051246,0.003470877915199662,-0.026623061328307482
0.0595862,0.02337055180007278,-0.023335394644452532,0.05695363573343037,-0.017606621422189876,-0.11434045715562025,-0.0039940476642823085,0.04347770981828584,-0.030171150223151588
0.0600517,0.019461306827319128,-0.021245377399535702,0.0513720790776694,-0.012604279597379073,-0.11052990137861063,-0.022644120402620926,0.09190399291282604,-0.028830642523043782
0.0605172,0.018804926460734513,-0.01989883969110177,0.04886720584293805,-0.006624165379590709,-0.10806885983683964,-0.027601164238642128,0.1213350447966338,-0.026450666151836284
0.0609828,0.017832710181599747,-0.01772189861524867,0.04098586738193639,-0.00042832964066312365,-0.1040778141279559,-0.030929979156185294,0.12412201551270723,-0.024100098615248672
0.0614483,0.014401910327187926,-0.017198319039846418,0.029953887553410444,0.0006423187624321114,-0.10303667266004854,-0.035854449054028126,0.09383610553355605,-0.023413898662884878
0.0619138,0.009070786333832327,-0.019338458592481705,0.010614072677667544,-0.010246807931177944,-0.103563,-0.03852288985262806,0.05088790876921428,-0.023648820703759146
0.0623793,0.008619643664986871,-0.01951390584955372,-0.008592879274639765,-0.021890784157517742,-0.1053225578055333,-0.0339380487792805,0.015068595117122024,-0.02400775610359747
0.0628448,0.006606555631879446,-0.015202271703294645,-0.02577608435443234,-0.020610771277447107,-0.09995904458104432,-0.021109716923110276,-0.016987517994477723,-0.02358309903846874
0.0633103,0.007086239199671667,-0.012646782400985001,-0.03350494331408955,-0.005624972805253339,-0.09620625760175111,-0.011696984570945342,-0.034016865027522436,-0.02274710720021889
0.0637759,0.007821817534055229,-0.015519437671831487,-0.035768381947066975,0.005223714408345723,-0.08895713037954621,-0.0036086540815740372,-0.030619035590098934,-0.02161235052043314
0.0642414,0.009261747435818665,-0.019623376282090668,-0.03549619358317422,-0.0007387012805546338,-0.08309057820599468,-0.011801773087304845,-0.0059755064071529565,-0.022414042307455997
0.0647069,0.010722586949040349,-0.01830506371421175,-0.03775887188888929,-0.01285314026530084,-0.07532310265300839,-0.02281159379721369,0.015634494908065524,-0.025335736285788252
0.0651724,0.01098826380116165,-0.017752400025321448,-0.05287964744026604,-0.022846227475716064,-0.06890432011647867,-0.02816261610768114,0.030595347414944594,-0.025733416158324033
0.0656379,0.011587625911263276,-0.011461081774734481,-0.0660973682527634,-0.02599074711923212,-0.060207943474179015,-0.03380826169944453,0.04600785401344678,-0.027707151822526553
0.0661034,0.015050125148012253,-0.0021557159673392407,-0.06932620583973997,-0.015288191069404114,-0.051419909733227326,-0.04256802839705054,0.07062883073767509,-0.027454588622997263
0.066569,0.00931890732734025,0.005722188927750964,-0.06709275804378553,0.005496488457041931,-0.03835553632846954,-0.04195795614018592,0.09840872619763857,-0.023833242447686972
0.0670345,0.012265570316023872,0.015030418096046674,-0.06646007062817108,0.045169849551601846,-0.02439953576248369,-0.02833376003893695,0.11461386856000826,-0.015954474397140782
0.0675,0.01254042309661456,0.01813691531241328,-0.06404715380677088,0.06964845629251845,-0.009702115443998039,-0.011962904957134667,0.10842639016388018,-0.01217477681805568
0.0679655,0.01240177347939886,0.020340244246738807,-0.06432435530842352,0.07167323110618867,0.004172553529072794,-0.020391890572343058,0.0910287496278238,-0.012039076986955237
0.068431,0.011612494116812378,0.02132821177347002,-0.06599568951536514,0.042809321228479476,0.015585197493277463,-0.051775763454607784,0.07373377539505545,-0.01724215882478143
0.0688966,0.010601482274672456,0.023187933081981804,-0.0720949917228842,-0.007983337961353592,0.028372574139581868,-0.07383487326998348,0.06047734890864022,-0.022314907248045072
0.0693621,0.011091847615992325,0.025230995875574688,-0.0817079923947394,-0.0630542689340548,0.03376538698444684,-0.07190347268302641,0.050622950134068166,-0.021849865077765818
0.0698276,0.011382900983105383,0.02762659950844731,-0.08803870479555542,-0.08772438440195204,0.0340734,-0.06341620098310538,0.02953854509030642,-0.020652292255128435
0.0702931,0.0112459,0.030174595745831524,-0.09313131755520518,-0.10036213936457881,0.03221377819062636,-0.054910901857818606,-0.001956392758712568,-0.01968992606354212
0.0707586,0.011597575322052772,0.029973113430167054,-0.08963976977517311,-0.08489301675658183,0.029645555450830252,-0.05072200941151295,-0.04217834420305008,-0.021812348461718662
0.0712241,0.011337117150725875,0.027569593838209328,-0.08075193997245943,-0.06364902158762774,0.027780127051996513,-0.055179270181351055,-0.055440193003084615,-0.024459722867634502
0.0716897,0.011881389730675485,0.02854337489304834,-0.07980022053864903,-0.04809926700243742,0.025063365403986775,-0.06431399160573295,-0.0375006027311699,-0.024973589730675483
0.0721552,0.012582322401828685,0.02649451888669645,-0.08117737483793935,-0.030593053474329057,0.03534853219232512,-0.0640354356969561,-0.0009750450869755052,-0.02362844580632322
0.0726207,0.0125887,0.025115686100964152,-0.07870383294563658,-0.01578808353583848,0.052517439629221264,-0.06032892136310671,0.025678455969072936,-0.021758780829089417
0.0730862,0.012259126002853735,0.020065988217961565,-0.07542249611468825,-0.008676694054220963,0.06656202379969971,-0.056299948120395724,0.03592526183679825,-0.02016946792526404
0.0735517,0.012442108488523038,0.01460464580271355,-0.07576903437015378,-0.018455748569587805,0.06585383268473571,-0.0505644329451105,0.014441980089655013,-0.022531799833575342
0.0740172,0.013082867887249614,0.006971480887184453,-0.07477473647918914,-0.04366898313955346,0.05968505784437369,-0.0433726202737418,-0.03234381239462635,-0.02675785183087442
0.0744828,0.015623295976339028,-0.0050803222485327594,-0.06466183866833353,-0.07005957988169514,0.06516043875797682,-0.028399748105926312,-0.0746696697937886,-0.030001833994358785
0.0749483,0.017554584797149882,-0.008558733067033733,-0.054725909492784386,-0.07992487788873594,0.07677808950859212,-0.0196631022618841,-0.0930433553780225,-0.03068855557774719
0.0754138,0.01794947603932483,-0.009525704157299324,-0.048097599016879225,-0.07697402607384325,0.09386324150395639,-0.015226277100335292,-0.10095250098312078,-0.03039112396067517
0.0758793,0.016821465344271817,-0.012169425626743497,-0.03840475399111063,-0.07833859097101531,0.1068587217270316,-0.026978093477989303,-0.09568379554317007,-0.0303807
0.0763448,0.01548760202294447,-0.018018959630577796,-0.02916456257260442,-0.08530475155669336,0.0991833565171911,-0.052441238513364456,-0.06148720993888892,-0.0303807
0.0768103,0.013611614385938995,-0.03386689921560308,-0.017975354596410885,-0.10047789800749529,0.07782615520046478,-0.08393112756377019,0.0026471743459105654,-0.02882211239343428
0.0772759,0.01420209488232844,-0.04575904776493457,-0.013021381235204276,-0.1206785595618724,0.06833698137950009,-0.09667403993488272,0.029032186352875838,-0.02733769829410948
0.0777414,0.01327838250153762,-0.05392025641999376,-0.009823355021526673,-0.12241189767076258,0.0736322642730893,-0.08449218875538167,0.025793474648442078,-0.027073978240749273
0.0782069,0.010845413528373177,-0.057116559419921054,-0.008661892573139941,-0.10507431432345794,0.07834728303088875,-0.059677753578189954,0.029085759419921052,-0.02823104323581341
0.0786724,0.010563918115756538,-0.053773781157565384,-0.008483582127281092,-0.0854511728263652,0.07174275447000583,-0.03356838985210461,0.05803790133061994,-0.02971459094212173
0.0791379,0.009988101175387423,-0.04801561175387423,-0.004308952191414681,-0.08631489823691887,0.0573474167243973,-0.024355318806198758,0.08337376094324168,-0.030002499412306288
0.0796034,0.008094354435668954,-0.04173945310670721,0.006104626906943,-0.09729478358628595,0.042561270849383014,-0.012142916413714061,0.07369898196439491,-0.028537712029724126
0.080069,0.004781018384662122,-0.032989205260553836,0.019292073538648487,-0.11113552945611582,0.04125660179481987,0.007987784947142883,0.006286673796483214,-0.026240588412876853
0.0805345,0.003703273410062581,-0.03379464150213768,0.03283127600987201,-0.10043414629771205,0.04978747017253545,0.004417636706563306,-0.02041510040710852,-0.029495131907924903
0.081,0.0023146933562226673,-0.02939174894992711,0.0412013508983705,-0.08187076098908698,0.05426746872955673,-0.014068725723358357,0.018561550274173107,-0.03283040070004859
0.0814655,0.0009532421761920579,-0.026868743829679017,0.0421750833087528,-0.06438748843520702,0.0472314555144572,-0.032584433382651365,0.08903153146122511,-0.03499933797338396
0.081931,-0.0024405496465545384,-0.023424015713553403,0.045127754307970364,-0.0572366,0.02948927457839339,-0.033617785700228435,0.11204348637227063,-0.034494133033499436
0.0823966,-0.0052389745934851,-0.021111230662757267,0.044192957524900045,-0.058110895887845654,0.012231189077016057,-0.02330403331928374,0.08797947350620765,-0.03165924268768046
0.0828621,-0.011180401542909963,-0.01654619295899363,0.04063420584875776,-0.07346398403898968,-0.021665988372616744,-0.008429904235715529,0.06656241932735933,-0.028109699579206372
0.0833276,-0.014288048648039484,-0.015431720848230265,0.03904407297308373,-0.0960109606116137,-0.033327889190462895,-0.004500681855690767,0.06292722317305614,-0.027110561388604668
0.0837931,-0.01754151630950803,-0.013804942964802008,0.03845253339827127,-0.11286975038838093,-0.02652518408011957,0.00037947558381806843,0.04133611679778921,-0.026371092867395106
0.0842586,-0.020302569120351038,-0.013182953635486943,0.03724115713649075,-0.10212075628365366,-0.0083113909336965,0.008374670062843557,-0.006046467796267682,-0.02450685448832404
0.0847241,-0.021844862100228218,-0.00971673626861248,0.023645238362986997,-0.05069104484801344,0.006225951379746312,0.00787697948546662,-0.10033678442565094,-0.02530581820081805
0.0851897,-0.027831596406874777,-0.00934072993239561,0.011159753997176728,0.01930909948946706,0.017291656225031093,0.0034885751650881765,-0.20629951193952925,-0.027458787178492584
0.0856552,-0.025688411986001795,-0.0105745,0.0050582099991463665,0.06759875869250079,0.039063388688233155,-0.002122974015534641,-0.2578406192984515,-0.02839566066740641
0.0861207,-0.02431352919397679,-0.010552283106196304,-0.0009468856328673178,0.06705568515264826,0.0511403351872493,-0.006204620771422168,-0.23160105102322598,-0.02847996486144515
0.0865862,-0.0219292967251793,-0.010996357643561015,-0.01354148624844171,0.04625842551987691,0.06143298997184469,-0.0037426127599384552,-0.19606372517314125,-0.030267300149527426
0.0870517,-0.01739684410693491,-0.01033361890130358,-0.039698858441342584,0.018956332320804733,0.06778960038524744,0.0039307926661876595,-0.1669237106525847,-0.03142027941329501
0.0875172,-0.012719151018565944,-0.008896,-0.058025286130470345,0.005187145102367058,0.04966198845675868,0.01218705810008179,-0.13681744626333842,-0.032082657226094075
0.0879828,-0.0056214400731089235,-0.008750752494433864,-0.06194282169264197,-0.004677147505566136,0.013082758453575876,0.019130026519342595,-0.07719152591461292,-0.03231907261207188
0.0884483,-0.00101751872140209,-0.0096237526257427,-0.06095989206732754,-0.019018521116830306,-0.014367834872505836,0.017360102856057182,0.007487192749733933,-0.03369060821843129
0.0889138,0.005785966766214461,-0.008561569732241304,-0.06270813474844657,-0.027478402358018017,-0.048880126395079646,-0.013765635047089955,0.10494106108023099,-0.03452741097838072
0.0893793,0.010373860757999263,-0.009652992865090776,-0.05618947761202941,-0.037508582674239975,-0.08334481922075818,-0.04734947717200405,0.17012170222375267,-0.033617372372118336
0.0898448,0.012833493901831566,-0.0123436061696415,-0.05299975501289939,-0.04296919195927532,-0.1030812207084178,-0.0638817145387763,0.1666156305197974,-0.03255829588690566
0.0903103,0.01618527044882605,-0.017634754060431586,-0.049936775490742366,-0.028852804678656047,-0.10686722324076851,-0.0635373310173133,0.09241874071894376,-0.029969416751654734
0.0907759,0.01484293121617655,-0.021221231216176552,-0.05004962308873392,0.0026762366410046233,-0.09187282562438391,-0.06069989759320023,0.0018352644691134994,-0.02686425308245341
0.0912414,0.01512454338231281,-0.022627729313813932,-0.046575814705850246,0.025054935710712,-0.07891985275741514,-0.049029187732889216,-0.06756832169115641,-0.023738217879827644
0.0917069,0.016679395664286705,-0.017281470418021104,-0.04062429727836096,0.012856895792289068,-0.06769756757387968,-0.026538045923041414,-0.11111238921921797,-0.022391004953496867
0.0921724,0.013661399702819722,-0.017042089427345287,-0.039287304629083114,-0.015757996182301927,-0.055082976431636774,0.005338214984713343,-0.11243079779397068,-0.021168629592090614
0.0926379,0.008277809792030954,-0.020167274698436176,-0.04004345888890893,-0.03016952070554272,-0.042811937308706444,0.019032593735682658,-0.07936681501589077,-0.02245220434920005
0.0931034,0.00411679525830066,-0.021682636238228012,-0.04291254391895347,-0.023440555052000166,-0.030370659277948266,-0.00526519051414521,-0.0416899653090257,-0.024810499484248762
0.093569,0.006518269614875874,-0.02427516338395863,-0.04945580441544689,-0.013665129005053794,-0.025789004415446893,-0.03855426795956964,-0.030850505373851044,-0.026256975199560006
0.0940345,0.008089706869336305,-0.024049791073796473,-0.04995046541514621,0.003373757838226848,-0.036847819671102004,-0.05950232759643135,-0.047895895242649776,-0.0276951
0.0945,0.012887878147638388,-0.025282492765288704,-0.04699571017088833,0.04330623750303555,-0.040942871553382255,-0.0620140868504382,-0.051679576081591155,-0.029102782240782388
0.0949655,0.017445946384574224,-0.02343046275128744,-0.047306541869288087,0.10713971298111756,-0.026536772187137358,-0.0502160123461142,-0.004179801199953021,-0.03154321763671995
0.095431,0.01926480023750405,-0.023331,-0.060288735055508164,0.16432969681237844,-0.008529464944491838,-0.03157020523403907,0.06978252255236843,-0.030972804210830315
0.0958966,0.018345107320872803,-0.02127623188012819,-0.07932904637591633,0.2112161106265272,0.004143156366678103,-0.024751350244630734,0.143660121327946,-0.02909448099918548
0.0963621,0.020348171819699962,-0.018283607645401535,-0.08294629697399923,0.22110530206471246,0.005116961619610116,-0.015063247132964353,0.20616205286703565,-0.031100066560689917
0.0968276,0.022823852202685003,-0.01759713693987154,-0.07357053757262284,0.2016185959543714,-0.000655505670872624,-0.0013974931742454376,0.21788061556370275,-0.034213155491001915
0.0972931,0.024093179344455287,-0.020401478382960567,-0.06322034232909779,0.16066905231740689,-0.00770419012471818,0.007945496419830701,0.16419944683412566,-0.0372766945533549
0.0977586,0.0250095,-0.023441948214487814,-0.04963502530070106,0.11055577767949772,-0.019220157437461548,-0.002153524401427273,0.08052518392719042,-0.04047018586077952
0.0982241,0.02504637142664877,-0.02417218132594193,-0.04239215714670246,0.09379082857335123,-0.027416207930451776,-0.03024082617562397,0.0322512741994274,-0.04055036744796425
0.0986897,0.02549122340091261,-0.021883376412561318,-0.03877566788409524,0.09234142998378823,-0.03856998331611999,-0.0597869809974774,0.010968917004563053,-0.03924990213211652
0.0991552,0.02656140480249296,-0.017909560364628374,-0.039506855258278434,0.09129461591574678,-0.05444673903867466,-0.07209865060220545,0.01562816487428136,-0.037997245203015534
0.0996207,0.02873001912780177,-0.013549434786997046,-0.04036360609529439,0.08518956437108435,-0.07078041303250739,-0.07147223096523753,0.02828767913789498,-0.03774059844227326
0.1000862,0.03012109644202132,-0.011337821953191414,-0.03485187388351058,0.07103183738141634,-0.07553098487443473,-0.059365948213846435,0.02165217685049839,-0.03621735859945127
0.1005517,0.029952948894967572,-0.007614567403354952,-0.029379062155356697,0.05813188036378852,-0.07575772596645049,-0.032225969095091116,-0.0009449427831017042,-0.03208806298322524
0.1010172,0.029400469292324833,-0.008768453938487254,-0.03790368050761945,0.07411204055403754,-0.06944590124614385,-0.0034509925231369257,-0.024455518846692344,-0.028765973030756373
0.1014828,0.028551579800110964,-0.008873091325135054,-0.055008295215316805,0.11789756030765942,-0.0649558861867331,0.03218784705630889,-0.05036929111693746,-0.02676818036202731
0.1019483,0.02810025593961576,-0.009474801275103216,-0.05946496550288988,0.16217192194141072,-0.06869666550288989,0.038032410200825734,-0.048299993624483915,-0.024662195537138745
0.1024138,0.02525472962214299,-0.00948709256947529,-0.04960597037785701,0.17799596376790625,-0.07849331846413989,0.0066518133198573805,-0.00478133695271185,-0.021505462226714206
0.1028793,0.020791144011256125,-0.010590370294296266,-0.03339249025799906,0.09391015962935667,-0.09009399240706409,-0.03668937963934839,0.05809485274141023,-0.020749939623034615
0.1033448,0.017072296305720915,-0.0114777346974826,-0.028043501583386296,-0.04023125976109878,-0.09767901978848964,-0.06717238074155571,0.11759554749304393,-0.022609877570572243
0.1038103,0.017901570129178215,-0.02135457856531448,-0.032301236120527405,-0.14187752158379358,-0.10250970400009107,-0.0814524562553907,0.16107065145461538,-0.024847719471917003
0.1042759,0.020861060033226648,-0.04883200520722965,-0.04227388709987124,-0.14603244404108986,-0.10368617700767192,-0.08638320662422135,0.19611731957806008,-0.027297812035765603
0.1047414,0.02677838784048458,-0.06974870193576584,-0.047219100938050845,-0.07680454516511916,-0.09899524560431251,-0.07672758578992418,0.2025311702622683,-0.02678943836917415
0.1052069,0.02525861807577365,-0.08511663309819685,-0.05732236342640638,0.004043861005813939,-0.07964999027921912,-0.06979175759165517,0.16050387761615037,-0.029648906778492988
0.1056724,0.0272757341097216,-0.08092856513040665,-0.055342877783283284,0.05012717591520224,-0.05591079536747395,-0.0659945654549982,0.049559258331011574,-0.03169711117660447
0.1061379,0.026556186775491097,-0.06736449681070268,-0.05446462659295261,0.06730818117243828,-0.03234191966828675,-0.05710904812892363,-0.052700924107229714,-0.03195843102511138
0.1066034,0.027346882993967016,-0.046488967156062155,-0.05256684260432749,0.08944880593259313,-0.023801891719473722,-0.039554593344259176,-0.0931867940907607,-0.029744349705048745
0.107069,0.02750023299113106,-0.022370715146239336,-0.05071785456128199,0.13356571549479768,-0.024439535141106996,-0.014765786455060156,-0.0603998863513498,-0.02462679572606434
0.1075345,0.028349278611305588,0.001579256525689285,-0.0471916636771268,0.1925915223666073,-0.03890713492532572,0.013613484576864779,0.02031704333937076,-0.019879494311728096
0.108,0.02784624260770945,0.02261630256400034,-0.04246337155995853,0.24252108597498423,-0.061066888016549706,0.01669519716092252,0.10559201364523313,-0.020123973221741358
0.1084655,0.02589018764472841,0.04186576788017727,-0.03396665675654944,0.23516463456369324,-0.0975800604708977,-0.004189118000610478,0.10878284940166934,-0.0223239
0.108931,0.02471402338825867,0.041892484242104844,-0.0321226913135755,0.15857353238693583,-0.1104036553027984,-0.03131495365503832,0.053818217964548096,-0.022243465205427332
0.1093966,0.03167312157913365,0.043995932726243456,-0.02424239761587018,0.01012614211842816,-0.11440835613453791,-0.060463537021660976,-0.019345750318547947,-0.02281494577674978
0.1098621,0.031188903702503483,0.04933457428117076,-0.030438301558948836,-0.09807659688210232,-0.10743299571289071,-0.07075988655534181,-0.09574916064164396,-0.022851298247458077
0.1103276,0.03413899481041616,0.04240317624170564,-0.03248080485867054,-0.13397842327887355,-0.09237689473616241,-0.06284642394794655,-0.15825409621556955,-0.024119453888564676
0.1107931,0.035461926344576795,0.028321898615131368,-0.0317235,-0.1199995812776609,-0.07310660417575823,-0.04556467227055457,-0.19589608906106595,-0.021775047128526716
0.1112586,0.03755453886510794,0.014865246370616073,-0.030665627464254414,-0.08958207771672533,-0.058054678497417835,-0.029356667354765848,-0.20683115129136498,-0.017917585756185694
0.1117241,0.0388618600842262,0.005492066784872185,-0.03266867706130983,-0.07051783653848501,-0.05883100005393159,-0.021764012142390318,-0.18275912423084906,-0.014472484203761182
0.1121897,0.0383283327513583,-0.00010991106442414871,-0.035914427910163464,-0.07003217237205085,-0.07546457524228935,-0.02813490976406598,-0.11868108535390103,-0.014985332792196455
0.1126552,0.0368202799738455,-0.005850571153248914,-0.030558038878343394,-0.08793965998472113,-0.09654530003703012,-0.04090404397804085,-0.015887665499261776,-0.017230465499261778
0.1131207,0.04087938287127809,-0.011810340857056251,-0.027495095365136092,-0.09983591450699002,-0.111895662997141,-0.05264837264336776,0.10865349665218653,-0.01954869607050295
0.1135862,0.04042665878209472,-0.017328335762340157,-0.024409913927146004,-0.09835876120871047,-0.1141647302938414,-0.048623852722275825,0.17081662667165173,-0.021855587891375705
0.1140517,0.037470626691461166,-0.023084863213868993,-0.02036484665314242,-0.07004273414028107,-0.10171817693715195,-0.024664151770794656,0.1571253160183859,-0.024967156711747526
0.1145172,0.034718586360651435,-0.025331090415440648,-0.015963144488907906,-0.029446700483927012,-0.08292709497735676,-0.0014657248732182753,0.06944887941645635,-0.02823853205229877
0.1149828,0.03304410463799152,-0.022221802657094142,-0.012530992058777947,-0.02410760096920459,-0.07322580729508565,0.007002205649684306,-0.02599440463799152,-0.03031855298637625
0.1154483,0.025003836511810013,-0.015239831390150152,-0.009326127607314098,-0.08611142113707815,-0.06686707989115474,-0.0014530897566802778,-0.08166799929211033,-0.029762181229978552
0.1159138,0.01771364757147576,-0.009056472219818505,-0.014896176263718862,-0.1667628784171361,-0.05199728257149644,-0.011411916318614986,-0.11026862127457694,-0.024049435098934164
0.1163793,0.0067864541100775225,-0.005394609946872499,-0.01825328360300681,-0.22411087306943447,-0.027584514996305494,-0.014115993441202726,-0.13567828992279246,-0.014989934651038867
0.1168448,-0.0016339114691698224,-0.003741872001651215,-0.013673325714875433,-0.23341950354965896,0.006151603549658946,0.00020349375677121103,-0.145973485178266,-0.00828193710107931
0.1173103,-0.0020197941030547202,-0.00421640401398677,-0.002596422497122817,-0.20043810111580249,0.037409892987252245,0.015103186348295102,-0.10065796734497408,-0.009437766996327642
0.1177759,0.0023135186530751357,-0.010236379548523423,0.01137839988525464,-0.13528365425745642,0.044801983471016646,0.024955792692081723,-0.015826341113898135,-0.018505037746585972
0.1182414,0.002126447469189921,-0.01807338524055227,0.0072175,-0.07899928400938065,0.04320393795422957,0.0358295020223188,0.06977413043026617,-0.029967181258558354
0.1187069,-0.0032852388680435166,-0.02525584783572922,-0.001331895671458442,-0.05918041490407736,0.039533952164270775,0.03931206505769237,0.10985331338843035,-0.043160212183385914
0.1191724,-0.005269824581004217,-0.02698010587310989,-0.005074057989192084,-0.05928905025057308,0.037644517887421576,0.021605202366655273,0.1076643445584985,-0.049776243513462146
0.1196379,-0.004983627932907728,-0.025923437936479946,0.0004375758236429433,-0.020641895884635917,0.03592754585771165,-0.011644887963404214,0.07564455789430743,-0.05188466175402359
0.1201034,-0.00176903622859526,-0.023727976509661394,0.011557641522875672,0.0590629697892004,0.03606226854739086,-0.035887783209272474,0.018760510772931865,-0.044713090093254595
0.120569,-0.0025489757777602384,-0.022878530444321667,0.006765030444321669,0.11675543017531141,0.04577486642810009,-0.038671039111356664,-0.03777661496141922,-0.041202309349660154
0.1210345,-0.003593085401985221,-0.016844644887096062,-0.0112574586138347,0.11549372060235631,0.05852828545719405,-0.02979455724379856,-0.0898963102810167,-0.031046372990073894
0.1215,-0.005425424695470167,-0.012357065525167616,-0.03065223786425011,0.04534108170616746,0.0647024761840404,-0.016924826793100076,-0.11025768125062728,-0.028598134474832386
0.1219655,-0.0012049509879657047,-0.012931909656944775,-0.03269303935508952,-0.06653067237609717,0.07137363831796857,-0.011906035514582839,-0.09076115202508667,-0.02865695202508666
0.122431,0.0015373863030356389,-0.015452089569143597,-0.02647384905305845,-0.1631128107606252,0.07243445248405081,-0.002182,-0.05561945591504316,-0.0291725210265972
0.1228966,0.0052715497297416685,-0.014635664629623266,-0.021116167779520106,-0.18946163515587836,0.06974298791509441,0.004388147858444189,-0.0352409797270709,-0.028175242682962728
0.1233621,0.011665175987892655,-0.012520337993925355,-0.0491282136502116,-0.1559166932578168,0.07696534128211537,-0.002182,-0.04202686891401913,-0.029972089638020356
0.1238276,0.021518459635876782,-0.0074138418444378365,-0.08326409549264194,-0.08912852904457398,0.07834472959520522,-0.004587990122014702,-0.04652706606901581,-0.03131812322848039
0.1242931,0.030846154672097698,-0.003706138238416459,-0.10362364848326598,-0.04900129639123503,0.07846514434437177,0.0024135485661423927,-0.03466589819869174,-0.028428521721858818
0.1247586,0.03753639449031937,-0.0001518481305415344,-0.11684378240883009,-0.01657564006283591,0.07583073864639005,0.009542655843929323,-0.003917343014491547,-0.022090730676804976
0.1252241,0.03859481128699715,0.002297339035094257,-0.11948237266935939,0.011479289607826666,0.06513075146755622,0.010343645581388207,0.013181399097204623,-0.02109662642784524
0.1256897,0.038468075008346855,0.004958699933225168,-0.11509962512520282,0.056129666997033034,0.046070616418014944,-0.0004099088073501174,-0.006420416515546347,-0.026778483949246635
0.1261552,0.03945932852962319,0.008287195154046476,-0.10334417938794754,0.12170291814422081,0.025256831015965018,-0.02783807501904945,-0.054623388552266824,-0.037972297221020475
0.1266207,0.04007999508794395,0.010924981805092744,-0.08705182089747843,0.1788039641788292,0.021532924109674386,-0.048009645720840315,-0.08596695730383141,-0.04666153659387722
0.1270862,0.04042940075575753,0.012488350079603507,-0.06604914498890747,0.22693252135854797,0.031032230071094104,-0.03852426766163331,-0.10376854518624465,-0.05029960755757528
0.1275517,0.04275841880595117,0.011929637484013952,-0.04485012452041856,0.23901864396581163,0.04968290447940771,0.011004329858119178,-0.10292861245204185,-0.04722728742006976
0.1280172,0.049550623794499905,0.009934088738545633,-0.02681176903256387,0.19576627658999307,0.06428382098069971,0.06424730898576311,-0.07219442063171047,-0.040296023253264195
0.1284828,0.054259570049772596,0.007388691891490625,-0.016630257467901987,0.14091323991841118,0.06517474778894802,0.07850145550571301,-0.03884987358240616,-0.035841540859138855
0.1289483,0.06428537614813978,0.0007792335107565562,-0.0016919253999262834,0.031372264970423155,0.05458544162158683,0.0652568350183802,0.0019906984923763636,-0.029923292893769462
0.1294138,0.07960596279428128,0.001318200413499589,0.009863201611749266,-0.05766312732533443,0.05289582137251785,0.03311968710182067,0.016592864613826645,-0.025780015833200866
0.1298793,0.08174221576967679,0.0049628556051601975,0.01604057137483698,-0.12350051370630458,0.0494202443948398,0.018202635474713902,0.02054870747354693,-0.02309170829612985
0.1303448,0.07577429472849193,0.012473405798658879,0.0205775560843993,-0.16171197585255456,0.050735301581452424,0.024435513486675622,0.038337620339636114,-0.02187164628777933
0.1308103,0.07026405926332835,0.017672544540365466,0.023658084761751595,-0.1299770418641052,0.05842321411081484,0.04019629776860596,0.05771734338945881,-0.02457542282216297
0.1312759,0.15242061458079556,0.016463600404607363,0.02108600203634959,-0.05376260152295941,0.05612959880338904,0.045137501710001145,0.05488261518575745,-0.032195097606778064
0.1317414,0.37870854326686443,0.0152131212350918,0.016349499840663837,0.04761936887574973,0.03805658525903953,0.03692714056594298,0.030390324080078045,-0.04465237147409604
0.1322069,0.4631870024502986,0.012674927946035017,0.011966391690094641,0.10843244523247268,0.025492475070283918,0.02731176363970404,2.9922090177236706e-05,-0.05055187980159899
0.1326724,0.38643145704382964,0.010107036435642145,0.012318881782178928,0.1263884439627483,0.0263889009900994,0.014717967131066368,-0.010171891289483865,-0.045482414062941505
0.1331379,0.2760852281156508,0.004934532879457097,0.01490513356027145,0.09995128916509728,0.02782570753348414,-0.007121406727753472,0.005632895087120086,-0.03212024161040568
0.1336034,0.1831270538868872,-0.003435307550589084,0.021587346475966118,0.017426014821842133,0.01611344668529093,-0.048767814891853355,0.026784984591764847,-0.012169030565209644
0.134069,0.1580082829780083,-0.006874482151076433,0.0249285931365987,-0.037262089474757946,0.0031159236906418697,-0.072178857834523,0.027337446453229296,-0.006156944438983091
0.1345345,0.12825735355826284,-0.007530480169101108,0.020383921808346677,-0.04672779813497993,-0.0022560302256633786,-0.0787158464403435,0.024707833955006687,-0.01546759661072714
0.135,0.10115251944500682,-0.006569821280703451,0.013908893727585398,-0.030065117443998243,-0.00021524256140690193,-0.07249718832457244,0.026304857438593097,-0.0261328799200466
0.1354655,0.064485915992664,-0.004991507764751968,0.005603225360942376,-0.01824427719604882,0.003587996329787116,-0.05798895661854102,0.030889884046169862,-0.028066432635389618
0.135931,0.04326339378164562,-0.005147618266415974,0.0014574354337009371,-0.023931991854347887,-0.0007180163231802318,-0.03466948174952203,0.049702189522464996,-0.021203902704592034
0.1363966,0.025953484813731276,-0.007275932057265548,-0.0038811726647162968,-0.026409269010832466,-0.012483690888238766,0.004257539089762955,0.0734849349844112,-0.009671849267744049
0.1368621,0.011073341143036812,-0.005483274033665742,-0.00840301683661483,-0.01139352693861318,-0.027190877899002774,0.056959318520305766,0.08554540358069146,0.002353214654968734
0.1373276,-0.0024655266427377445,-0.004411417041414476,-0.011539703223936378,0.025559756977326747,-0.03900455328547549,0.0825012203743319,0.06428906675811694,0.00455257029869562
0.1377931,-0.021600393369674543,-0.003874135478175717,-0.012614395510349215,0.06604688447892629,-0.037952606279848214,0.06854282781553801,0.04737200683862689,0.005497712906865482
0.1382586,-0.036483751319819006,-0.0036878070332969225,-0.012385049032498397,0.07716880720656145,-0.03060633637532582,0.03677317434105522,0.04236595360521017,-0.001038779785878005
0.1387241,-0.05317328333395577,-0.006941912247179698,-0.012075094648846707,0.05212994216200721,-0.021354467916170093,-0.008001610463461935,0.0372326060445974,-0.009517233174103565
0.1391897,-0.06848922211526275,-0.012520012021964684,-0.014858361467191787,-0.0017978682270766403,-0.02118338672327704,-0.04638767957513296,0.02136568218248378,-0.016376369870094137
0.1396552,-0.08695452097060016,-0.013145194729950755,-0.01580428945573487,-0.07757066243982734,-0.029179099953661292,-0.07605326312240804,0.003489684278363037,-0.01626363681016723
0.1401207,-0.094404000512438,-0.013539657491388215,-0.017624722747749517,-0.14180963611480882,-0.03295340179119859,-0.07830312317244678,-0.0027663229185621832,-0.0189188798975124
0.1405862,-0.09940097025365134,-0.012227151848321674,-0.02098961708583127,-0.19675897900179562,-0.026466928062515015,-0.06179735648936529,-0.008116818405329658,-0.017488402741480225
0.1410517,-0.10325946985758938,-0.008420897283779323,-0.020907727665232693,-0.2323639671413687,-0.0092028114749598,-0.0324509120850369,-0.015374087711011165,-0.008174264903233542
0.1415172,-0.1040862059290038,-0.003959094195090511,-0.013289541278253018,-0.22626894211279722,0.0014511295443397332,0.008699805175405643,-0.006782212239322825,0.003979252792743187
0.1419828,-0.10055787644094241,-2.3390758948392174e-05,-0.008574732269688367,-0.18036787509218732,-0.004991381105307882,0.042305217951682385,0.01652208343406885,0.011149625806982758
0.1424483,-0.0960407211067071,0.0016591300812936836,-0.01587974946221102,-0.1046195274944241,-0.014213190523948994,0.06429001040633076,0.019588604810674606,0.013817609476051007
0.1429138,-0.08857327989631597,0.0028219722805058315,-0.03222230986024901,-0.03884352996052924,-0.014780912104687887,0.07104080207233003,-0.0006107796449603095,0.013951751036165014
0.1433793,-0.08643978481026529,0.005534187452140955,-0.047635119514769564,0.020546284215870906,-0.002709862739295223,0.0632986428416533,-0.021628555092315153,0.013968506156792642
0.1438448,-0.08309535012256546,0.007683499950973815,-0.04038111048801972,0.09155392904847366,0.016036189757111206,0.03383721092925539,-0.02477603554930245,0.011049042615316123
0.1443103,-0.07939289431589286,0.009155824051837989,-0.019465559697611733,0.13150130590009876,0.03067272025918994,-0.0003508894238270083,0.0007730031252134797,0.002821398108540905
0.1447759,-0.07556453578163681,0.0106377835313411,-0.010820796067176926,0.1415044955989511,0.03808251765670549,-0.022456674629700777,0.027201133358511,-0.006934798343727584
0.1452414,-0.06541630704777111,0.010578812550529587,-0.006580600404236688,0.13025354510359657,0.04110153724735207,-0.03762163019958096,0.0777904705962055,-0.0208237925479922
0.1457069,-0.04564618026401468,0.0065932340471785205,-0.001746177222670379,0.07532903151300632,0.025150872309330802,-0.0222709112698489,0.10162536013967316,-0.026528982917002782
0.1461724,-0.036932141146093674,0.0019710743143815045,0.011887896661329809,-0.024322712811607236,0.002000477653051696,0.004684019008278112,0.07368908250132009,-0.026681383640589834
0.1466379,-0.030133197447525968,-0.004042375733656452,0.037344550631660346,-0.14640792982725437,-0.019088005968895223,0.026127348524076218,0.03006958726346248,-0.029941456609166448
0.1471034,-0.026162692099392235,-0.001159370936232353,0.06446653359962598,-0.2259996498002805,-0.02831214833122931,0.030068369467181156,-0.0016412233295923415,-0.03711024110079477
0.147569,-0.02249155501091523,0.0037250882581806094,0.06162702996669956,-0.2263012022030381,-0.026559036527831193,0.021775115202518222,-0.02354535857367622,-0.04190773565747625
0.1480345,-0.02055005485379777,0.004747466608778245,0.0013472955484300688,-0.20958871662707737,-0.01988801073738771,0.011895967303439295,-0.028221666435112983,-0.054547644451541186
0.1485,-0.0199450337145772,0.0021494085335151043,-0.10252684023911525,-0.20624876754458588,-0.012421066107117905,0.0001450457463819609,-0.01610617700621986,-0.0839404634740737
0.1489655,-0.0203098,0.0026771378252342455,-0.13330220051002856,-0.20837769267129472,-0.009266381797465945,-0.008200796854297778,-0.01524659699870477,-0.10254194240765858
0.149431,-0.02405593886617346,0.008449233781027769,-0.10941247121269114,-0.16117276223930788,-0.01886243761967981,-0.02767409433603016,-0.013642828023049709,-0.12370740834755503
0.1498966,-0.029347334618908837,0.01202773846904389,-0.047294563174232584,-0.06742433188736625,-0.042824154417012886,-0.049472063189395774,-0.002823772517779169,-0.13864057805668026
0.1503621,-0.03502854785802143,0.012351659910882067,-0.018028676874565247,-0.000299582946950046,-0.06025826321455269,-0.06543314651720643,-0.0073451146425816665,-0.14408802374975796
0.1508276,-0.0443216950183549,0.0184634,-0.01628939671575761,0.05161825274689485,-0.06421893621440702,-0.07273406576462733,-0.0301967108237591,-0.15026987030153333
0.1512931,-0.04095868741852111,0.01888332879495132,-0.03786222644733155,0.09670282306604464,-0.045585099217039474,-0.06651339815379348,-0.045733558763712524,-0.13270172904565794
0.1517586,-0.03652215140749365,0.018488112851873417,-0.049936683294980216,0.12252071016402373,-0.02777333842848262,-0.058935634575336245,-0.03796689100127295,-0.11931709883470332
0.1522241,-0.033984238997560416,0.009567940284423669,-0.04840581660881186,0.10740743104953315,-0.007618778590993321,-0.04389131995027714,-0.021186374942406657,-0.10352915756585603
0.1526897,-0.03668426270576165,-0.005132099427271221,-0.04360586382718816,0.07965723206505415,0.004531283412767434,-0.030091288141315994,-0.030786369871943657,-0.09212905746456193
0.1531552,-0.043250189322552056,-0.027463973234091086,-0.04231914169482733,0.055642470142163176,0.0020322720457442516,-0.01796554455019895,-0.06026087133051001,-0.07956470804423049
0.1536207,-0.04858217667863517,-0.045594060071811,-0.04071732826750659,0.0409866669753967,-0.013662161292109884,-0.015123041696587916,-0.0800641,-0.07284840247307087
0.1540862,-0.049759430874817503,-0.052657585248905035,-0.03424243018850372,0.022739314606166815,-0.0254346155823369,-0.018066177187043765,-0.0800641,-0.07019958053166062
0.1545517,-0.04690366507678004,-0.05147248591084807,-0.021603561404662124,-0.009963065277250514,-0.024068972859441866,-0.021028763001288583,-0.06172892017495206,-0.059876711354544504
0.1550172,-0.04461190428426885,-0.047107935437731174,-0.014436033347778971,-0.03639858265914814,-0.012776111353489838,-0.019354189076706108,-0.037961744332100394,-0.042577108033977316
0.1554828,-0.04036407673767734,-0.04130485372959816,-0.008803116298367853,-0.07719815257844978,-0.006399514088574969,-0.006149351265561797,-0.017780725967357056,-0.022341114249240325
0.1559483,-0.03892153599785497,-0.034747672795319214,-0.008278541823625538,-0.10841017756274156,-0.0027274927653787597,-0.00011682293746316985,-0.0072892364725107425,-0.011062841173718542
0.1564138,-0.040251235505095434,-0.01781509750087638,-0.011180671010190863,-0.1435451788531352,-0.004714756808152691,0.0010947142020381728,0.006205010185875497,-0.0007393679253344537
0.1568793,-0.04528783514117069,0.007826329334171237,-0.017435426785315525,-0.15977100242918613,-0.011078116326074887,0.002895511733668495,0.028408611733668498,0.006378183673925114
0.1573448,-0.046482115498579654,0.017336812031771814,-0.018641649927192964,-0.1425801625546053,-0.012536759233411517,0.007646612433260216,0.030833974634915117,0.0034451874696637347
0.1578103,-0.038462632135813926,0.0248341824006124,-0.023018690842943813,-0.09748567827845724,-0.018295853675654943,0.013109307185116444,0.008551922621395357,-0.0014854691119338555
0.1582759,-0.01922677748022852,0.017098456874074196,-0.03252143753295246,-0.04033186676605289,-0.031128022519771478,0.00787308375072182,-0.021707032353879375,-0.0034516644385354832
0.1587414,-0.0022253997597501554,-0.0016829737668044424,-0.04443308645089388,-0.0014485235505502724,-0.048099778098962064,-0.004772978219086984,-0.04087357790670357,-0.005031538869293647
0.1592069,0.011370401421844126,-0.02195858229968235,-0.050727015040742826,0.01567171214985229,-0.05970529160584639,-0.017731575374575145,-0.05695119591858105,-0.007649747704373672
0.1596724,0.022362059662288273,-0.04792532264273943,-0.05110665618387346,0.018818669244450584,-0.07039175200549655,-0.023455424651801924,-0.07014192387527982,-0.017214330915801348
0.1601379,0.03255540835529043,-0.06427151671058086,-0.04642719513677322,0.0316021825194183,-0.08089600835529043,-0.02416335881120117,-0.06284933282675392,-0.02263902104355567
0.1606034,0.05503031679771569,-0.08439174469246558,-0.04143570824113912,0.09331184278875565,-0.09730159191755841,-0.02493778526273418,-0.04730405879560166,-0.028791517273808263
0.161069,0.0692113957185572,-0.0847639,-0.042347278521197296,0.15861992201602565,-0.09693796610910203,-0.017462273619524106,-0.04015632003892593,-0.027937134007306543
0.1615345,0.08188963126388162,-0.0746409904064868,-0.04916595417592108,0.17220984241887624,-0.086322146855464,0.00824188523953907,-0.038453933957509616,-0.0287939102143487
0.162,0.08562674284875658,-0.07042071688249464,-0.05317128836631774,0.11175351626272031,-0.07648488533349716,0.021864949812676032,-0.03989945567391554,-0.03214456394820128
0.1624655,0.10721962784591767,-0.06744595385289069,-0.058816433800333384,0.008398397139338851,-0.053720276882655855,0.05015720522476656,-0.029944469176874475,-0.029890103385821928
0.162931,0.12105118922585363,-0.06800193934653509,-0.05918319715228122,-0.05888823625745338,-0.04869430783122663,0.06288665922960553,-0.023088253915613314,-0.01571522866758969
0.1633966,0.13738120697527215,-0.05015101666597499,-0.05327015831328085,-0.0979787333858844,-0.057941434750860304,0.0748155333858844,-0.0261231333070578,0.0073872056102962476
0.1638621,0.14513653376997376,-0.03167238340429175,-0.046392212726043325,-0.10718351212745306,-0.0642905911035556,0.07966039172217888,-0.03347002358364106,0.018482633151350493
0.1643276,0.15014652182367644,-0.015202396491424717,-0.033282389148916174,-0.10495070181504203,-0.07039847811556917,0.08171172916618498,-0.022844819987048393,0.014675865449443307
0.1647931,0.15228215220475702,-0.014771477677950588,-0.0249237981434919,-0.0876587764195807,-0.0765599497009309,0.08098617326843655,0.0025162471971047666,0.0013649050568320705
0.1652586,0.15363155644391843,-0.008899927882705227,-0.022537345058100646,-0.06681560789660916,-0.08272892928805556,0.0721425863853208,0.012333813518010451,-0.002738967829736206
0.1657241,0.1539178,0.024601268206032093,-0.019238363371051625,-0.04237013545371231,-0.08938985898962708,0.0508959129589456,0.014630516350513965,-0.0006553899278268042
0.1661897,0.15045479529687944,0.0770170271591912,-0.014727339468755665,-0.022254958607896298,-0.09136295546168696,0.024204067811029798,0.010825076687504856,0.0073668714546182715
0.1666552,0.1464926478128712,0.13389800338845137,-0.004326321653258616,-0.0023189390643558365,-0.09396610145808588,-0.005968008946659735,0.008552801392037755,0.022818616095050256
0.1671207,0.1419413667537593,0.16610342793243796,0.00680949019801216,0.02636440172418018,-0.09446735237473149,-0.036340058848374615,0.009760240414862592,0.04558292806307688
0.1675862,0.13182455341342644,0.15595942678396413,0.016941124191323653,0.07440298803514615,-0.08733954414843491,-0.06423213979549722,0.00953370881309723,0.0749752738938773
0.1680517,0.12048548925043427,0.12700137850086854,0.022005909507695307,0.10323819485504224,-0.08661988209209222,-0.07128627335591077,0.007933271073751308,0.09002402280819569
0.1685172,0.10171998343504002,0.08295400828199988,0.02595772396840986,0.10413527909486635,-0.10790279447866674,-0.06066489972666917,0.009361112955022106,0.09832710825272113
0.1689828,0.08904378167201532,0.04993996440450375,0.02540052281458872,0.07460370093328361,-0.12991215706366416,-0.04227734464150913,0.015350983863130599,0.1027847174832902
0.1694483,0.07867541156791134,-0.008011603768370866,0.019657641530052877,0.018195024429787213,-0.1448331651358945,-0.013968477643843747,0.026285776703805875,0.11786189896318452
0.1699138,0.07822724904957144,-0.03957467639346397,0.017076937644428795,-0.004698689326750353,-0.14586577310252632,0.002683003217232165,0.03290396615728542,0.1302962456205706
0.1703793,0.07915335607437043,-0.06603843880042685,0.0095256757825445,-0.015614300718359063,-0.1371782290635049,-0.013074093996385748,0.018666919429020774,0.1357568827036449
0.1708448,0.0751722712745678,-0.06611275020580563,0.0036489242079712704,-0.009706494120804836,-0.12726766018672106,-0.05900244885645961,-0.002196920801571008,0.1184124536204647
0.1713103,0.06313411149822343,-0.06023514025407618,-0.003247419501278474,0.003598764753727501,-0.10983457248623564,-0.12333788553654446,-0.011254430758974232,0.07603860897459654
0.1717759,0.046048537912378305,-0.056959788581202646,-0.015862225505606713,-0.004192396639924475,-0.08368475332226566,-0.17006745903894968,0.00155802415246525,0.02838172247971283
0.1722414,0.03795181581242329,-0.07990044816521145,-0.02358487795115516,-0.04440852127610912,-0.08267568140347718,-0.20149726676173427,0.018261807632585635,0.00968105968462927
0.1727069,0.02772997985275184,-0.1072658408224654,-0.029120168436404057,-0.08944349678658352,-0.09009557258554221,-0.20248141101738606,0.023770383074959187,-0.0025747060762942933
0.1731724,0.007553401366788667,-0.1445968632291597,-0.03508044174869687,-0.11955764638253663,-0.10308891547983441,-0.17958890079652018,0.014425157681034641,-0.02291620354482273
0.1736379,-0.01530534015172544,-0.1797211920157429,-0.04152012941233866,-0.11180094558362086,-0.11633427145918257,-0.1183462187858459,-0.010559400820829234,-0.03901777585597073
0.1741034,-0.02616111943771423,-0.19439759557083494,-0.04698353323172096,-0.09086327611242612,-0.11666531498785458,-0.06374697378665906,-0.022615992475108402,-0.04397244520647221
0.174569,-0.0287773163781511,-0.19172890075922047,-0.04913468673950697,-0.06377037233530933,-0.10374090806764552,-0.04776467001725982,-0.01348802302859167,-0.05014678452269346
0.1750345,-0.025109355292262023,-0.18546767991551652,-0.05312230272017286,-0.02492515430810495,-0.08467729849301804,-0.07886588276193933,-0.0013632505859498547,-0.06891155610887797
0.1755,-0.011496224111478702,-0.17691924774472972,-0.057726610298035774,0.023286767417981455,-0.06986586910589268,-0.13154332382965744,0.006602738920055038,-0.09736940067463414
0.1759655,0.013153719598410175,-0.15204441073107458,-0.05466190352895482,0.06961250722225386,-0.06838353621521123,-0.15658233436856173,0.008200620511667887,-0.1264174572943589
0.176431,0.03172201661364167,-0.12122890069468832,-0.04860412284621055,0.09199980065656115,-0.07338778982269563,-0.14736405091752036,0.010307674662187634,-0.14248366673458948
0.1768966,0.05113241660743894,-0.08255649440638951,-0.039564001991081364,0.1015467709924636,-0.07682504765576513,-0.11233331504569961,0.010554597706512457,-0.14921654566468376
0.1773621,0.06906422545953698,-0.04090772140955013,-0.03096945625476874,0.099354050541658,-0.06752931478628493,-0.05308060097320047,-0.001439528269022895,-0.13047592093985771
0.1778276,0.08101743047086794,-0.026607577045206655,-0.023914074111619228,0.08338179015852278,-0.061733756716355906,0.0014628721338959087,-0.0270237,-0.10320380161118825
0.1782931,0.08758153911556722,-0.005492218294797119,-0.013162647886353646,0.0664702443516203,-0.06285092687071238,0.03403121919299171,-0.048750850886374354,-0.05969659747402701
0.1787586,0.09007719751542051,0.016145950058105266,-0.008291044632694106,0.050992469603641476,-0.06666804930452248,0.03720903928376309,-0.05818460252430988,-0.014211027379046719
0.1792241,0.09703508805478585,0.01971805817228371,-0.018248770141540888,0.033085747531273704,-0.06266740002404304,0.01259295587643492,-0.05733512621032011,0.03698156162807841
0.1796897,0.10473296122496266,-0.005106898292758138,-0.04574310270159628,0.020401762040405724,-0.053604845035095515,-0.022465789128236376,-0.05487672707036407,0.0775590918712552
0.1801552,0.10809726099956767,-0.026624467371305582,-0.07634236665713132,0.010368548228867356,-0.0446852127584697,-0.048883548188030694,-0.058707204270051785,0.09034215178612648
0.1806207,0.10784832069567221,-0.038311170855034056,-0.09994989797102799,0.000887660775398195,-0.03269773320290996,-0.06763368500729595,-0.06206790248546631,0.07139821742030593
0.1810862,0.10523645081136865,-0.04293100022479092,-0.10194649001263892,-0.004793660549338382,-0.01922417252199653,-0.07277127064986787,-0.06671738757776001,0.04170863424449037
0.1815517,0.10392362006709084,-0.052267553512242264,-0.09229384738952258,-0.015046585720174584,0.0020498138812419403,-0.07231392658839401,-0.06602430320835263,-0.0005021436148593527
0.1820172,0.10608858939833697,-0.05644496405527443,-0.07581298293418114,-0.024076641929452913,0.02060882629969024,-0.07060801289417937,-0.04078482670862495,-0.02823109124555709
0.1824828,0.10790037090666184,-0.04481941101873686,-0.06313060232633443,-0.028304132115544278,0.04446376959177962,-0.07694924817331641,-0.00787097587491121,-0.03895075352793222
0.1829483,0.1000830359578225,-0.013152946943447374,-0.047671201739251136,-0.0274706565350549,0.06986475704235004,-0.07935597099918205,0.023585129218183693,-0.02652823561258871
0.1834138,0.0882318432811528,0.015654266173471293,-0.036429930153147584,-0.027747256564002606,0.08022262971008419,-0.0725027847685816,0.032243805402642337,0.0029324423950260058
0.1838793,0.06485059726107902,0.03296258499106618,-0.02361895343818013,-0.02618991050625367,0.07202779246140806,-0.06050080600357353,0.020845388255718727,0.0336121360555662
0.1843448,0.0425563699654444,0.03152430403408464,-0.014109754578346193,-0.02261202490877329,0.05048979524237496,-0.05850213077094599,0.0010857065953885155,0.04195768058849257
0.1848103,0.02700058183187419,0.04015843662403851,-0.001092707570340089,-0.02619438895140535,0.03824518806271312,-0.06958436891938741,-0.02092259190526894,0.04235578049237303
0.1852759,0.003916894023848697,0.0492414619465998,0.013955095021444212,-0.03577975564345415,0.028429441479038618,-0.09046971183603138,-0.04965743982125564,0.020822520578625554
0.1857414,-0.032620703450971414,0.04509164332658719,0.029903994748343776,-0.05305201206996401,0.031120806790429435,-0.1101547690975209,-0.055525138074930966,-0.01673961734949858
0.1862069,-0.049091350093991654,0.03527922564950084,0.03577391451131783,-0.06070771263702122,0.035240336063977105,-0.1166475116998729,-0.04367321686691773,-0.03363434506000178
0.1866724,-0.07871196088330969,0.003216978258743002,0.03868984961363466,-0.06733064225833778,0.030871579643561787,-0.10638986005985425,-0.021884134666311193,-0.045962844390524865
0.1871379,-0.10320397067231502,-0.037680090283295616,0.03585027765333608,-0.06310333620265239,0.012118925082347251,-0.08040345379701777,-0.01846040712283379,-0.05332382122668864
0.1876034,-0.12136894401337538,-0.0710549001539619,0.037960229827624946,-0.054193845610028914,-0.006944010530557616,-0.06449008070293268,-0.03303255979577935,-0.06688180709287522
0.188069,-0.1406444179847508,-0.08777687355669173,0.04216429700390949,-0.04951961619889396,-0.009634428258658775,-0.06740400963929749,-0.04216042670816531,-0.07388779700390949
0.1885345,-0.1557394707837511,-0.08903196521649946,0.04697360123726242,-0.05004299782474919,0.0006948816600051513,-0.07776175122700624,-0.04143480915974122,-0.0745250212732577
0.189,-0.17301870860015472,-0.07843839872531047,0.04798551074993342,-0.054343962671453756,0.02838955367273867,-0.08893323603488462,-0.05422683261041641,-0.07914689571941474
0.1894655,-0.18472737703308936,-0.03593529847400375,0.03616060826632125,-0.059268613162479986,0.054262141892406864,-0.09237783242965876,-0.07729889075672688,-0.10128924907203873
0.189931,-0.1972117218407217,0.06361160975047771,0.009096882253988005,-0.0669928431966483,0.05178770308534479,-0.0904207159386426,-0.09127081209506811,-0.15900806170089
0.1903966,-0.2048009044285727,0.12305998061826617,-0.007725692780559472,-0.07559384143942016,0.036103467760578635,-0.09016774318571424,-0.08937347876970902,-0.2017602308754062
0.1908621,-0.2041690766025807,0.15322027160058457,-0.0285990206552115,-0.08881802630443461,0.02721758644176544,-0.09367278413104231,-0.06834014798742297,-0.24569245530014222
0.1913276,-0.18976895970144547,0.13043124982319634,-0.039754876470921185,-0.08821774377228511,0.04549214379966378,-0.09579018930881418,-0.03892097850663646,-0.23584450572468257
0.1917931,-0.17579335264489854,0.09750154723472604,-0.04191295195239398,-0.07453166058516146,0.07074490784133369,-0.09464131364722309,-0.021068094324797615,-0.18662726442277797
0.1922586,-0.15679954807019925,0.050942871989503105,-0.04614616834607948,-0.04900613833886069,0.09106143962539454,-0.08411801700803809,-0.004432492146954671,-0.11408548723241078
0.1927241,-0.14678815203454815,0.0277786462988621,-0.046524630278720724,-0.0343125274293557,0.09001231195104509,-0.070536968215961,-0.003493931721881235,-0.07944193921912929
0.1931897,-0.1324103366866093,0.007870644640873115,-0.04023483210449883,-0.022279451268364676,0.08145344654253245,-0.03586284732132424,-0.000525296627846639,-0.05524475098092114
0.1936552,-0.11527265354861353,-0.016886232676636196,-0.02849563197664568,-0.01820185213978505,0.07017991087746632,0.005780724634521713,0.010652623216845793,-0.03768000070883796
0.1941207,-0.10435336267224427,-0.04628814328076927,-0.018158752299549597,-0.021586312271479797,0.0662137985372911,0.02640336256344972,0.028374217275100776,-0.02043342749993183
0.1945862,-0.09349267991061606,-0.08368721899520001,-0.010060258601118444,-0.026217767376931694,0.06688219601866903,0.03341286471324449,0.04261050078475164,0.0030085255426881025
0.1950517,-0.0834366170108564,-0.11081015957793146,-0.006901008884309792,-0.02814897861032751,0.07892330778920442,0.022871402168411308,0.03654720124197704,0.009265666146958272
0.1955172,-0.06836183406216631,-0.12294549299835639,-0.012750044713237348,-0.027267383078749586,0.1035499908829173,-0.0031785362500731697,0.024262316921250415,-0.014785460541238294
0.1959828,-0.04363024103385741,-0.11288595793407599,-0.026156900778281054,-0.03519637732438836,0.12511103302215612,-0.02196737800413449,0.01794806396325459,-0.05716616406178951
0.1964483,-0.028948112652085453,-0.10194170719664414,-0.034300842368055154,-0.04270024672106222,0.13176319518332724,-0.022704493673957275,0.015653298490630012,-0.07723240362771794
0.1969138,-0.004533985670675982,-0.08214975424172176,-0.04487164621813198,-0.05617665033718728,0.1233754219748377,0.0016887969333953539,0.009082504578909033,-0.11201962191295094
0.1973793,0.011942747361852975,-0.07030755137091123,-0.04398086980407002,-0.06329624989632458,0.10225512880173322,0.03690445457390324,0.00860334565668154,-0.13461883422822216
0.1978448,0.032858654099615844,-0.05669868625576398,-0.03401488602809094,-0.06329032394669303,0.07861549379377021,0.06935149312277028,0.009224284035537983,-0.1479299070942304
0.1983103,0.05264100714513374,-0.04014231897782503,-0.026440581034795962,-0.05398946157054866,0.06411931481455274,0.07330694009728446,0.002264396177911497,-0.14472523627519596
0.1987759,0.06901069162810729,-0.024939540442614806,-0.026029534244496208,-0.04387395772646478,0.05814081640093172,0.06205339470444961,-0.0026593901854745296,-0.1351644582861793
0.1992414,0.08482785131172879,-0.013704493887917836,-0.03259099827188836,-0.03614194694395892,0.06267920607968086,0.05228742958406162,0.00046523739185412653,-0.1394006835840506
0.1997069,0.09357569316599246,-0.010340425635066547,-0.037909987666859296,-0.03444496849971105,0.06942930549913316,0.05531711843496977,0.004358120135933387,-0.1626610468994207
0.2001724,0.09501720100734141,-0.013076932177346354,-0.03681960575954182,-0.0354162,0.07206809730283995,0.06782705283560908,0.0034325904955992146,-0.18989810575954183
0.2006379,0.08569235414869124,-0.01253313918375599,-0.032492715204061,-0.035161880469441395,0.06929235835255007,0.07652790432649761,-0.004910248075876952,-0.18293021634948742
0.2011034,0.07153882692548118,-0.006749533298084386,-0.034590062719008725,-0.031501377748403656,0.06888558497060507,0.07582221359480464,-0.013663691343208283,-0.14448332533227062
0.201569,0.05149768424332812,0.003303312955701071,-0.035659034570509514,-0.02439243480386005,0.07341649302079958,0.07271446171796196,-0.027390031302837636,-0.08728705417654078
0.2020345,0.038983345402414805,0.012636871304494514,-0.02762563027361619,-0.01490107473420976,0.0757986785427396,0.05771581132026877,-0.03095625710149817,-0.03744785701219638
0.2025,0.027829883564542572,0.007315256227023741,-0.015845982301779506,-0.00781288385376558,0.07011110320984319,0.045132746115150425,-0.025147738133709203,-0.012745211586378457
0.2029655,0.009927241045288263,-0.009356910041442443,-0.0032560816577984673,-0.003585548468724486,0.05620551506106585,0.05306880611113968,-0.016192948035946432,0.005496159387489794
0.203431,-0.01308212362773719,-0.027404510120319484,0.005180901705784971,-0.002964940732573001,0.04460581652057879,0.10953809158546549,-0.008588533016685856,0.029699021889228766
0.2038966,-0.03784020505719557,-0.04662454842194811,0.01095464388495954,-0.005988095680543097,0.03741667836491999,0.1895004440646957,-0.005933839234480693,0.056743430907691086
0.2043621,-0.08093220251694962,-0.07826404421523035,0.022327237409403948,-0.004559597226324201,0.041263202773675796,0.30553056996195127,-0.013374222189406393,0.08155539010924413
0.2048276,-0.11338970141445864,-0.09089879433757196,0.029069969593450935,0.0020943239836273353,0.0499474087803528,0.4361074570106297,-0.011186468178992291,0.09492869961975316
0.2052931,-0.12186039827052879,-0.0752301640119751,0.03143829466363033,0.011637072124005813,0.05725935243634755,0.5491107212691735,0.001704431626194248,0.10209559195962009
0.2057586,-0.12026326657252508,-0.06159785536578966,0.03131167681480173,0.017043077230429575,0.0589151,0.6080135050772276,0.01153648411751823,0.10628805027441544
0.2062241,-0.09194019352303927,-0.028603629852544644,0.02557196765192695,0.029005493268772137,0.04358482539873923,0.662480368342406,0.030672234742561984,0.07302035627693537
0.2066897,-0.07561095190591637,-0.011258176087582433,0.02267853463583123,0.03411152386458709,0.033382803225505256,0.6745546346836617,0.03855161700083664,0.047450121177578825
0.2071552,-0.051218902769726384,0.01339795303928273,0.01743986781475272,0.0438618411344581,0.03272050861194493,0.6664761588655419,0.025107729686367916,0.03504753863557874
0.2076207,-0.03146574554938422,0.018802160994445802,0.006706990290033856,0.055263351745472096,0.04534222085534894,0.622122318338829,-0.00607498016094779,0.05739540779062297
0.2080862,-0.02530794945633296,0.01094750221370781,-0.005524746737815273,0.060353786271722915,0.048639810795991445,0.5698377193790805,-0.02230343840753391,0.07706936324258437
0.2085517,-0.03332765600301127,-0.009097774511875614,-0.01767533906615818,0.058254954621182756,0.04327881231543,0.4618278343496437,-0.029519751167272085,0.09779817994277706
0.2090172,-0.01884633603578967,0.017725484486105614,-0.03454484246673825,0.07416845585684131,0.026882609783789445,0.37445861993926116,-0.02067608388221104,0.11467231276494809
0.2094828,-0.01767352821977793,0.03502431243180994,-0.03586420758951702,0.07885968712088828,0.01735358994892848,0.309074933558482,-0.007921842553317786,0.13944774686749284
0.2099483,-0.014401519122406285,0.05246936568897025,-0.03684402313471665,0.08525168488990408,0.011579496869527282,0.24604800068445418,0.0008390137220788416,0.1783224553944948
0.2104138,-0.012885103125244553,0.07325921133195712,-0.03932670937573366,0.09135823866413006,0.006681962497065376,0.14335824142311926,0.0047710343776900714,0.24066169218301975
0.2108793,-0.012616711302991713,0.07607728549066076,-0.038521533908975135,0.09283443366147186,0.00990266436409945,0.08270192944368465,0.0018187243329088362,0.2736737264203143
0.2113448,-0.009500569178530668,0.06772463369988586,-0.032261238357061336,0.09252523438138457,0.02413529670582196,0.018006003446599726,-0.004974382734295563,0.2961110585566414
0.2118103,-0.015901941893715882,0.05384145381924357,-0.022037001974362168,0.08984087085271412,0.042045823483160896,-0.03776924040769848,-0.0054471092802917745,0.2907032930677235
0.2122759,-0.007426340329287147,0.03403382934758253,-0.013215395532188028,0.08260668275043245,0.03617324479709912,-0.10552907872033133,-0.0016019696794402,0.2595020809503815
0.2127414,0.024567096863679624,0.010625901706300643,-0.010239627378686788,0.07504573676367828,0.0027607069431423922,-0.1689891619242418,-0.0024701895263165006,0.23524013875841362
0.2132069,0.03788740705388356,-0.011301388574613741,-0.011466365300259448,0.06744063779054298,-0.03298386163717715,-0.21950786840622208,-0.00613094781424865,0.22326235514041326
0.2136724,0.01859899387357896,-0.029532898089754178,-0.015165528128334025,0.06162774634108148,-0.04025003498071008,-0.25385708010617464,-0.005602495981666567,0.21559988227691446
0.2141379,-0.0012240740367017782,-0.04406292680724004,-0.018898330690703038,0.05766384721033824,-0.029968287434748497,-0.28801146384471443,-0.00177254961627609,0.19216619680749084
0.2146034,-0.013875917514098638,-0.03946537956974631,-0.017183352355352503,0.05727244507608647,-0.032844165785225296,-0.33493453027808073,-0.003507551597520098,0.14415610484205826
0.215069,-0.020755436320902074,-0.009898447778128372,-0.010742992589125342,0.059467978667148584,-0.06036197940061979,-0.36011039488757446,-0.012728932206284571,0.10141570989224838
0.2155345,-0.04601333190883182,0.017685474973264507,-0.006106592925310051,0.06149441286434007,-0.09811897518511419,-0.3785795340552121,-0.019626260612034926,0.038103590514626216
0.216,-0.09517790204195802,0.013871490736613605,-0.008318900271035764,0.061314925299628883,-0.1157137595916084,-0.3835526455038247,-0.013740756908373975,-0.04021906626525961
0.2164655,-0.14408551962176722,0.0013669994509429304,-0.010982661096134478,0.058215107698125046,-0.11138703150644254,-0.38292259753419233,-0.003818609314173578,-0.09181823819776733
0.216931,-0.20224230304142646,0.013219419481002817,-0.016210662920927002,0.05146695642997811,-0.09286597036632172,-0.3857459242191168,0.0005899779418141384,-0.1277566683354885
0.2173966,-0.2259579321619718,0.05334835325575701,-0.02228014543362956,0.043717486728342234,-0.07365583048949244,-0.3949596641924604,-0.004483436554577576,-0.14552872750639967
0.2178621,-0.22122320556384545,0.08333668556491507,-0.027528128870169845,0.03465955669474524,-0.06395176556598468,-0.40572405254410127,-0.01548623017533536,-0.1650407590455052
0.2183276,-0.20204886470608702,0.07750346907300014,-0.0353076580348891,0.022220457125761643,-0.07568731807063393,-0.4138619752581682,-0.035214223467502734,-0.19364620072652663
0.2187931,-0.18049655557258057,0.0493408228861991,-0.037752984450671524,0.007095285083512983,-0.09586366600560438,-0.4148578673136185,-0.053707469576515766,-0.23246727358522076
0.2192586,-0.16180503221344836,0.027600360679063345,-0.03510169894031073,-0.004040035082179589,-0.09347750904627966,-0.411808928465615,-0.05622615132244714,-0.2656081845090852
0.2197241,-0.13055632631069888,-0.003169341681773021,-0.03896802548496827,-0.016774205518092646,-0.05474315332322939,-0.40612757710189884,-0.043511866767545176,-0.31153373652115357
0.2201897,-0.11222036579016846,-0.02245134942847628,-0.04971597090230297,-0.025176209997940565,-0.030453814213950405,-0.4020665145488485,-0.03329901471629758,-0.3387444912330822
0.2206552,-0.09239603447791793,-0.02746177702399216,-0.05623907980179691,-0.034169021273037115,-0.03242928750707447,-0.39845254433286353,-0.027316382398162288,-0.359683627275344
0.2211207,-0.06423841364996581,-0.013303721256493813,-0.05093466428575109,-0.04088979102837237,-0.04834494422209528,-0.395237057434524,-0.02119920424080109,-0.3807277756955431
0.2215862,-0.037070781050633016,-0.0034245524036417346,-0.044211381911676416,-0.04514328118923402,-0.05369611981105161,-0.3891997875800033,-0.014064248958185699,-0.39993718894118946
0.2220517,-0.006263688177315472,-0.00802697510688291,-0.040701001133802324,-0.053576602991298766,-0.0406242927410896,-0.36806634821375883,-0.010171579374494545,-0.4123099183579008
0.2225172,0.013451617276622111,-0.010462654309249335,-0.04670003055390585,-0.06460201173756365,-0.002135688432239214,-0.3304553864028753,-0.01151233686282437,-0.3940409126772265
0.2229828,0.0269454580003334,0.007772887748723587,-0.04714058143042579,-0.0721517019062916,0.032963094091546824,-0.29270204882966916,-0.007619075112127995,-0.3634812253995768
0.2234483,0.047160179761920655,0.035031104834795275,-0.030243713519551994,-0.0820751884683344,0.03585922210015439,-0.24044851042102042,-0.004674665257534827,-0.3263317921924845
0.2239138,0.06354164090404578,0.0363107097290578,-0.010069283779402437,-0.0915288702517232,0.0017035805336325545,-0.18940449362850795,-0.00876122088482676,-0.29967955118595513
0.2243793,0.0793283983226605,0.020126619425910156,0.0041103506631124526,-0.10109223170646355,-0.02704862491222135,-0.13267728511855317,-0.01710432001331806,-0.2742705075147653
0.2248448,0.09721593356805949,0.01468807571680664,0.009973408198203377,-0.11038487140098786,-0.033824287144166035,-0.06687879856124801,-0.02583207786957732,-0.24231710715221308
0.2253103,0.1144689539656381,0.03649961260179112,0.008898636693332043,-0.11711154245704762,-0.03284809471248254,0.001164467757924505,-0.0225584074362374,-0.20910265287243743
0.2257759,0.13112765795786127,0.07480512233536135,0.013371797628418875,-0.11678585531951806,-0.040451852474779025,0.056602601787449885,-0.021428155329277308,-0.17544032649439237
0.2262414,0.14153566634116704,0.09964812069286884,0.02098188344855743,-0.11467907175850897,-0.038286602131280274,0.10628874437238253,-0.011242438220810284,-0.11406994589056677
0.2267069,0.1484602013046793,0.10512182378410001,0.023713233895052938,-0.1185929779010588,-0.03221209896718083,0.11495338521405013,0.004927499808123487,-0.06466833821820614
0.2271724,0.15567892504011643,0.10057665128627723,0.023980596983160164,-0.12394023966320326,-0.03501937157057773,0.10131794736403965,0.02070192200644962,-0.03793218869439964
0.2276379,0.16555803166229377,0.10217669608683794,0.021854811767193644,-0.12596049177884366,-0.06509595904430072,0.07330857876019342,0.039835516564687576,-0.03147085412443189
0.2281034,0.16488000530115104,0.11743072213656087,0.018953837082307818,-0.12289140253428431,-0.08736797988226791,0.06486561724744884,0.04040094010913343,-0.05505547858856284
0.228569,0.15602069981356365,0.13138094027508426,0.014567383862980043,-0.12068732194387095,-0.10110541301064481,0.0632708855193858,0.03144566674227318,-0.120284311613702
0.2290345,0.14670114080704197,0.12607302129879305,0.006614937134268978,-0.12387518780896582,-0.08823405715784197,0.06341019362389969,0.028492610201760495,-0.19106215942001883
0.2295,0.13603371431743908,0.09533330146496097,0.0013647973513229085,-0.1246614518599911,-0.05207156489996577,0.06383269293502873,0.019628202929921935,-0.21520559704866682
0.2299655,0.12273653895000641,0.058638268948863856,-0.006311160651412318,-0.12573411235167567,-0.026369719546735775,0.06434636729985134,0.029073263500743324,-0.19831542714952644
0.230431,0.10224713791473168,0.01860850553290074,-0.013829961677481576,-0.12228749959221326,-0.03238660631460494,0.05790593323127369,0.03052161704035821,-0.12037900485280432
0.2308966,0.09259747919157911,0.01630235823309846,-0.021853932160464575,-0.11495390156101809,-0.060908750976768414,0.04195124507352636,0.017644743025669537,-0.03982838212497532
0.2313621,0.0830854,0.05747868453922361,-0.027107729519963333,-0.10985685240018334,-0.08135088032002445,-0.008342475790474407,0.002013940960073336,0.025740674054943857
0.2318276,0.08367364633101884,0.09719262345853422,-0.028251396481156214,-0.1042672043509256,-0.07503677947425998,-0.07115503176357926,0.0031458415435444698,0.06227041290200285
0.2322931,0.08559441645741221,0.11241705205326878,-0.028890251814925157,-0.10003241370929986,-0.056435518089999324,-0.11819701658830102,0.014089076449594236,0.07866643084592467
0.2327586,0.08817653830005547,0.11072921005422295,-0.030534951218543757,-0.09636299304533633,-0.02782729753468091,-0.15419262824583252,0.0250496403946599,0.08076784144196211
0.2332241,0.08910807809128639,0.10793264022508167,-0.03297710141078876,-0.09618255695334081,-0.016648102358876957,-0.166879888097555,0.021495294226097677,0.07040936008298578
0.2336897,0.08539703124494188,0.08265905765251881,-0.03466466383820183,-0.09632631562247095,-0.020550200528273874,-0.17765350187659193,0.004482082500937129,0.051987403568538225
0.2341552,0.0808158860738714,0.03983248416530711,-0.0337377,-0.09367405464610294,-0.021884233760970123,-0.18960576623902986,-0.004498784815321495,0.051132488198814455
0.2346207,0.07921465255068419,-0.01123762243157205,-0.03413183137671047,-0.0900959839623728,-0.010705348951761097,-0.2000062445143815,-0.009171891963697328,0.06340521890260523
0.2350862,0.08210831199606769,-0.08004280952703062,-0.04114883508812517,-0.08657238700221193,0.009951039273714732,-0.20720952699729656,-0.01357294300024577,0.08309468707927747
0.2355517,0.08640324895879495,-0.1310449460724102,-0.049336018692156244,-0.08415648496067785,0.024312114799330747,-0.2101622961591715,-0.013304509440075317,0.10094547884944485
0.2360172,0.09294949560119997,-0.17018072046408048,-0.058507310694422394,-0.08101890685048097,0.027095115925932507,-0.2075807104630202,-0.01079405291640901,0.12251119884383349
0.2364828,0.09707843476067396,-0.18051373389393469,-0.06402559911115259,-0.07525747823881922,-0.003205991586180559,-0.19042836311376302,-0.012380859817808884,0.13144805110033758
0.2369483,0.09893525714249454,-0.18301127946390044,-0.06726421830078946,-0.068118024556716,-0.0657953680634871,-0.14346609867205165,-0.01663972410671227,0.11741931964344636
0.2374138,0.0966553771103626,-0.1778491114448187,-0.07191676866891224,-0.06082306838458487,-0.12741956597871892,-0.07794680844145034,-0.030412086149315343,0.05576816982207805
0.2378793,0.09478690251880395,-0.17627946098028024,-0.07604926567130525,-0.0578122050376079,-0.1465523431227671,-0.05957333971288553,-0.040574626305002616,0.022040969991126994
0.2383448,0.09566399690168928,-0.17834480154915536,-0.07489090929493215,-0.05512263218471336,-0.1395638997056395,-0.07398128760675712,-0.04776116597177077,-0.013628075638416245
0.2388103,0.1014494064736381,-0.17529578977135665,-0.06738793790096353,-0.05140009693353985,-0.10740184921882956,-0.0670940931856441,-0.04020028193484738,-0.04438012828668648
0.2392759,0.10584628511871406,-0.16604163490773194,-0.058806850817910344,-0.0460669070186787,-0.06068628445905181,-0.032125641081784444,-0.0036908920846587235,-0.050433632612248994
0.2397414,0.10214746845894124,-0.15976298488365126,-0.05467559594704524,-0.04221670810590952,-0.03783007623000659,-0.015935355204606684,0.030744155417497646,-0.029086142720488165
0.2402069,0.09618597199897631,-0.15343999559451782,-0.056054238823228325,-0.041295121220256005,-0.04066688474801179,-0.0244093030358168,0.033803469327204745,-0.004226518480925249
0.2406724,0.08591133894771633,-0.129510086516157,-0.058591410971831,-0.037848287460764574,-0.04038704964639341,-0.02705974694564382,0.033414010971831,0.035814744992836926
0.2411379,0.06474047178800799,-0.08116793046082833,-0.07230827995315361,-0.028268856557593817,-0.040186353075270624,-0.018630984380968378,0.021966369964659352,0.0930408183510016
0.2416034,0.04897561138292332,-0.05350998480276011,-0.08624218290472675,-0.02164281900112797,-0.04059337532308439,-0.007789222771060891,0.013590953160326427,0.1291951519071583
0.242069,0.0283166323944963,-0.03568361731179033,-0.10363909581890911,-0.0160812489278705,-0.03706423919984583,0.001492284917294031,0.011702426752067834,0.14144469007972288
0.2425345,0.003781576035045435,-0.024535604105144253,-0.12490940406764471,-0.009073739281168898,-0.029472339794619686,0.013813007145887402,0.014563407125906612,0.09944588730359584
0.243,-0.01769056270175896,-0.014347187692140863,-0.14890966250469143,-0.0019516873179477945,-0.028617312534369183,0.01484486258398899,0.008081037505279609,0.030741662682758044
0.2434655,-0.020664713941203516,-0.0032405653791719247,-0.1648338100787193,0.004061230136222965,-0.03554437163360341,-0.00844140585520717,-0.01838669826837004,-0.01543204669227031
0.243931,0.0005164910382448838,0.01565320782444228,-0.17746098465008503,0.013610944689530386,-0.03619375022242327,-0.04736695923552821,-0.061295283572873206,-0.03179289372329099
0.2443966,0.034080716254606715,0.030022213153325865,-0.1818410045931402,0.01565907601102725,-0.027309475265097565,-0.06261374848930452,-0.06973165854021315,-0.020695843776329433
0.2448621,0.06594131098101395,0.05964636826467422,-0.19188277204810517,0.025351267346095666,-0.009909917562253987,-0.07072891496156927,-0.04850081697088088,0.0076509578750333755
0.2453276,0.08225738889531867,0.07734517162753345,-0.19796676402174504,0.031020482874488473,0.006682705441761628,-0.07736599711463095,-0.026100747082936294,0.014841130207516859
0.2457931,0.09410396514588701,0.0982196935788,-0.20001000828006102,0.03965179885941526,0.024811932572943503,-0.09397546400530227,0.003806048163456525,0.0018961085652071962
0.2462586,0.09809061837033511,0.10873210079719313,-0.19022347675830953,0.04258379497595241,0.02596760250099922,-0.10101009327214633,0.03514124417834634,-0.0076085707623274445
0.2467241,0.10883220901761609,0.12165177572516568,-0.15435514592946872,0.04515391557284621,0.03056102963788297,-0.10681784564900595,0.08019305740947075,-0.02089381589616675
0.2471897,0.11677454975595752,0.1244443692378034,-0.13009503092196278,0.04663661554525768,0.03635987695121361,-0.10750218974593446,0.08883286001002307,-0.029250712306635916
0.2476552,0.13160599432487904,0.12110343996503546,-0.10072684765589045,0.04908117713621612,0.07158659642802444,-0.10866139000874113,0.09067585407517377,-0.04657748010489362
0.2481207,0.14484488079760338,0.11437944447384073,-0.08354805031495516,0.05099809763714757,0.10357175458479392,-0.11023190398801691,0.10430854447384072,-0.06648791105231856
0.2485862,0.1519852740006751,0.10459234228675149,-0.06917567023336421,0.05572060045500576,0.10649192690933641,-0.11060105680323701,0.11040476398557687,-0.0896278024268346
0.2490517,0.14516144997492808,0.09627181872179412,-0.057443791976364095,0.06061236668338127,0.0828440552989353,-0.10736867325456999,0.0881995839527282,-0.10315184796158715
0.2495172,0.1283484505168965,0.09258756750927595,-0.04998563778089943,0.06276244480222187,0.06283415241626301,-0.1013549503129344,0.04700333223444426,-0.09405434076637663
0.2499828,0.1056033485121089,0.08923840640310818,-0.03596382852251593,0.06353477063834859,0.06009842125469141,-0.08317777363971161,0.0008101132125569671,-0.04458528094678084
0.2504483,0.09738120715557753,0.0879915224113408,-0.027056451034945746,0.0636149,0.07255179438858424,-0.07015853826665762,-0.008596336760702606,-0.011381841279862488
0.2509138,0.08934424414154166,0.08540838057097101,-0.0142425007489789,0.06302069514274275,0.08371588225062074,-0.05136055703366368,-0.013765431572172108,0.029273814430711198
0.2513793,0.07177753743622776,0.08403396547720256,-0.012068956917110987,0.061580117447664146,0.07590348704117199,-0.03329797316190017,-0.03242537556765009,0.08151548121431135
0.2518448,0.05034677247028553,0.08254198497341228,-0.017494487493099713,0.061444438778657816,0.06396740058321003,-0.02597350688431539,-0.050329545659199657,0.11542488569581442
0.2523103,0.017071042410937737,0.06782956927345801,-0.026872559394182486,0.06289129134469182,0.05127595541876641,-0.021132016556407552,-0.06677383264305659,0.13745541263072428
0.2527759,-0.010550478713638076,0.03087531593159155,-0.03961168068887565,0.06426831386870942,0.04622145145951704,-0.015847496928475893,-0.06532037785748612,0.14012712080306414
0.2532414,-0.027948331850927457,-0.008769578552561304,-0.047969042896707906,0.06338374203726814,0.05064921592546373,-0.00021169458293805038,-0.046747178657474325,0.13860215721003563
0.2537069,-0.03525943637655997,-0.023268374933327285,-0.043450827246880055,0.06152912544937601,0.053821642636691334,0.016630323269168672,-0.02590963209221067,0.13245128755580265
0.2541724,-0.03979482852656799,-0.019072422684451265,-0.03283482872484452,0.05955135910518291,0.040898892988128516,0.02507887134702113,-0.004503839851473207,0.11275688741615396
0.2546379,-0.04922572740033622,-0.011481539791721689,-0.020610731065148453,0.05862067626447602,0.005366770857834376,0.03381205933639937,0.03644900087187894,0.059682893721479426
0.2551034,-0.06916040400852623,-0.007304070765809264,-0.023103736825473946,0.05329477076580927,0.0032228115998094355,0.03731157365094789,0.0632254325160617,0.027813021261284196
0.255569,-0.09311044199624162,-0.00500112796967148,-0.026174266242677276,0.05099182796967148,0.027940436208590373,0.04345263248535455,0.07120871753431979,0.0026347715066874712
0.2560345,-0.12705905725886554,-0.004324801655415081,-0.024602267809269947,0.049744031953820766,0.062408212652522395,0.0590370167910601,0.05975722936580132,-0.0033246661538548668
0.2565,-0.1522292400736595,-0.005048891904377035,-0.02128243387304153,0.04889511998169035,0.07849274467344901,0.07566691282442183,0.040344085298869306,0.004376123219939538
0.2569655,-0.16889125153272833,-0.006407394213412102,-0.018796519060228715,0.047969353027497975,0.08362861229363036,0.08544165465204556,0.024773285101811603,0.004512836043863345
0.257431,-0.17590200099191203,-0.009086213806124146,-0.0206443696642869,0.04414664633761047,0.0763278027234648,0.08687320690306208,0.007227658687602157,-0.001794804707288845
0.2578966,-0.17061090220604383,-0.01609970826345108,-0.026925463515257226,0.03796447682084902,0.060804869117575,0.0857543099439823,-0.0033655049018415876,0.003574870168053121
0.2583621,-0.1576921276429622,-0.029909723195064353,-0.03178801481479872,0.03330179106104999,0.04991852261480283,0.08822622863627982,0.007692553072764068,0.01876032431243311
0.2588276,-0.13773600604192746,-0.052604993958072555,-0.03343790352850338,0.02924255412945613,0.05436786925854893,0.09231077122582677,0.02939513408312824,0.029086371771973003
0.2592931,-0.1231024678017099,-0.0672385321982901,-0.033690207207774124,0.02596260629893645,0.06723528174387126,0.09344617536128795,0.03898267389541653,0.027067942337807047
0.2597586,-0.0980999974620713,-0.08146791846707954,-0.030884161796876572,0.019649779443163325,0.08159386956243733,0.09437519418836499,0.049397377227039636,0.020839845072341056
0.2602241,-0.08626146286347583,-0.08375283790501438,-0.027483273679538924,0.016901817622371893,0.08138440277336735,0.0969434272407449,0.05454704475002002,0.01949550288646411
0.2606897,-0.06103463584114821,-0.07853780418068194,-0.01713232642059949,0.010677926365283093,0.08957878411445047,0.10540834526206744,0.06964183143920069,0.004102467390981685
0.2611552,-0.04094546963532302,-0.06697135301352666,-0.0061745499423096015,0.005503420806090646,0.09962341255288287,0.11286567558538381,0.08425220007692052,-0.012942872015318534
0.2616207,-0.023474830594702206,-0.05311067142563409,0.003743348661831583,0.00022647113408185066,0.10057480431633818,0.12476230815889998,0.10500564438194143,-0.02306282107146648
0.2620862,-0.0005739317085282111,-0.03676942178772223,0.0032821489866445906,-0.006100831480436105,0.09661765762570279,0.14841096716635527,0.14954682561762161,-0.02006625229053335
0.2625517,0.010508910189277335,-0.031014940374980815,-0.0010346171736787143,-0.012085539246464513,0.09393934235508,0.17019985509017133,0.1968145956576731,-0.006453279898378747
0.2630172,0.009699618679397731,-0.03256304963968858,0.005571290013303339,-0.019626205017407944,0.09074243812753754,0.18788056982048107,0.24268656839126515,-0.007143150420460466
0.2634828,-0.0006464354786645896,-0.03676852048680482,0.01595046024340241,-0.0273272497234703,0.08300445716395355,0.1952301304444136,0.27326209693907905,-0.026460686511512295
0.2639483,-0.01186945397963547,-0.04084193651823593,0.021778951651174203,-0.032748171441035014,0.07362897184595163,0.19440196621514194,0.29361023337994147,-0.05300821881597367
0.2644138,-0.014438373473797832,-0.0436668316541856,0.018769643102281765,-0.037883875821138134,0.07019749294935962,0.18805504451240984,0.30826992123114716,-0.07031497244874008
0.2648793,-0.009331093051557887,-0.04491202125179046,0.013435557779444777,-0.04500151930675944,0.07773929748891759,0.1815309597244758,0.31343181083850413,-0.07185872194128028
0.2653448,-0.004592669511941162,-0.045907356446969076,0.012084737348200151,-0.04930786639121851,0.08505939127014936,0.1786321713816505,0.31198901535935025,-0.0686486493928006
0.2658103,0.0005759291826544436,-0.04954404314704489,0.014272429947599797,-0.056516267886804264,0.06516370065324215,0.17573295774714057,0.3096353489905906,-0.06267994531264083
0.2662759,0.002059496224156448,-0.05261259362855204,0.012841839474039328,-0.06481846416598953,0.020451389348747902,0.17181176541413604,0.306585125686719,-0.06466625663255407
0.2667414,0.0022911689225193436,-0.053806820718320436,-0.0035921704749648396,-0.07591472113396677,-0.021023047652365515,0.16142407886603322,0.2934727439565661,-0.08853026077183523
0.2672069,0.0013218218418390275,-0.05445305210544065,-0.0257531440110854,-0.08492772374411146,-0.044891460120866804,0.1482535911971413,0.2656544942931827,-0.12774851755202865
0.2676724,0.011664941771407585,-0.05090699974037444,-0.05645251422830615,-0.09463878465725452,-0.06022641922748617,0.13500378965643453,0.21273449240456432,-0.1600905088348664
0.2681379,0.020381943467956087,-0.048030228108228386,-0.0708426283038715,-0.09853284973061595,-0.06672516998741797,0.13145131643726393,0.18666969184969356,-0.16330888674026905
0.2686034,0.03785513849031663,-0.042348789270756054,-0.09002654934732557,-0.1035034941734332,-0.08257477870064756,0.13298549563791753,0.1383781143915963,-0.14297115170432909
0.269069,0.04878786052508632,-0.03916729317979647,-0.09763935950073437,-0.10764717540347848,-0.09224707128040195,0.13763585536482345,0.10556450002566874,-0.11905503948774807
0.2695345,0.05489423012264161,-0.037004555874618913,-0.09725766876763907,-0.11070032230603562,-0.0930103769541515,0.14679552344981797,0.08190209993187397,-0.1011174698432954
0.27,0.06962406359293388,-0.0354162,-0.09033572025101934,-0.1130786442896869,-0.08648773350950878,0.16613787974898067,0.043410291031885706,-0.0792760395542663
0.2704655,0.08590606491349236,-0.0354162,-0.08168134362257029,-0.11395875483108416,-0.08428741346072517,0.1747922563774297,0.014953558307870216,-0.0860235537049785
0.270931,0.10773995008072337,-0.033841543042255645,-0.06838353848641568,-0.11367149819718583,-0.10193013823844688,0.16857839904978836,-0.033398394850613335,-0.1400189166685145
0.2713966,0.1184533051725188,-0.032091214166250805,-0.060098276324956,-0.11264814277750053,-0.13056206784628518,0.15814352069187995,-0.062020875208158736,-0.18784881058135067
0.2718621,0.12609443151194882,-0.031140253946082646,-0.05177189517323738,-0.11136235906318456,-0.15684463494869558,0.15113869517323736,-0.08564724738225252,-0.19319808085992743
0.2723276,0.1326597659033437,-0.031828945570042906,-0.04377704000326576,-0.11096587949678305,-0.13127377265100365,0.1520811264098264,-0.10458409097016964,-0.15990791417571634
0.2727931,0.13354521796279847,-0.03289322384262813,-0.04179101588344335,-0.11146176961018403,-0.06805682780475741,0.15310696764303572,-0.10017921232190419,-0.13156770710233917
0.2732586,0.14265928848183526,-0.0327306,-0.026735674476100042,-0.10981850287954117,0.005475906021150783,0.13661619213557633,-0.10963378762027924,-0.11485781027437948
0.2737241,0.14313526554569883,-0.03184390336290352,-0.014234200670895498,-0.10785226797523134,0.02591831024308105,0.11661846202842481,-0.10931003445430118,-0.10366502839938964
0.2741897,0.13587081879119803,-0.03039539432567237,-0.002461943686099401,-0.10460316223276284,0.008112987372198803,0.09770040439518168,-0.11624235588452492,-0.08130263453503499
0.2746552,0.1237937572657821,-0.02875957306539154,0.003486156964590454,-0.10067939535693969,-0.018049034371850656,0.08649683342654717,-0.13431396068321155,-0.058699744884287954
0.2751207,0.10958678918008895,-0.02655825523581336,0.009358794116134595,-0.09732582847150728,-0.035965282348403786,0.07416186488524588,-0.15348047146567995,-0.04626944270870112
0.2755862,0.08780350018000203,-0.025056681244250856,0.01600574885631927,-0.09310054034770353,-0.04867138975286659,0.05809357785920183,-0.16300519126097024,-0.048030014181026225
0.2760517,0.06076394954206702,-0.030211346528468717,0.021054220355617183,-0.08841492039217858,-0.06334007998879236,0.04551954618405917,-0.16526816110341294,-0.06473561325863054
0.2765172,0.03388300224996196,-0.0460174588403148,0.025185367573284403,-0.08426561145282281,-0.08394869689892932,0.0347392877590768,-0.1709444080965513,-0.08233233093918858
0.2769828,0.011970481886563928,-0.06264920300376871,0.027369142053946277,-0.08066974186136561,-0.10092098953768795,0.02483414447997297,-0.18063274107892555,-0.09041224912732829
0.2774483,-0.010708597065782964,-0.0626649399905554,0.027522386335577114,-0.07489867664294168,-0.0932305733744869,0.010077293575819359,-0.19466240969263543,-0.08681522659065594
0.2779138,-0.02353014066106076,-0.05522585312119242,0.02771094243251299,-0.07028618736110195,-0.08608784393103654,-0.00018966498619066123,-0.20170236276304337,-0.08404342060345907
0.2783793,-0.04005374948581192,-0.039456631571052884,0.023463963599973714,-0.06394870945654357,-0.09846431917206916,-0.013834833228652164,-0.2017882759714267,-0.08951569951460132
0.2788448,-0.05605229030610111,-0.018363588441486823,0.014854710619009287,-0.05823568499525478,-0.10727472355079457,-0.027448203012463843,-0.1966759046228686,-0.09552735704701416
0.2793103,-0.07862615216754104,0.014495563847025156,-0.0016075372272347313,-0.048977608211862485,-0.10505744609975817,-0.04464482761189191,-0.18703167090468942,-0.09600573442027406
0.2797759,-0.09525173058967674,0.04045484910915662,-0.023775004085617925,-0.04314412832347186,-0.10943262118100619,-0.05908277505010027,-0.17871879480701486,-0.09104720266152631
0.2802414,-0.11135527665259103,0.05952943121360046,-0.057521501523410346,-0.03819842334740897,-0.14964038122282208,-0.08421247056097536,-0.16497558794133854,-0.08886050761502601
0.2807069,-0.11555025061379993,0.052637688277328676,-0.07430130810968262,-0.03400344938620006,-0.2041747749428478,-0.10398868711953972,-0.15284017218283732,-0.09005907160394284
0.2811724,-0.11576573453877127,0.01831230021218746,-0.0760591610799611,-0.023171816377639827,-0.26157421016355004,-0.12309642434233424,-0.13601158185531206,-0.08844486302630959
0.2816379,-0.11025242565255787,-0.02479387967401198,-0.0695275336831441,-0.013149840839545825,-0.2833000892653974,-0.1308844524483329,-0.12179609196941378,-0.08939743621191268
0.2821034,-0.09048497472569841,-0.07455509061266469,-0.06727259601508931,-0.004795974944391885,-0.28786926745333435,-0.1339879653383631,-0.10827933818282238,-0.09089321359093949
0.282569,-0.0711441052882457,-0.10961757351492826,-0.06944158865042466,0.00074327730084932,-0.28740582669968956,-0.13805597794470276,-0.09934277815932055,-0.0880189641010071
0.2830345,-0.05046001502791823,-0.11794861431716654,-0.07231439084998029,0.006488881699960571,-0.27648926391785117,-0.1360450164050138,-0.09474629464003154,-0.07351135578148771
0.2835,-0.01563794167857765,-0.10382199047662248,-0.06985894368381046,0.012988994494525782,-0.2514398534258739,-0.1168368684547256,-0.09079646238545756,-0.046201041851131615
0.2839655,0.03339218852187224,-0.07118365526653131,-0.05910122719762538,0.01783198110340867,-0.21037808661467372,-0.10880761706895571,-0.09057966635733437,-0.025354015645713025
0.284431,0.07055783928664065,-0.039410375181549835,-0.04837436031917858,0.02104076875498591,-0.16318063114504125,-0.12250238251561794,-0.09323076648934524,-0.017385907234095242
0.2848966,0.09739936630203556,-0.0018102765298094593,-0.04579446374185043,0.022397082189327525,-0.10086825786158689,-0.13993751187378164,-0.09478845200675515,-0.012091999183479446
0.2853621,0.10923149751562519,0.028867188866472177,-0.054680708630345534,0.02390900493626647,-0.04706816824960707,-0.14379045741123755,-0.09309123178800788,-0.006546622229440701
0.2858276,0.1105082370327779,0.04466748341159941,-0.06738161156003447,0.028192618802391455,0.005690276630943153,-0.13729806445713794,-0.09207326954065619,-0.0006267362669371105
0.2862931,0.10486765719175059,0.03808543308358912,-0.07428281070206236,0.03383751783677059,0.03643059880727693,-0.1349389838898641,-0.092855090161255,0.004549191837271552
0.2867586,0.08690443590229453,0.022266995928673476,-0.07793487160674215,0.040547353619280746,0.054762693177170155,-0.1477787385911885,-0.09962006064997642,0.007639270775278828
0.2872241,0.06688420445828193,0.01250998792792333,-0.07932297139756472,0.04457165508425302,0.060667817740867734,-0.1624631298129444,-0.10853545770160167,0.009445374945738277
0.2876897,0.04115884494326175,0.005453254978198995,-0.07611715524802956,0.04736374484191396,0.0368885725615744,-0.16216894797512413,-0.12218990340304071,0.014304230757224931
0.2881552,0.010304314217352683,0.0012423590969789632,-0.06616530710867635,0.052048880930241355,-0.005836732581243205,-0.1529834541781386,-0.13651680822084405,0.025047647271329857
0.2886207,-0.013651323403574634,0.0010475661901160258,-0.054483754935094934,0.05774923372053073,-0.02796261036148864,-0.15511998941498417,-0.14066879937452728,0.033509711255021085
0.2890862,-0.029625820458474672,-0.0031424862858225157,-0.04623462812789876,0.0611536513572308,-0.02416533630036151,-0.1653331643154687,-0.13516935549985795,0.03756878558627873
0.2895517,-0.04356055332994121,-0.019032457665280306,-0.03945914809765162,0.06221372531705806,-0.002313529676190662,-0.17556311717702222,-0.11985181503563296,0.04109391265852903
0.2900172,-0.04451088612863483,-0.032201276191720245,-0.043359678286067835,0.0616007,0.010564218335986168,-0.1696894816376797,-0.10742461490537189,0.04086152486862062
0.2904828,-0.045989616231447206,-0.03900343466465715,-0.054006446928008725,0.0616007,0.018105697811175173,-0.14529056708873783,-0.09943947235018509,0.04441038901706213
0.2909483,-0.05046655334109991,-0.0411085907844467,-0.06950634155660562,0.06305231695561078,0.03763317699552777,-0.10201379678110338,-0.09091592316108654,0.058254932853363896
0.2914138,0.031130911864134702,-0.041604960721640404,-0.08750419289524491,0.06451920371985101,0.0701469351375664,-0.06947989362548031,-0.07429119276622936,0.05849530752569728
0.2918793,0.2587519428934523,-0.04391261087342898,-0.09782119763134282,0.06506161861237836,0.10509172081317217,-0.05739247791856755,-0.06668302445008963,0.04545095063470628
0.2923448,0.29505017227858404,-0.0439476262594046,-0.10246537266411093,0.06702931494591718,0.11318327319105384,-0.05805521280682218,-0.05564794388008443,0.023662417770820558
0.2928103,0.13243977023962342,-0.0430895246592388,-0.10885970194477626,0.06751182137079623,0.09715268989633333,-0.06386571698110678,-0.047712467631521184,0.018930768443942567
0.2932759,-0.04500106184539858,-0.04026071916364626,-0.10675883302500545,0.06793115479091157,0.07530089163646254,-0.06298826391374415,-0.03374363414552378,0.030562779618068074
0.2937414,-0.11743465867553395,-0.03913334277985376,-0.09788078598120611,0.06764931069496344,0.06402712779853757,-0.06721584139583288,-0.025851999458976302,0.043527608031681785
0.2942069,-0.14389791963984244,-0.03614545858139024,-0.08064855598123363,0.06823588828372196,0.05400343159506733,-0.08568083679538054,-0.01990223337195074,0.04988371076991024
0.2946724,-0.15854753882151418,-0.03166994658431523,-0.053007918616227764,0.06947483233438181,0.04950139410757089,-0.11700632064329469,-0.008386347366560678,0.049781238821514175
0.2951379,-0.16023718541549004,-0.02985580287492145,-0.03369957508982454,0.06924556270395978,0.062479762171604204,-0.12784179048905667,0.002122043080494611,0.05239721873728619
0.2956034,-0.14185727694023786,-0.0274810417693362,-0.006709184299188621,0.06842499640466135,0.08649661734096545,-0.11686473804920915,0.012331994281203299,0.05681532829525487
0.296069,-0.08777121588818709,-0.023807212185767507,0.021936806500107334,0.06482466286906086,0.10735537324187984,-0.07535895427993523,0.016156988090302256,0.0505687477798279
0.2965345,-0.048901831666989436,-0.022286222074975274,0.030708026850634982,0.06359815370126996,0.10949333775608924,-0.04931630006632224,0.014242080551904937,0.03912642157124707
0.297,-0.011019043439798256,-0.0188732382042213,0.0296155382042213,0.061938074158838785,0.06638666627401227,-0.04649587415883879,0.012730179773087444,0.008730268902287768
0.2974655,0.004713956310833524,-0.01597656278725194,0.026900919098085466,0.05948187902105025,0.02029709839691859,-0.04442072711349251,0.015470282366104506,-0.02282472084005831
0.297931,0.010292761589635963,-0.012036679414682387,0.03294643668568143,0.05575312274463608,-0.023297670074453724,-0.019271570226909798,0.024879138576680913,-0.07151831643299757
0.2983966,0.014988577992404254,-0.006079881385353856,0.049815954640508905,0.05272669464128108,-0.042596418614646143,0.012694566411266442,0.03302984866032027,-0.10599169138920156
0.2988621,0.02520150653506799,0.0013092734309106953,0.07050647575867804,0.0514529596732466,-0.048642617712726204,0.04421188100697922,0.0321550475493495,-0.11666468718210254
0.2993276,0.03555993601948024,0.0067474489102271225,0.08190067105100808,0.05093503819902599,-0.045017167393181914,0.06505810463357371,0.028270636492694914,-0.109931785157758
0.2997931,0.05331032344753191,0.01483372825726492,0.08623636482082361,0.05069288273870487,-0.03041549100939362,0.0798948758523984,0.028687899307808854,-0.0738553897040999
0.3002586,0.07248698059076798,0.02360741551527314,0.0787293844062713,0.04956670443627993,-0.0236309011149233,0.07829816286906151,0.03223397861970135,-0.015718133447585197
0.3007241,0.09670714411323773,0.03431048487301404,0.07007399836374245,0.0496063484873014,-0.03879531079339546,0.06854844611600087,0.024690488552507887,0.04126261148796528
0.3011897,0.11136015559605106,0.03954373109733375,0.06667246626321649,0.050129673109733375,-0.056326607699584634,0.05925947304047431,0.018018138589141183,0.056569817721459505
0.3016552,0.12753022610118422,0.04565164912830344,0.059890700515478935,0.048438772867857895,-0.07543353000925083,0.04134522451277286,0.0172885,0.05183390051547894
0.3021207,0.14232157309239168,0.04986775631580944,0.046647622487965675,0.04633257837319485,-0.08633044732062317,0.014851710208976552,0.024648895149777104,0.023103269165187568
0.3025862,0.15596098709136938,0.04939367615802271,0.03392112019752839,0.0453500527139627,-0.08821225880910867,-0.01996929988568846,0.035994169742455354,-0.026924109831393175
0.3030517,0.16281013198117422,0.04707041289008474,0.03211320618891146,0.04330287928873824,-0.09014445674891333,-0.043766937878307974,0.04620470354421555,-0.06517371016200198
0.3035172,0.16289660721676258,0.04277304521469677,0.03581441071945662,0.03862749808587871,-0.09448515658525047,-0.053648905302641284,0.05376245287118194,-0.08191978830389775
0.3039828,0.1599625122262298,0.03511567509835798,0.029224493662293904,0.036083163088727166,-0.10119824019242146,-0.04377896792602976,0.05653334324098675,-0.047386900882380394
0.3044483,0.15895513814464005,0.026664708648794368,0.012835304708665821,0.03443996231660926,-0.1099182024730026,-0.038661097988246726,0.05897682463321851,0.009194451208241703
0.3049138,0.15417318536770055,0.03007364217696678,-0.0009576712539424084,0.03418466316347087,-0.10836594491066533,-0.037494144927000664,0.04607638467319381,0.08261980379179401
0.3053793,0.14836725112779645,0.037221928872441655,-0.004453724436101784,0.032775272384476785,-0.10387598635848573,-0.04200362824398243,0.0357140136786396,0.11323995548929044
0.3058448,0.1455409555475105,0.04629183940720342,-0.0005652546681464429,0.029737716750684935,-0.09319401009057214,-0.045995621166776565,0.024103393536922722,0.09491422477545484
0.3063103,0.1420486214924995,0.05017522488220107,0.0041375884747103615,0.023902807594266606,-0.06910241437366976,-0.059419870371912445,-0.004099048338091502,0.0412486487476438
0.3067759,0.14093300511067597,0.04776847955019024,-0.000738118944748827,0.02122225939313741,-0.057973121210882834,-0.0740215,-0.025488637825909145,0.003322754282461438
0.3072414,0.13695944729158913,0.041223533107068035,-0.0042347226110986316,0.01787941395768117,-0.05139968408548497,-0.08489528927719066,-0.03634035594414465,-0.009226883972926954
0.3077069,0.1288674626971235,0.030340438343769146,0.010523048649873315,0.01425109083281019,-0.04563937398728492,-0.0740215,-0.023209535903738945,0.008417128135686663
0.3081724,0.11693045323432728,0.011842830563495306,0.04291372653743988,0.011507975328860972,-0.036583716281901185,-0.041838311730430115,0.00021956880592397107,0.038523742134477894
0.3086379,0.10668511742817158,-0.0004531345720856628,0.06734199907889947,0.010842591746464477,-0.028357014080375595,-0.013496147362899719,0.014808119738912606,0.054846373028731375
0.3091034,0.09564834386223489,-0.005539,0.07808126190230934,0.010382670922346546,-0.018981670420772766,-0.004612662659997757,0.01779904836692575,0.05865881528615523
0.309569,0.07926031428463834,-0.005539,0.07231507153867886,0.009927400165699115,-0.006538838583464906,-0.012503238947071036,0.008391053563107612,0.053803076032571666
0.3100345,0.05750004222239725,-0.005539,0.061715911469649075,0.011113862199685923,0.005930141279958326,-0.017464758248822213,-0.009667061728466458,0.045068654769177964
0.3105,0.03596921724051118,-0.00892756824089968,0.06398216824089968,0.013710313266108857,0.013840564770680923,-0.008410298593828174,-0.024519677883098237,0.03829141849299146
0.3109655,0.015329011905130696,-0.01438073088498911,0.07679224816374183,0.014557487646004357,0.015954213970895446,0.008738324718139501,-0.028497501616899804,0.03399392838050762
0.311431,0.0006472722821421555,-0.020312764743408752,0.08124127355755656,0.0121846741026365,0.01639907233367684,0.035580645397688154,-0.02656954643631334,0.029841504679613873
0.3118966,-0.01659054575572773,-0.03365904226687905,0.07152302528649503,0.008016333039177308,0.022426416187485247,0.07980615913648496,-0.021958490179746895,0.021614569028393513
0.3123621,-0.024981704066643934,-0.04792406972002344,0.04774792398402877,0.003121400426901293,0.032495822824752364,0.07644966248378314,-0.017203536575924338,0.012384286554301852
0.3128276,-0.029694739357863053,-0.06560217891376467,0.00735428893503271,-0.0050643025198374905,0.046047523705092096,0.00852453638615425,-0.01288236404857248,-0.0026172055324836458
0.3132931,-0.026051057608961935,-0.07218224888285873,-0.013494535173688024,-0.0109561679496087,0.05183335777244675,-0.04340864487054782,-0.011977211340250565,-0.013177222353531505
0.3137586,-0.022617563657841504,-0.07385360697456995,-0.019848244769072532,-0.01472875523092747,0.0613904985306913,-0.03472548336193996,-0.02056080955817844,-0.019155776597993283
0.3142241,-0.02690173190765795,-0.07478465343416922,-0.018374558340125254,-0.015122106868338443,0.06965033883569166,0.005565450729376653,-0.0381434721364974,-0.019693491228974406
0.3146897,-0.04458479428373621,-0.07588048037262607,-0.017287890807356484,-0.01591684995290579,0.08192429683134639,0.07276399183031447,-0.0820809255128768,-0.02293770183237829
0.3151552,-0.06622224752077598,-0.07745961344356926,-0.01577222688713853,-0.018137515743550322,0.08913923539179144,0.11531670228044937,-0.10889495869366173,-0.025595643925741884
