Time,Rectus Femoris right,Rectus Femoris left,Hamstrings right,Hamstrings left,TibilaisÂ Anterior right,TibilaisÂ Anterior left,Gastrocnemius right,Gastrocnemius left
0.0,-0.0005208978180884202,0.003081347009037091,0.0016774985035935767,0.0031228937895533093,0.0047020810901448025,0.003064587524939935,-0.0017587925521485156,0.015663080096629707
0.0005192,-0.00043468670229074936,0.0033510793335102965,0.0017135020377616584,0.003222148638809236,0.005008377935572185,0.003148275959902508,-0.0017150742954647703,0.015811996865340003
0.0010385,-0.00034748571914780784,0.0036199406568638596,0.0017495865316880293,0.0033210800463481863,0.005314834264820311,0.0032328673265028672,-0.0016713792962153291,0.01596024011269832
0.0015577,-0.00025929735093678226,0.0038878900391258924,0.0017857475503646547,0.003419672238992124,0.00562140864853302,0.003318363563627604,-0.001627712895291279,0.01610777967596017
0.0020769,-0.0001701242912852785,0.0041548867270974005,0.0018219806337239843,0.0035179095024941175,0.0059280595661994,0.0034047665445079136,-0.0015840804249063944,0.016254585444690637
0.0025962,-7.996944647868579e-05,0.004420890167549621,0.0018582812978063488,0.003615776186634388,0.0062347454181990915,0.003492078076397787,-0.0015404872071149778,0.01640062737092067
0.0031154,1.1164063267717222e-05,0.004685860020344704,0.001894645035933744,0.003713256710293451,0.006541424537889322,0.00358029990024462,-0.0014969385523401263,0.01654587547935094
0.0036346,0.00010327290257253755,0.00494975617147102,0.0019310673198891012,0.003810335566498648,0.006848055203726563,0.0036694336903511033,-0.0014534397579132894,0.016690299877598645
0.0041538,0.0001963535196885493,0.005212538745984388,0.001967543601100135,0.003906997327440651,0.007154595651416036,0.00375948105402724,-0.001409996106625931,0.016833870766482507
0.0046731,0.000290402145340112,0.005474168120846497,0.0020040693118268584,0.004003226649456787,0.007461004086082558,0.003850443531231347,-0.0013666128652940744,0.016976558450341014
0.0051923,0.00038541479159836297,0.00573460493765183,0.002040639866351878,0.004099008277978272,0.007767238694456486,0.003942322594198872,-0.0013232952833364736,0.017118333347378962
0.0057115,0.0004813872507948326,0.005993810115234428,0.0020772506621725907,0.0041943270524386,0.008073257657068768,0.004035119647057869,-0.0012800485913671182,0.017259166000037178
0.0062308,0.0005783150944741461,0.006251744862145887,0.0021138970811944544,0.004289167911140449,0.008379019160449178,0.004128836025429971,-0.00123687799980276,0.01739902708538028
0.00675,0.0006761936723864875,0.006508370688996101,0.002150574490924531,0.004383515896078477,0.008684481409321957,0.004223472996015689,-0.0011937886974861282,0.017537887425497157
0.0072692,0.0007750181115205126,0.006763649420648313,0.002187278245664574,0.004477356157715475,0.008989602638792999,0.004319031756162876,-0.0011507858503254653,0.017675717997908773
0.0077885,0.0008747833151773991,0.007017543208260151,0.002224003687702966,0.004570673959709332,0.009294341126522766,0.004415513433417196,-0.0011078745999510003,0.017812489945977783
0.0083077,0.0009754839620867275,0.007270014541162448,0.002260746148504866,0.00466345468358835,0.00959865520487924,0.004512919085053463,-0.0010650600623889443,0.0179481745893143
0.0088269,0.0010771145055648932,0.007521026258567756,0.002297500949899946,0.0047556838333724484,0.00990250327306522,0.004611249697586754,-0.0010223473267535683,0.018082743434172075
0.0093462,0.0011796691727167683,0.007770541561100592,0.002334263405267124,0.004847347040137853,0.010205843809214424,0.004710506186262165,-0.0009797414539578846,0.018216168183829186
0.0098654,0.00128314196368136,0.008018524022141649,0.0023710288207157,0.004938430066522929,0.01050863538245094,0.004810689394522115,-0.0009372474754434,0.018348420748947235
0.0103846,0.0013875266509222508,0.008264937598978376,0.0024077924962623213,0.005028918811172945,0.010810836664906578,0.004911800093450053,-0.0008948703919293425,0.01847947325790297
0.0109038,0.001492816778563651,0.00850974664375456,0.0024445497270032097,0.005118799313121639,0.011112406443690707,0.005013838981189391,-0.0008526151721817133,0.018609298067086125
0.0114231,0.0015990056617729287,0.008752915914211783,0.002481295804281106,0.0052080577561076135,0.011413303632807093,0.00511680668233646,-0.0008104867518024566,0.01873786777115726
0.0119423,0.0017060863861905282,0.00899441058421594,0.002518026016846401,0.005296680472823684,0.0117134872850123,0.005220703747306286,-0.0007684900320390019,0.018865155213259266
0.0124615,0.0018140518074082116,0.00923419625406235,0.0025547356520119486,0.005384653949097405,0.012012916603610157,0.005325530651669911,-0.0007266298786143971,0.01899113349517618
0.0129808,0.001922894550496605,0.00947223896055336,0.0025914199968010655,0.005471964828001063,0.012311550954176794,0.005431287795461969,-0.0006849111205782121,0.0191157759874329
0.0135,0.0020326070095830484,0.009708505186842903,0.002628074339088276,0.005558599913889422,0.012609349876210759,0.005537975502457217,-0.0006433385491783669,0.01923905633932921
0.0140192,0.002143181347480794,0.009942961872042874,0.002664693968732376,0.005644546176363564,0.012906273094702714,0.005645594019414679,-0.0006019169167540158,0.019360948488901613
0.0145385,0.002254609495370612,0.010175576420586753,0.002701274178701434,0.005729790754159127,0.013202280531619112,0.005754143515288004,-0.0005606509356495963,0.019481426672806283
0.0150577,0.002366883152535889,0.01040631671134641,0.002737810266189355,0.005814320958957241,0.013497332317294256,0.005863624080400653,-0.0005195452771501312,0.019600465436116446
0.0155769,0.0024799937861523097,0.010635151106498503,0.0027742975337236926,0.00589812427911648,0.013791388801725096,0.005974035725584497,-0.00047860457043785617,0.01971803964202735
0.0160962,0.0025939326311332223,0.010862048460137438,0.002810731290264366,0.005981188383324119,0.01408441056576316,0.006085378381280412,-0.00043783340157022455,0.019834124481462042
0.0166154,0.002708690690031786,0.011086978126632294,0.0028471068522930004,0.006063501124164976,0.014376358432198068,0.0061976518965994555,-0.000397236312479327,0.01994869548257105
0.0171346,0.0028242587330009786,0.011309909968725707,0.0028834195448925884,0.006145050541606138,0.014667193476727236,0.0063108560383432774,-0.0003568177999927471,0.020061728520119074
0.0176538,0.0029406272978125332,0.011530814365373095,0.0029196647028171784,0.006225824866395891,0.014956877038806467,0.006424990489982552,-0.0003165823148758592,0.020173199824751683
0.0181731,0.0030577866899358665,0.011749662219321007,0.002955837671551293,0.006305812523375217,0.015245370732376395,0.006540054850592279,-0.00027653426089556074,0.020283085992135196
0.0186923,0.003175726982678018,0.011966424964423697,0.0029919338083587545,0.006385002134700334,0.01553263645646001,0.006656048633742967,-0.00023667799390541638,0.020391363991962768
0.0192115,0.003294438017385633,0.012181074572697095,0.0030279484833205883,0.006463382522974839,0.015818636405626734,0.006772971266346779,-0.00019701782095217835,0.020498011176819764
0.0197308,0.0034139094037099766,0.012393583561109409,0.0030638770803616652,0.006540942714290145,0.016103333080318867,0.006890822087457746,-0.00015755799940363397,0.02060300529090151
0.02025,0.003534130519935968,0.012603924998107556,0.003099714998265734,0.006617671941173049,0.016386689297036502,0.007009600347025236,-0.00011830273609772189,0.020706324478576402
0.0207692,0.0036550905133761803,0.012812072509878597,0.0031354576516785322,0.006693559645439411,0.01666866819837731,0.007129305204599776,-7.925618651284564e-05,0.02080794729278736
0.0212885,0.003776778300830747,0.013018000286345269,0.003171100472098665,0.00676859548095312,0.016949233262927754,0.007249935727990409,-4.0422453959304514e-05,0.020907852703284515
0.0218077,0.0038991825691140837,0.013221683086894745,0.0032066389088559848,0.00684276931628963,0.01722834831500254,0.007371490891872699,-1.8055887917527e-06,0.021006020104682166
0.0223269,0.004022291775649308,0.013423096245839797,0.0032420684300772454,0.00691607123730349,0.017505977534229,0.007493969576346525,3.659041235740939e-05,0.021102429324332993
0.0228462,0.004146094149131216,0.01362221567761158,0.0032773845236388423,0.0069884915495993455,0.017782085464973285,0.007617370565442805,7.47616073238146e-05,0.021197060630012653
0.0233654,0.0042705776902586395,0.01381901788168345,0.0033125826981064755,0.00706002078090599,0.018056637025605254,0.007741692545578308,0.00011270410913618724,0.021289894737408086
0.0238846,0.004395730172536976,0.014013479947225415,0.0033476584836616024,0.007130649683353064,0.018329597517599175,0.00786693410395783,0.00015041408672079228,0.021380912817402866
0.0244038,0.004521539143151678,0.014205579557489046,0.0033826074330145714,0.007200369235650054,0.018600932634467597,0.0079930937269231,0.00018788776558539017,0.021470096503153163
0.0249231,0.004647991923913447,0.01439529499392297,0.0034174251223043637,0.007269170645167287,0.018870608470526008,0.008120169798248027,0.00022512142848281423,0.021557427896948044
0.0254423,0.004775075612275849,0.014582605140019448,0.0034521071519848733,0.007337045349918671,0.019138591529486278,0.008248160597380018,0.0002621114160542878,0.021642889576848044
0.0259615,0.004902777082426037,0.014767489484892773,0.003486649147697719,0.007403985020445941,0.01940484873287707,0.008377064297627267,0.0002988541274525979,0.021726464603096414
0.0264808,0.005031082986449231,0.01494992812659067,0.003521046761131601,0.0074699815616042,0.019669347428289824,0.00850687896429201,0.00033534602094524227,0.021808136524297722
0.027,0.005159979755567577,0.015129901775140205,0.0035552956708682654,0.0075350271142485,0.01993205539744916,0.008637602552749786,0.0003715836144976642,0.02188788938335881
0.0275192,0.005289453601453952,0.015307391755330118,0.003589391583215198,0.0075991140568212176,0.020192940864106904,0.008769232906474777,0.0004075634863366883,0.021965707723187636
0.0280385,0.005419490517621267,0.015482380009231784,0.0036233302330251466,0.007662235006839907,0.020451972501759057,0.008901767755011428,0.00044328227549427,0.022041576592145486
0.0285577,0.005550076280887752,0.01565484909846136,0.003657107384502632,0.007724382822285286,0.020709119441185482,0.0090352047118927,0.0004787366823316703,0.022115481549248514
0.0290769,0.005681196452918711,0.015824782206185953,0.003690718831997602,0.007785550602888945,0.020964351277812068,0.009169541272505547,0.0005139234690441652,0.022187408669114506
0.0295962,0.005812836381845167,0.015992163138876997,0.0037241604007863835,0.007845731691320398,0.02121763807889532,0.009304774811904453,0.0005488394601463998,0.02225734454665103
0.0301154,0.005944981203959794,0.016156976327814185,0.003757427947840109,0.00790491967427309,0.021468950390529415,0.00944090258257419,0.0005834815429384927,0.022325276301481387
0.0306346,0.006077615845490492,0.016319206830343633,0.003790517362580774,0.007963108383449012,0.021718259244475707,0.009577921712143143,0.0006178466679529969,0.022391191582105383
0.0311538,0.006210725024451914,0.01647884033089406,0.0038234245676250765,0.008020291896441569,0.02196553616481475,0.009715829201048859,0.0006519318493828192,0.022455078569792734
0.0316731,0.006344293252575216,0.01663586314175499,0.003856145519516186,0.008076464537516393,0.022210753174420825,0.009854621920157543,0.0006857341654902,0.022516925982207878
0.0321923,0.006478304837316224,0.016790262203621044,0.003888676209443551,0.008131620878289773,0.022453882801258877,0.009994296608339516,0.0007192507589968475,0.022576723076765847
0.0327115,0.006612743883942192,0.016942025085906427,0.0039210126639508186,0.008185755738304431,0.022694898084503614,0.010134849870002708,0.0007524788374553204,0.02263445965371973
0.0332308,0.006747594297697271,0.017091139986833828,0.003953150945631942,0.008238864185502497,0.022933772580480637,0.010276278172586448,0.0007854156736017463,0.022690126058981124
0.03375,0.006882839786046753,0.017237595733301844,0.003985087153815481,0.008290941536595759,0.02317048036842938,0.01041857784401786,0.0008180586056899583,0.02274371318667554
0.0342692,0.007018463861000115,0.01738138178053513,0.0040168174252371005,0.008341983357333535,0.023404996056087698,0.010561745070133292,0.0008504050378071242,0.02279521248143525
0.0347885,0.007154449841512838,0.01752248821152136,0.004048337934700224,0.008391985462668906,0.02363729478509826,0.010705775892067169,0.0008824524401709405,0.022844615940432494
0.0353077,0.0072907808559669164,0.01766090573623909,0.004079644895724817,0.008440943916824402,0.023867352236236927,0.010850666203610762,0.0009141983494084561,0.022891916115156206
0.0358269,0.007427439844729944,0.017796625690680523,0.0041107345611842375,0.008488855033258596,0.024095144634463432,0.010996411748543333,0.0009456403688165828,0.02293710611293575
0.0363462,0.007564409562792601,0.017929640035673034,0.004141603223930129,0.008535715374535322,0.024320648753794877,0.011143008117938046,0.000976776168604347,0.02298017959821524
0.0368654,0.0077016725824843165,0.018059941355503477,0.004172247217405294,0.008581521752097445,0.024543841922002447,0.011290450747445047,0.0010076034861169318,0.023021130793582027
0.0373846,0.00783921129626685,0.018187522856348993,0.004202662916244514,0.008626271225947208,0.0247647020251316,0.01143873491455399,0.001038120126041554,0.023059954480553004
0.0379038,0.007977007919605494,0.018312378364518052,0.004232846736863304,0.008669961104235294,0.02498320751184593,0.011587855735838246,0.0010683239605952135,0.02309664600012231
0.0384231,0.00811504449391752,0.018434502324505317,0.004262795138034561,0.008712588942760717,0.025199337397594633,0.011737808164183022,0.0010982129296943546,0.023131201253073934
0.0389423,0.008253302889597497,0.0185538897968638,0.004292504621453086,0.008754152544383678,0.025413071268603413,0.011888586985999575,0.001127785041106464,0.023163616700062527
0.0394615,0.008391764809119013,0.018670536455897623,0.004321971732287981,0.008794649958353516,0.02562438928568842,0.01204018681842761,0.001157038370583636,0.02319388936146572
0.0399808,0.008530411790212331,0.01878443858717855,0.004351193059722897,0.008834079479553785,0.02583327218789267,0.012192602106528068,0.0011859710619781224,0.023222016817010943
0.0405,0.008669225209117535,0.018895593084889327,0.004380165237484158,0.008872439647666569,0.02603970129594424,0.012345827120468403,0.0012145813273398878,0.023247997205179647
0.0410192,0.008808186283912656,0.01900399744899669,0.004408884944356762,0.00890972924625806,0.026243658515535343,0.012499855952702473,0.0012428674469961822,0.0232718292223917
0.0415385,0.008947276077916386,0.019109649782256783,0.004437348904688302,0.008945947301787481,0.0264451263404213,0.01265468251514721,0.0012708277696131447,0.023293512121972705
0.0420577,0.009086475503164911,0.019212548787055698,0.00446555388888083,0.008981093082541379,0.02664408785533809,0.01281030053635819,0.0012984607122394551,0.023313045712906755
0.0425769,0.009225765323962475,0.019312693762087673,0.00449349671387069,0.009015166097495319,0.026840526738737203,0.012966703558706329,0.0013257647603320685,0.023330430358377157
0.0430962,0.009365126160505248,0.019410084598873525,0.00452117424359636,0.009048166095104957,0.027034427265336527,0.013123884935557878,0.0013527384677640918,0.023345666974097602
0.0436154,0.00950453849257809,0.019504721778121965,0.004548583389454317,0.00908009306202844,0.0272257743084857,0.01328183782846001,0.0013793804568148999,0.02335875702643624
0.0441346,0.009643982663323792,0.01959660636593646,0.004575721110742934,0.009110947221782035,0.02741455334234467,0.013440555204334268,0.0014056894181426196,0.023369702530334855
0.0446538,0.009783438883084344,0.019685740009870445,0.0046025844150944465,0.009140729033330788,0.02760075044387415,0.013600029832680226,0.0014316641107391544,0.023378506047025467
0.0451731,0.009922887233313735,0.01977212493483374,0.004629170358894973,0.009169439189616014,0.02778435229463677,0.01376025428279171,0.0014573033618679378,0.023385170681546462
0.0456923,0.010062307670561788,0.019855763938853212,0.004655476047692611,0.0091970786160213,0.02796534618240796,0.013921220920987874,0.0014826060669846136,0.023389700080060343
0.0462115,0.010201680030528456,0.01993666038869082,0.004681498636593559,0.00922364846877866,0.02814372000259574,0.014082921907861461,0.0015075711896408428,0.02339209842697504
0.0467308,0.010340984032187993,0.020014818215322337,0.004707235330646243,0.009249150133316378,0.02831946225946905,0.01424534919554647,0.001532197761371429,0.02339237044187058
0.04725,0.010480199281982367,0.020090241909280136,0.004732683385213355,0.009273585222550113,0.02849256206719428,0.014408494525007452,0.0015564848815649577,0.023390521376233
0.0477692,0.010619305278083312,0.020162936515863625,0.004757840106331759,0.009296955575118587,0.02866300915068006,0.014572349423352577,0.001580431717318138,0.023386557009997148
0.0482885,0.010758281414722397,0.020232907630220967,0.004782702851060173,0.009319263253565283,0.02883079384623049,0.014736905201172672,0.0016040375032740544,0.02338048364790014
0.0488077,0.010897106986588549,0.020300161392305904,0.0048072690278145955,0.009340510542467375,0.028995907102007216,0.014902152949908301,0.0016273015414445522,0.023372308115647236
0.0493269,0.011035761193292503,0.020364704481713496,0.004831536096691459,0.009360699946513128,0.029158340478300824,0.015068083539247113,0.0016502232010170061,0.0233620377558917
0.0498462,0.01117422314389765,0.020426544112398626,0.004855501569778509,0.009379834188528884,0.029318086147612252,0.015234687614553594,0.0016728019181457324,0.023349680424030392
0.0503654,0.01131247186151681,0.020485688027280968,0.004879163011453453,0.009397916207456737,0.029475136894544854,0.015401955594333402,0.0016950371957283196,0.02333524448381666
0.0508846,0.011450486287974359,0.020542144492740125,0.004902518038670418,0.009414949156283983,0.029629486115507794,0.015569877667734542,0.0017169286031671629,0.023318738802792133
0.0514038,0.011588245288533205,0.020595922293004488,0.004925564321234325,0.009430936399925397,0.029781127818231588,0.015738443792087605,0.0017384757761164764,0.023300172747539042
0.0519231,0.011725727656686032,0.020647030724437233,0.0049482995820632845,0.009445881513059414,0.029930056621096886,0.01590764369048733,0.001759678416215063,0.023279556178754643
0.0524423,0.011862912119010124,0.020695479589722825,0.004970721597439157,0.009459788277919334,0.0300762677522779,0.016077466849417753,0.0017805362908051138,0.023256899446149386
0.0529615,0.01199977734008519,0.020741279191957368,0.0049928281972464635,0.009472660682040723,0.030219757048702132,0.016247902516423128,0.0018010492326373199,0.023232213383170403
0.0534808,0.012136301927473486,0.020784440328646153,0.005014617265199856,0.009484502915966272,0.030360520954828565,0.016418939697826696,0.0018212171395625837,0.023205509301552005
0.054,0.012272464436761606,0.020824974285611766,0.005036086739060391,0.009495319370909461,0.03049855652124666,0.0165905671564994,0.001841039974210637,0.023176798985694913
0.0545192,0.012408243376663316,0.02086289283081617,0.00505723461084083,0.00950511463637856,0.030633861403098785,0.0167627734096807,0.001860517763655884,0.023146094686876294
0.0550385,0.012543617214182751,0.020898208208100257,0.005078058927000181,0.009513893497762533,0.030766433858328997,0.016935546726853747,0.001879650599070803,0.02311340911729291
0.0555577,0.012678564379837281,0.020930933130844334,0.005098557788627686,0.009521660933880615,0.030896272745761125,0.01710887512767721,0.0018984386353672494,0.02307875544393993
0.0560769,0.0128130632729393,0.02096108077555305,0.005118729351616398,0.009528422114497281,0.0310233775230094,0.017282746379976233,0.001916882090826003,0.023042147282328344
0.0565962,0.012947092266936147,0.020988664775368357,0.00513857182682648,0.009534182397804476,0.031147748244224838,0.017457147997794988,0.00193498124671489,0.023003598690043908
0.0571154,0.013080629714807295,0.0210136992135141,0.005158083480238308,0.009538947327872797,0.03126938555768074,0.017632067239513344,0.0019527364468958054,0.02296312416015091
0.0576346,0.013213653954517757,0.021036198616675703,0.005177262633095445,0.009542722632073434,0.03138829070320063,0.017807491106030124,0.0019701480974209386,0.022920738614444033
0.0581538,0.013346143314526738,0.021056177948318617,0.005196107662037533,0.009545514218472521,0.03150446550943217,0.017983406339015524,0.0019872166661185006,0.02287645739655177
0.0586731,0.013478076119350344,0.02107365260194901,0.0052146169992231435,0.009547328173199655,0.031617912390970705,0.01815979941923515,0.002003942682168226,0.02283029626489509
0.0591923,0.013609430695177225,0.02108863839432022,0.00523278913244263,0.009548170757792209,0.03172863434533621,0.01833665656494813,0.0020203267356669182,0.02278227138550507
0.0597115,0.013740185375535853,0.02110115155858837,0.005250622605220994,0.009548048406517112,0.03183663494980756,0.018513963730381708,0.002036369477184296,0.022732399324703317
0.0602308,0.013870318507012175,0.021111208737420378,0.005268116016910836,0.00954696772367169,0.03194191835811791,0.018691706604284698,0.002052071617309377,0.022680697041649312
0.06075,0.01399980845501634,0.02111882697605754,0.0052852680227754,0.00954493548086512,0.032044489297014804,0.018869870608562253,0.0020674339261876405,0.022627181880759028
0.0612692,0.01412863360959703,0.02112402371533766,0.005302077334061753,0.009541958614281983,0.03214435306268855,0.019048440896994503,0.0020824572330491856,0.02257187156399953
0.0617885,0.01425677239130201,0.02112681678467857,0.005318542718064143,0.009538044221929354,0.032241515517071925,0.019227402354041724,0.0020971424257281044,0.022514784183064757
0.0623077,0.014384203257083358,0.021127224395025714,0.005334662998177555,0.009533199560868759,0.03233598308401425,0.019406739593738776,0.002111490450173272,0.022455938191438027
0.0628269,0.014510904706245763,0.0211252651317664,0.005350437053941485,0.009527432044434313,0.03242776274533264,0.019586436958681543,0.0021255023099507504,0.022395352396347067
0.0633462,0.014636855286436231,0.021120957947613164,0.005365863821073952,0.009520749239438235,0.032516862036743054,0.019766478519108212,0.0021391790657379946,0.022333045950617428
0.0638654,0.01476203359967339,0.021114322155458665,0.005380942291495712,0.00951315886336491,0.03260328904367357,0.0199468480720782,0.00215252183481005,0.02226903834443051
0.0643846,0.014886418308414535,0.02110537742120444,0.005395671513344664,0.00950466878155458,0.03268705239696224,0.02012752914075155,0.002165531790517909,0.022203349396992367
0.0649038,0.015009988141658496,0.02109414375656586,0.0054100505909804066,0.00949528700437772,0.03276816126844142,0.02030850497377158,0.0021782101617591923,0.022135999248119518
0.0654231,0.015132721901082294,0.021080641511855513,0.005424078684978881,0.009485021684401036,0.032846625366410656,0.020489758544753635,0.002190558232441322,0.02206700834974802
0.0659423,0.015254598467209689,0.021064891368747306,0.005437755012117085,0.009473881113546039,0.03292245493099983,0.020671272551882714,0.002202577340937334,0.021996397457372086
0.0664615,0.015375596805609557,0.02104691433302345,0.0054510788453478315,0.009461873720240993,0.032995660729424024,0.0208530294176227,0.0022142688795344753,0.021924187621418473
0.0669808,0.015495695973122203,0.021026731727306486,0.0054640495137645104,0.009449008066566999,0.03306625405113181,0.021035011288539938,0.00222563429387572,0.021850400178562785
0.0675,0.015614875124111608,0.0210043651837784,0.005476666402555853,0.00943529284539892,0.033134246702848306,0.021217200035243695,0.0022366750823943344,0.021775056742993713
0.0680192,0.015733113516741656,0.02097983663688879,0.005488928952950679,0.009420736877541757,0.03319965100351435,0.021399577252445956,0.0022473927957416115,0.02169817919763116
0.0685385,0.01585039051927428,0.020953168316054045,0.005500836662152583,0.009405349108862978,0.033262479779122986,0.021582124259142826,0.0022577890362078827,0.02161978968530403
0.0690577,0.01596668561638738,0.02092438273834927,0.005512389083264495,0.009389138607421325,0.03332274635745435,0.02176482209891968,0.0022678654571369142,0.021539910599893238
0.0695769,0.01608197841551035,0.020893502701194635,0.005523585825202997,0.00937211456059246,0.03338046456270977,0.021947651540382012,0.0022776237623337693,0.02145856457744535
0.0700962,0.01619624865317482,0.02086055127503773,0.005534426552602307,0.009354286272191807,0.033435648710045764,0.022130593077713805,0.0022870657054662306,0.021375774487262095
0.0706154,0.01630947620137821,0.02082555179603338,0.005544910985707757,0.009335663159594878,0.03348831360000837,0.022313626931365235,0.0022961930894598486,0.02129156342297086
0.0711346,0.01642164107395743,0.020788527858722292,0.005555038900258604,0.00931625475085535,0.033538474512868365,0.022496733048871374,0.00230500776588668,0.021205954693581157
0.0716538,0.016532723432970096,0.020749503308709817,0.005564810127359984,0.009296070681821034,0.03358614720285772,0.022679891105803478,0.0023135116343477734,0.021118971814532005
0.0721731,0.016642703595080327,0.020708502235346003,0.005574224553343825,0.0092751206932479,0.033631347892307886,0.022863080506854275,0.0023217066418494367,0.021030638498734978
0.0726923,0.0167515620379462,0.02066554896440821,0.005583282119618505,0.009253414627912158,0.033674093265690735,0.023046280387058582,0.0023295947821733234,0.020940978647617785
0.0732115,0.016859279406605688,0.02062066805078741,0.005591982822507094,0.009230962427720448,0.03371440046356359,0.023229469613150717,0.0023371780952403582,0.02085001634217288
0.0737308,0.0169658365198579,0.020573884271179448,0.005600326713073939,0.009207774130818094,0.033752287076420466,0.023412626785060307,0.002344458666468523,0.020757775834015578
0.07425,0.017071214376636286,0.020525222616782468,0.005608313896939422,0.009183859868695413,0.03378777113845198,0.023595730237548213,0.002351438626124507,0.020664281536455997
0.0747692,0.017175394162370496,0.020474708286001883,0.005615944534082705,0.009159229863292059,0.033820871121216914,0.023778758041984507,0.002358120148669209,0.020569558015588924
0.0752885,0.017278357255333478,0.020422366677164194,0.005623218838632306,0.00913389442409943,0.03385160592722856,0.0239616880082706,0.0023645054520970953,0.020473629981405714
0.0758077,0.017380085232970396,0.020368223381241123,0.005630137078644383,0.009107863945261191,0.033879994883458955,0.024144497686907452,0.0023705967972693868,0.02037652227893206
0.0763269,0.017480559878205973,0.02031230417458555,0.0056366995758686395,0.009081148902672023,0.033906057734763906,0.02432716437121181,0.002376396487241061,0.020278259879395435
0.0768462,0.017579763185726932,0.020254635011680778,0.005642906705501826,0.009053759851074655,0.03392981463723153,0.024509665099682474,0.002381906866581643,0.02017886787142585
0.0773654,0.017677677368236226,0.02019524201790461,0.005648758895928845,0.00902570742115526,0.033951286151456754,0.024691976658518737,0.002387130320689747,0.020078371452293537
0.0778846,0.017774284862675814,0.020134151482309747,0.00565425662845153,0.008997002316637255,0.03397049323574406,0.024874075584293172,0.002392069275101351,0.01997679591918698
0.0784038,0.017869568336414704,0.020071389850421752,0.005659400437005215,0.008967655311373592,0.03398745723924049,0.025055938166781207,0.0023967261947917618,0.019874166660534733
0.0789231,0.01796351069339898,0.02000698371705594,0.005664190907863256,0.008937677246437651,0.03400219989500091,0.025237540451950015,0.0024011035834712417,0.01977050914737435
0.0794423,0.018056095080260563,0.019940959819154273,0.005668628679329707,0.008907079027212914,0.03401474331298751,0.025418858245109404,0.0024052039828742723,0.019665848924771717
0.0799615,0.018147304892381373,0.019873345028643352,0.005672714441420349,0.008875871620481706,0.03402510997300557,0.025599867114227206,0.002409029972042422,0.019560211603293923
0.0804808,0.01823712377990938,0.019804166345314594,0.005676448935532324,0.008844066051513352,0.03403332271757757,0.025780542393411553,0.0024125841666007954,0.01945362285053883
0.081,0.01832553565372304,0.019733450889727732,0.005679832954102656,0.008811673401152164,0.034039404744757716,0.02596085918656235,0.002415869218028052,0.019346108382724318
0.0815192,0.018412524691340394,0.019661225896138765,0.0056828673402559175,0.008778704802905764,0.034043379600888816,0.026140792371194044,0.0024188878129199785,0.01923769395634012
0.0820385,0.01849807534276913,0.019587518705453576,0.005685552987441367,0.0087451714400342,0.03404527117330341,0.02632031660243174,0.002421642672246606,0.01912840535986508
0.0825577,0.018582172336293702,0.01951235675820854,0.0056878908390598755,0.008711084542640338,0.034045103682970694,0.026499406317182526,0.0024241365506028558,0.01901826840555263
0.0830769,0.018664800684195633,0.019435767587579526,0.00568988188808093,0.00867645538476197,0.034042901677091,0.026678035738483777,0.002426372235452692,0.01890730892128713
0.0835962,0.018745945688403032,0.019357778812420838,0.005691527176650068,0.00864129528146603,0.03403869002163911,0.026856178880030165,0.0024283525463667435,0.01879555274251376
0.0841154,0.01882559294606534,0.019278418130335637,0.005692827795687116,0.008605615585945279,0.034032493893857894,0.027033809550880954,0.0024300803342533457,0.01868302570424443
0.0846346,0.018903728355049203,0.019197713310779633,0.00569378488447557,0.008569427686617804,0.03402433877470369,0.027210901360349062,0.002431558480582961,0.018569753633142082
0.0851538,0.018980338119351344,0.019115692188199803,0.005694399630243552,0.008532743004229649,0.03401425044124484,0.02738742772307324,0.0024327898966059187,0.01845576233968561
0.0856731,0.01905540875442419,0.019032382655210053,0.005694673267736737,0.008495572988960944,0.03400225495901475,0.027563361864274664,0.002433777522563459,0.018341077610417564
0.0861923,0.019128927092409834,0.018947812655805744,0.005694607078783693,0.008457929117535857,0.03398837867432089,0.027738676825199076,0.0024345243268920807,0.01822572520027667
0.0867115,0.019200880287277882,0.018862010178619,0.0056942023918540715,0.008419822890336687,0.033972648206511205,0.02791334546874557,0.002435033305421252,0.018109730825017083
0.0872308,0.019271255819862432,0.018775003250216683,0.00569346058161011,0.00838126582852242,0.033955090440199266,0.02808734048528302,0.0024353074805645828,0.01799312015371636
0.08775,0.019340041502793455,0.018686819928442844,0.0056923830684518836,0.008342269471152018,0.03393573251744944,0.02826063439865514,0.002435349900504607,0.017875918801373892
0.0882692,0.019407225485317755,0.01859748829580743,0.005690971318056772,0.00830284537231272,0.03391460182992331,0.028433199572374803,0.0024351636383713703,0.017758152321601692
0.0887885,0.01947279625800462,0.01850703645292291,0.005689226840913613,0.00826300509825365,0.033891726010988346,0.028605008216008268,0.0024347517914150465,0.0176398461994093
0.0893077,0.01953674265733123,0.018415492511990494,0.005687151191851982,0.00822276022452503,0.033867132927789804,0.0287760323917496,0.0024341174801728333,0.017521025844084583
0.0898269,0.019599053870143022,0.01832288459033748,0.005684745969567055,0.008182122333123362,0.03384085067328679,0.028946244021185473,0.002433263847630416,0.017401716582172273
0.0903462,0.019659719437984294,0.01822924080400722,0.005682012816140513,0.00814110300964295,0.033812907558253336,0.029115614892250258,0.002432194058378307,0.017281943650551947
0.0908654,0.01971872926129444,0.01813458926140308,0.005678953416557914,0.00809971384043415,0.03378333210324563,0.029284116666371228,0.0024309112977633977,0.01716173218961719
0.0913846,0.01977607360346537,0.018038958056987776,0.0056755694982229595,0.008057966409768797,0.03375215303053718,0.029451720885803494,0.002429418771036084,0.017041107236557634
0.0919038,0.01983174309475592,0.017942375265039234,0.005671862830469074,0.008015872297013322,0.03371939925602378,0.029618398981154034,0.002427719702493328,0.016920093718745578
0.0924231,0.019885728736059143,0.017844868933464163,0.005667835224068686,0.007973443073810246,0.03368509988110063,0.02978412227909399,0.0024258173346180484,0.016798716447228915
0.0929423,0.019938021902518744,0.017746467077670282,0.005663488530740601,0.007930690301268787,0.03364928418451409,0.029948862010258176,0.0024237149272152304,0.016677000110332175
0.0934615,0.019988614346991104,0.017647197674498082,0.005658824642655823,0.007887625527165473,0.03361198161419058,0.03011258931733045,0.0024214157565451383,0.016554969267367436
0.0939808,0.02003749820334952,0.01754708865621284,0.0056538454919421435,0.0078442602831557,0.03357322177904508,0.030275275263313382,0.0024189231144540347,0.016432648342456994
0.0945,0.020084665989627607,0.017446167904557462,0.00564855305018782,0.00780060608199719,0.03353303444077177,0.030436890839980413,0.0024162403075027906,0.016310061618469575
0.0950192,0.020130110610998973,0.017344463244866673,0.005642949327944635,0.007756674414786295,0.0334914495056191,0.030597406976508295,0.0024133706560937745,0.016187233231071952
0.0955385,0.020173825362590183,0.017242002440242914,0.005637036374230595,0.007712476748208124,0.03344849701615159,0.030756794548287558,0.002410317493596396,0.016064187162897682
0.0960577,0.02021580393212424,0.017138813185794324,0.005630816276032493,0.007668024521801383,0.033404207143000464,0.030915024385908367,0.002407084165471664,0.01594094723783468
0.0965769,0.020256040402391574,0.01703492310293512,0.0056242911578085345,0.007623329145238823,0.033358610176605116,0.03107206728431886,0.0024036740283961133,0.015817537115433187
0.0970962,0.020294529253545475,0.016930359733748773,0.005617463180991195,0.007578401995624177,0.03331173651894697,0.031227894012152847,0.0024000904493854404,0.01569398028543565
0.0976154,0.020331265365218884,0.01682515053541437,0.005610334543490454,0.007533254414806437,0.033263616675277524,0.03138247532122354,0.0023963368049181866,0.01557030006242983
0.0981346,0.020366244018459437,0.01671932287469673,0.005602907479197513,0.007487897706712326,0.03321428124584187,0.03153578195617966,0.0023924164800597984,0.015446519580626462
0.0986538,0.02039946089747981,0.016612904022500898,0.005595184257489068,0.007442343134697812,0.03316376091759897,0.03168778466432021,0.0023883328675873973,0.015322661788762595
0.0991731,0.020430912091220586,0.016505921148491844,0.00558716718273217,0.007396601918919489,0.033112086455939854,0.03183845420556389,0.002384089367115574,0.01519874944513168
0.0996923,0.02046059409472321,0.016398401315780214,0.005578858593789696,0.007350685233726625,0.033059288696404655,0.03198776136256924,0.0023796893842235275,0.01507480511274141
0.1002115,0.02048850381031108,0.01629037147567516,0.005570260863526405,0.00730460420507462,0.033005398536399354,0.032135676951001356,0.002375136329583867,0.014950851154600217
0.1007308,0.020514638548577276,0.01618185846250526,0.005561376398315552,0.00725836990796061,0.032950446926913006,0.03228217182994094,0.002370433618093378,0.014826909729133256
0.10125,0.02053899602917821,0.016072888988508647,0.005552207637545951,0.007211993363881897,0.03289446486423624,0.03242721691243148,0.0023655846680060663,0.014703002785728617
0.1017692,0.02056157438143305,0.01596348963879333,0.0055427570531294225,0.007165485538317863,0.032837483381682006,0.03257078317615991,0.0023605929000687772,0.014579152060414373
0.1022885,0.02058237214472948,0.015853686866368746,0.0055330271490084855,0.007118857338236041,0.03277953354130977,0.03271284167426625,0.0023554617366596925,0.014455379071666979
0.1028077,0.020601388268736864,0.015743506987249342,0.00552302046066416,0.007072119609623004,0.032720646425654774,0.03285336354627726,0.00235019460093,0.014331705116351437
0.1033269,0.02061862211342855,0.015632976175631103,0.005512739554623719,0.0070252831350407444,0.03266085312946377,0.03299232002915919,0.0023447949159490426,0.014208151265793502
0.1038462,0.020634073448915293,0.015522120459141689,0.005502187027968238,0.006978358631209222,0.03260018475143897,0.03312968246848433,0.0023392661038532307,0.014084738361984149
0.1043654,0.02064774245509224,0.01541096571416493,0.005491365507839747,0.006931356746615769,0.03253867238599193,0.03326542232970621,0.0023336115849990242,0.013961487013916444
0.1048846,0.0206596297211022,0.015299537661240405,0.005480277650947816,0.0068842880591520736,0.03247634711500893,0.033399511209537915,0.0023278347771202787,0.013838417594054827
0.1054038,0.020669736244618098,0.015187861860538783,0.005468926143075401,0.006837163073779473,0.03241323999962941,0.03353192084742816,0.0023219390944902462,0.013715550234936792
0.1059231,0.020678063430947604,0.015075963707413776,0.005457313698583771,0.00678999222022333,0.032349382072039135,0.03366262313712966,0.0023159279470885297,0.013592904825906917
0.1064423,0.020684613091963008,0.014963868428031438,0.005445443059916344,0.006742785850697285,0.032284804327279565,0.03379159013835413,0.002309804739773288,0.013470501009983033
0.1069615,0.020689387444859257,0.014851601075077676,0.005433316997101314,0.006695554237658198,0.032219537715075235,0.03391879408850828,0.002303572871458985,0.013348358180854484
0.1074808,0.020692389110743063,0.014739186523544796,0.005420938307252919,0.0066483075715926595,0.03215361313168091,0.03404420741450464,0.002297235734299978,0.01322649548001232
0.108,0.02069362111305577,0.01462664946659794,0.005408309814071261,0.006601055958835894,0.03208706141175046,0.034167802744641186,0.0022907967128802465,0.013104931794011372
0.1085192,0.020693086875832677,0.014514014411522225,0.005395434367340626,0.0065538094194239555,0.03201991332022953,0.034289552920543226,0.00228425918340955,0.012983685751864186
0.1090385,0.020690790221801397,0.014401305675751356,0.005382314842426253,0.006506577884980046,0.03195219954427416,0.034409431009160885,0.0022776265129263074,0.012862775722566737
0.1095577,0.020686735370321827,0.014288547382978455,0.005368954139769533,0.006459371196635795,0.03188395068519817,0.034527410314815224,0.0022709020585074957,0.012742219812755862
0.1100769,0.02068092693517033,0.014175763459349748,0.005355355184381664,0.0064121991029883006,0.03181519725045202,0.03464346439128579,0.0022640891664858494,0.01262203586449821
0.1105962,0.020673369922170823,0.01406297762974168,0.005341520925335781,0.006365071258093768,0.03174596964563646,0.034757567053932126,0.0022571911716746493,0.012502241453210496
0.1111154,0.020664069726675435,0.013950213414121957,0.005327454335257689,0.006317997219498449,0.0316762981665542,0.03486969239184152,0.00225021139660038,0.012382853885710678
0.1116346,0.02065303213089757,0.013837494123994947,0.005313158409815314,0.006270986446307663,0.03160621299130259,0.03497981477999492,0.002243153150743528,0.012263890198399631
0.1121538,0.02064026330110023,0.013724842858931777,0.005298636167207083,0.0062240482972935685,0.031535744172410514,0.035087908891443004,0.0022360197297877906,0.012145367155572762
0.1126731,0.02062576978464262,0.013612282503185363,0.005283890647649447,0.0061771920290423325,0.031464921629022445,0.03519394970948385,0.002228814414877957,0.012027301247860969
0.1131923,0.020609558506888,0.013499835722390543,0.005268924912863781,0.0061304267941413165,0.03139377513913249,0.03529791253983365,0.0022215404718867087,0.011909708690800255
0.1137115,0.02059163676797589,0.013387524960349392,0.005253742045562939,0.00608376163940685,0.03132233433187129,0.03539977302278157,0.0022142011506905883,0.011792605423529253
0.1142308,0.020572012239461725,0.013275372435901678,0.005238345148937736,0.006037205504153137,0.03125062867984863,0.03549950714531952,0.0022067996844553684,0.011676007107613854
0.11475,0.020550692960827118,0.01316340013988044,0.005222737346143624,0.005990767218502821,0.031178687491554568,0.03559709125323757,0.0021993392889310373,0.011559929125998073
0.1152692,0.020527687335863902,0.013051629832152564,0.005206921779787877,0.005944455501739723,0.031106539903821777,0.03569250206317531,0.002191823161756617,0.011444386582080175
0.1157885,0.020503004128935038,0.012940083038744285,0.005190901611417549,0.005898278960704235,0.031034214874351707,0.03578571667461925,0.0021842544817750106,0.011329394298913066
0.1163077,0.02047665246111551,0.012828781049051403,0.005174680021008456,0.0058522460882318465,0.03096174117430688,0.03587671258183588,0.0021766364083580588,0.011214966818527856
0.1168269,0.020448641806216233,0.012717744913134075,0.005158260206455454,0.005806365261635282,0.030889147380971548,0.03596546768573017,0.0021689720807419864,0.011101118401379426
0.1173462,0.02041898198669399,0.01260699543909592,0.005141645383064224,0.0057606447412306685,0.0308164618704826,0.03605196030561846,0.0021612646173733894,0.010987863025912838
0.1178654,0.020387683169450183,0.012496553190547205,0.005124838783044766,0.005715092668908156,0.030743712810632293,0.036136169190905024,0.002153517115265915,0.010875214388249285
0.1183846,0.02035475586152124,0.012386438484151793,0.005107843655006745,0.005669717066747401,0.030670928153744434,0.03621807353265098,0.0021457326493677584,0.010763185901990251
0.1189038,0.020320210905663324,0.012276671387257574,0.005090663263456824,0.0056245258356782835,0.030598135629625264,0.03629765297502474,0.0021379142719401023,0.01065179069813845
0.1194231,0.020284059475834088,0.012167271715610047,0.0050733008882980525,0.005579526754187228,0.030525362738590297,0.036374887626622616,0.0021300650119466073,0.010541041625134072
0.1199423,0.020246313072574004,0.012058259031148696,0.0050557598243313705,0.005534727477069491,0.030452636744568364,0.036449758071648776,0.0021221878744540454,0.01043095124900481
0.1204615,0.02020698351828996,0.01194965263988582,0.005038043380759243,0.005490135534227749,0.030379984668283965,0.0365222453809436,0.00211428584004416,0.010321531853628043
0.1209808,0.020166082952443733,0.011841471589867477,0.005020154880691448,0.005445758329517336,0.030307433280519137,0.03659233112284962,0.0021063618642368337,0.010212795441103503
0.1215,0.020123623826648056,0.011733734669216202,0.005002097660653018,0.005401603139638449,0.030235009095455956,0.0366599973739043,0.0020984188769246235,0.01010475373223473
0.1220192,0.02007961889967299,0.011626460404255084,0.004983875070094283,0.0053576771130755775,0.03016273836410099,0.03672522672934892,0.0020904597818187263,0.009997418167117644
0.1225385,0.020034081232365497,0.011519667057712766,0.004965490470903014,0.005313987269084414,0.030090647067792874,0.036788002313442876,0.002082487455906418,0.009890799905834559
0.1230577,0.019987024182485186,0.011413372627008872,0.004946947236918574,0.005270540496726428,0.030018760911794517,0.036848307789572925,0.002074504748920006,0.009784909829252106
0.1235769,0.019938461399459238,0.011307594842619324,0.004928248753448017,0.0052273435539512665,0.02994710531897148,0.0369061273701466,0.0020665144828173215,0.009679758539921552
0.1240962,0.019888406819059682,0.011202351166520914,0.004909398416784035,0.005184403066727072,0.029875705423558056,0.036961445826259084,0.0020585194512737753,0.009575356363080108
0.1246154,0.01983687465800618,0.011097658790714521,0.00489039963372467,0.005141725528218788,0.029804586065012757,0.03701424849712257,0.0020505224191859806,0.009471713347751817
0.1251346,0.01978387940849765,0.010993534635826334,0.004871255821094687,0.005099317298014461,0.029733771781964756,0.037064521299246915,0.002042526122186956,0.00936883926794655
0.1256538,0.01972943583267596,0.010889995349786475,0.004851970405268508,0.0050571846013995145,0.0296632868062529,0.0371122507353603,0.0020345332661729073,0.00926674362395566
0.1261731,0.01967355895702513,0.010787057306584451,0.004832546821694606,0.005015333528678924,0.029593155057058878,0.0371574239030585,0.0020265465268415796,0.00916543564374271
0.1266923,0.019616264066709313,0.0106847366051009,0.004812988514421261,0.004973770034547233,0.029523400135136137,0.03720002850317169,0.002018568549242166,0.009064924284427683
0.1272115,0.01955756669985298,0.010583049068015138,0.00479329893562358,0.004932499937506301,0.029454045317136027,0.03724005284783824,0.002010601947336748,0.008965218233862964
0.1277308,0.01949748264176671,0.010482010240788037,0.0047734815451317,0.004891528919330684,0.02938511355003269,0.03727748586827572,0.002002649303573237,0.008866325912299328
0.12825,0.019436027919121964,0.010381635390719743,0.004753539809960078,0.004850862524580543,0.029316627445648065,0.03731231712224066,0.0019947131684697854,0.008768255474140126
0.1287692,0.019373218794078197,0.010281939506081706,0.004733477203837809,0.004810506160161961,0.029248609275278115,0.03734453680116932,0.0019867960602106233,0.008671014809781786
0.1292885,0.019309071758365545,0.010182937295322485,0.004713297206739883,0.004770465094934543,0.029181080964421333,0.03737413573699264,0.0019789004642532756,0.008574611547538741
0.1298077,0.019243603527326323,0.01008464318634672,0.004693003304419288,0.0047307444593661435,0.029114064087610504,0.03740110540861873,0.0019710288329471298,0.008479053055650868
0.1303269,0.019176831033918314,0.009987071325866617,0.0046725989879398515,0.004691349245234532,0.029047579863348542,0.03742543794807627,0.0019631835851633057,0.008384346444371542
0.1308462,0.019108771422682774,0.009890235578825245,0.004652087753209665,0.004652284305375779,0.028981649149149254,0.037447126146312015,0.0019553671059357974,0.00829049856813439
0.1313654,0.019039442043679997,0.009794149527890907,0.004631473100514942,0.004613554353479092,0.028916292436683932,0.03746616345863562,0.0019475817461138511,0.00819751602779684
0.1318846,0.018968860446395234,0.00969882647302178,0.004610758534054116,0.004575163963927841,0.02885152984703481,0.037482544009804636,0.001939829822025562,0.008105405172958557
0.1324038,0.01889704437361771,0.009604279431099953,0.004589947561471997,0.004537117571686447,0.028787381126056402,0.03749626259874304,0.0019321136151526836,0.008014172104352828
0.1329231,0.01882401175529552,0.009510521135633906,0.0045690436933938025,0.004499419472232818,0.02872386563984607,0.03750731470288671,0.0019244353718166675,0.007923822676309032
0.1334423,0.01874978070236917,0.009417564036528459,0.004548050442958903,0.004462073821536012,0.02866100237032504,0.03751569648215016,0.0019167973028759713,0.007834362499284311
0.1339615,0.018674369500586808,0.009325420299921096,0.0045269713253541415,0.004425084636078755,0.028598809910931115,0.03752140478250923,0.001909201583434682,0.007745796942462631
0.1344808,0.018597796604304006,0.009234101808083617,0.004505809857346633,0.004388455792924467,0.028537306462424358,0.03752443713919524,0.0019016503525625045,0.007658131136419403
0.135,0.018520080630271198,0.009143620159388044,0.004484569556815976,0.0043521910298284176,0.028476509828806937,0.037524791779496726,0.0018941457130261662,0.007571369975849881
0.1355192,0.018441240351411873,0.0090539866683357,0.004463253942285855,0.004316293945392611,0.028416437413358125,0.03752246762516538,0.0018866897310322699,0.007485518122359561
0.1360385,0.018361294690594738,0.008965212365648454,0.004441866532455065,0.004280767999263992,0.028357106214785353,0.03751746429442314,0.0018792844359816375,0.007400580007314899
0.1365577,0.0182802627144031,0.008877307998421222,0.0044204108457280185,0.004245616512375546,0.028298532823492074,0.03750978210356766,0.0018719318202351698,0.0073165598347527325
0.1370769,0.018198163626904764,0.008790284030334761,0.004398890399744828,0.004210842667229894,0.028240733417963102,0.0374994220681742,0.001864633838891254,0.007233461584346897
0.1375962,0.018115016763425775,0.008704150641927954,0.004377308710911093,0.00417644950822494,0.028183723761268004,0.03748638590389243,0.0018573924095747543,0.007151289014430567
0.1381154,0.01803084158433143,0.00861891773092868,0.004355669293927496,0.004142439942021147,0.028127519197683234,0.037470676026838,0.0018502094122376258,0.00707004566507283
0.1386346,0.017945657668817963,0.008534594912642468,0.004333975661319351,0.004108816737949999,0.02807213464943359,0.037452295553579346,0.0018430866889711979,0.006989734861208006
0.1391538,0.017859484708718284,0.008451191520398114,0.004312231322966235,0.004075582528463203,0.028017584613553716,0.037431248300721115,0.0018360260438301773,0.0069103597158161586
0.1396731,0.017772342502325175,0.008368716606049435,0.004290439785631801,0.004042739809622181,0.02796388315887032,0.03740753878408606,0.0018290292426684127,0.006831923133153232
0.1401923,0.017684250948235353,0.008287178940532363,0.0042686045524939036,0.0040102909416273895,0.027911043923105918,0.037381172217497545,0.001822098012986462,0.006754427812029192
0.1407115,0.017595230039217664,0.008206587014476584,0.00424672912267512,0.003978238149386999,0.02785908011010477,0.037352154511165,0.0018152340437909908,0.006677876249132533
0.1412308,0.017505299856108627,0.008126949038870939,0.004224816990773735,0.003946583523124437,0.02780800448718195,0.0373204922696746,0.0018084389854660262,0.006602270742399461
0.14175,0.01741448056173851,0.008048272945781776,0.004202871646395272,0.003915329019024314,0.02775782938259619,0.037286192789587724,0.0018017144496560744,0.0065276133944260194
0.1422692,0.01732279239489094,0.0079705663891235,0.0041808965736846665,0.003884476459916195,0.02770856668314747,0.03724926405665004,0.001795062009161106,0.006453906115921463
0.1427885,0.01723025566429899,0.007893836745480519,0.0041588952508591764,0.0038540275359956865,0.02766022783190033,0.03720971474261449,0.0017884831978433953,0.006381150629201111
0.1433077,0.017136890742680558,0.00781809111497979,0.004136871149742145,0.0038239838055822615,0.027612823826034187,0.0371675542016818,0.0017819795105461925,0.006309348471716968
0.1438269,0.0170427180608157,0.0077433363222130965,0.00411482773529779,0.00379434669591325,0.02756636521482223,0.03712279246656291,0.0017755524030241992,0.006238500999624395
0.1443462,0.016947758101668504,0.007669578917208175,0.004092768465167186,0.003765117503973367,0.027520862097740694,0.03707544024416778,0.0017692032918858196,0.006168609391383104
0.1448654,0.016852031394555832,0.007596825176447774,0.00407069678920567,0.0037362973973591516,0.027476324122710484,0.03702550891092568,0.0017629335545471538,0.006099674651390816
0.1453846,0.01675555850936533,0.00752508110393565,0.0040486161490219065,0.0037078874151776488,0.027432760484473215,0.03697301050774227,0.0017567445291976993,0.006031697613647923
0.1459038,0.016658360050824744,0.007454352432308537,0.004026529977518862,0.003679888468978676,0.027390179923104024,0.03691795773459924,0.0017506375147777204,0.0059646789454515505
0.1464231,0.016560456652824636,0.007384644623993155,0.004004441698436958,0.003652301343720011,0.027348590722663428,0.03686036394480262,0.001744613770967252,0.005898619151117412
0.1469423,0.016461868972796407,0.00731596287240736,0.003982354725899684,0.0036251266987648426,0.027308000709990787,0.03680024313888616,0.0017386745181866912,0.005833518575727879
0.1474615,0.016362617686147402,0.007248312103204597,0.00396027246396194,0.003598365068910855,0.027268417253641784,0.0367376099581764,0.0017328209376089366,0.00576937740890466
0.1479808,0.01626272348075481,0.007181696975560887,0.003938198306161361,0.003572016865450325,0.027229847262972208,0.036672479678026275,0.0017270541711830354,0.005706195688604476
0.1485,0.016162207051519956,0.0071161218835036535,0.003916135635072852,0.003546082377260648,0.027192297187370273,0.03660486820072439,0.001721375321669315,0.005643973304936117
0.1490192,0.01606108909498446,0.007051590957281724,0.003894087821866534,0.0035205617719247075,0.027155773015639425,0.036534792048086726,0.001715785452685969,0.005582710003997304
0.1495385,0.015959390304009648,0.006988108064775958,0.0038720582258692784,0.003495455096880513,0.02712028027553344,0.03646226835373838,0.001710285588767072,0.005522405391729853
0.1500577,0.015857131362520507,0.006925676812950011,0.003850050194129973,0.003470762280599521,0.0270858240334455,0.036387314855093,0.0017048767154319887,0.005463058937791772
0.1505769,0.015754332940315245,0.006864300549340825,0.003828067060988632,0.003446483133793067,0.02705240889425273,0.036309949885038634,0.0016995597792661464,0.005404669979444966
0.1510962,0.01565101568794158,0.006803982363588467,0.0038061121476494274,0.0034226173506463273,0.02702003900131766,0.03623019236333895,0.0016943356880131319,0.005347237725457326
0.1516154,0.015547200231640662,0.006744725089005008,0.0037841887617577038,0.003399164510079236,0.02698871803664795,0.036148061787759526,0.0016892053106780816,0.005290761260017984
0.1521346,0.015442907168359507,0.006686531304182149,0.0037623001969810162,0.003376124077033793,0.026958449221215743,0.03606357822492909,0.001684169477642329,0.00523523954666456
0.1526538,0.01533815706083276,0.006629403334637282,0.0037404497325942,0.00335349540378723,0.026929235315437942,0.03597676230094569,0.0016792289807892756,0.005180671432221152
0.1531731,0.015232970432734548,0.0065733432544977256,0.003718640633068468,0.003331277731290496,0.026901078619818688,0.0358876351917379,0.0016743845736414504,0.0051270556507459035
0.1536923,0.015127367763901122,0.006518352888222776,0.0036968761476645516,0.003309470190531551,0.026873980975755322,0.03579621861319127,0.0016696369715087313,0.00507439082748695
0.1542115,0.015021369485624943,0.00646443381236326,0.0036751595100298806,0.0032880718039229556,0.026847943766509064,0.03570253481105029,0.0016649868516476819,0.005022675482845565
0.1547308,0.014914995976020856,0.006411587357358167,0.0036534939377998107,0.003267081486713252,0.02682296791834142,0.035606606550606205,0.0016604348534319689,0.004971908036345362
0.15525,0.014808267555464976,0.006359814609367936,0.003631882632202919,0.00324649804842161,0.026799053901817225,0.035508457106181196,0.0016559815785338152,0.0049220868106065
0.1557692,0.014701204482106864,0.006309116412143926,0.003610328777670405,0.0032263201942952105,0.026776201733275086,0.03540811025041919,0.0016516275911164354,0.004873210035323831
0.1562885,0.014593826947455622,0.006259493368933557,0.003588835541449664,0.0032065465267888216,0.02675441097646575,0.03530559024339336,0.0016473734180373983,0.004825275851248021
0.1568077,0.014486155072040393,0.006210945844420616,0.0035674060732221063,0.003187175547065999,0.02673368074435873,0.035200921821540186,0.0016432195490628445,0.004778282314168654
0.1573269,0.01437820890114578,0.006163473966700165,0.0035460435047253358,0.003168205656521336,0.026714009701117338,0.03509413018642989,0.0016391664370924897,0.004732227398898318
0.1578462,0.014270008400622484,0.006117077629287496,0.0035247509493798066,0.0031496351583231567,0.02669539606424216,0.034985240993382495,0.001635214498395316,0.004687109003256678
0.1583654,0.014161573452773458,0.0060717564931605135,0.003503531501920087,0.0031314622589760214,0.026677837606882696,0.03487428033993912,0.0016313641128558546,0.0046429249520534635
0.1588846,0.014052923852315716,0.006027509988834958,0.003482388238030865,0.0031136850699024113,0.026661331660316902,0.03476127475419756,0.0016276156242309465,0.004599673001069339
0.1594038,0.01394407930241789,0.005984337318471763,0.0034613242139878444,0.003096301609042922,0.026645875116597953,0.034646251183021455,0.0016239693404168504,0.004557350841033567
0.1599231,0.013835059410813413,0.005942237458015885,0.003440342466303673,0.003079309802474279,0.026631464431367487,0.03452923698013202,0.0016204255337265625,0.004515956101597378
0.1604423,0.013725883685989254,0.005901209159365875,0.0034194460113790627,0.003062707486044459,0.02661809562683439,0.034410259894091536,0.0016169844411771926,0.004475486355301952
0.1609615,0.013616571533449893,0.005861250952573441,0.003398637845159239,0.0030464924070242047,0.026605764294918028,0.03428934805618726,0.0016136462647872286,0.004435939121539894
0.1614808,0.013507142252056214,0.005822361148072262,0.003377920942795871,0.0030306622257741975,0.026594465600554763,0.03416652996822479,0.0016104111718835184,0.004397311870509092
0.162,0.013397615030438815,0.0057845378389353025,0.003357298258314607,0.0030152145174271393,0.026584194285166486,0.03404183449023927,0.0016072792954177797,0.00435960202715783
0.1625192,0.013288008943485122,0.005747778903159941,0.003336772724288357,0.0030001467735840145,0.026574944670289726,0.03391529082813308,0.0016042507342924458,0.0043228069751200665
0.1630385,0.013178342948899645,0.0057120820059802175,0.0033163472515164404,0.00298545640402378,0.0265667106613638,0.033786928521248295,0.0016013255536956403,0.00428692406063974
0.1635577,0.013068635883836553,0.005677444602205609,0.003296024728709718,0.002971140738425733,0.0265594857516764,0.03365677742988223,0.001598503785445075,0.004251950596483017
0.1640769,0.01295890646160374,0.005643863938585778,0.0032758080221818057,0.002957197028103818,0.02655326302646486,0.033524867722754134,0.001595785428340654,0.004217883865837366
0.1645962,0.012849173268437535,0.005611337056200768,0.0032556999755464534,0.0029436224477521287,0.026548035167171195,0.03339122986443113,0.0015931704485255826,0.00418472112619636
0.1651154,0.012739454760347178,0.005579860792876208,0.0032357034094211462,0.0029304140972008794,0.026543794455848896,0.03325589460272133,0.0015906587798557705,0.004152459613229065
0.1656346,0.012629769260028312,0.0055494317856230775,0.0032158211211369657,0.002917569003182088,0.026540532779719475,0.033118892956041854,0.0015882503242773346,0.004121096544632868
0.1661538,0.012520134953844667,0.005520046473101628,0.003196055884454727,0.0029050841211042335,0.02653824163587645,0.032980256200769706,0.0015859449522120023,0.004090629123968598
0.1666731,0.012410569888877244,0.005491701098109095,0.0031764104492873826,0.002892956336835144,0.026536912136134454,0.03284001585858329,0.001583742502950206,0.004061054544476749
0.1671923,0.012301091970040322,0.005464391710090837,0.0031568875414286863,0.0028811824684923317,0.02653653501202106,0.0326982036838024,0.0015816427850516524,0.004032369992873635
0.1677115,0.012191718957263628,0.0054381141676745435,0.003137489862288098,0.002869759268240008,0.02653710061990877,0.032554851650734615,0.0015796455767531413,0.004004572653126285
0.1682308,0.012082468462740087,0.005412864141227159,0.0031182200886319053,0.0028586834240919754,0.026538598946284884,0.03240999194103598,0.0015777506263833934,0.003977659710204909
0.16875,0.011973357948238663,0.005388637115434119,0.003099080872330546,0.0028479515617195784,0.026541019613156868,0.03226365693109388,0.0015759576527846328,0.003951628353811742
0.1692692,0.011864404722481868,0.0053654283919004776,0.0030800748401120905,0.002837560246263868,0.026544351883590948,0.032115879179439984,0.0015742663457406626,0.003926475782085096
0.1697885,0.011755625938587566,0.005343233091773452,0.0030612045933218405,0.0028275059841511327,0.026548584667381695,0.031966691414200936,0.0015726763664111545,0.003902199205277435
0.1703077,0.011647038591574814,0.005322046158385861,0.0030424727076879938,0.0028177852249109164,0.026553706526850362,0.031816126520594255,0.0015711873477718653,0.003878795849406251
0.1708269,0.011538659515933495,0.005301862359919919,0.003023881733093315,0.0028083943629956176,0.02655970568276969,0.031664217528476916,0.0015697988950604752,0.0038562629598765347
0.1713462,0.011430505383257537,0.005282676292090814,0.003005434193352749,0.002799329739600781,0.026566570020412822,0.031510997599953815,0.001568510586227739,0.003834597805073612
0.1718654,0.011322592699941443,0.005264482380849499,0.0029871325859969484,0.0027905876444851616,0.026574287095723598,0.03135650001705329,0.0015673219723936287,0.0038137976799251256
0.1723846,0.0112149378049399,0.005247274885104071,0.0029689793820616784,0.00278216431778965,0.02658284414160563,0.031200758169477025,0.0015662325783081504,0.0037938599094309304
0.1729038,0.011107556867590154,0.005231047899459152,0.0029509770258830605,0.0027740559518541655,0.026592228074327165,0.03104380554243152,0.00156524190281652,0.0037747818521596853
0.1734231,0.01100046588549669,0.005215795356972564,0.0029331279348986487,0.002766258693031625,0.02660242550003862,0.030885675704548567,0.0015643494193283921,0.0037565609037109498
0.1739423,0.010893680682477829,0.005201511031928645,0.002915434499454318,0.002758768643498092,0.026613422721399476,0.030726402295902046,0.0015635545762908538,0.003739194500141612
0.1744615,0.010787216906573697,0.005188188542627472,0.0028978990826169504,0.0027515818630582376,0.02662520574431107,0.03056601901612839,0.0015628567976649042,0.0037226801213555245
0.1749808,0.010681090028115098,0.005175821354189264,0.002880524019992918,0.0027446943709452496,0.026637760284751594,0.03040455961265784,0.00156225548340514,0.003707015294455224
0.1755,0.01057531533785271,0.005164402781373206,0.0028633116195523577,0.00273810214761439,0.026651071775709585,0.030242057869063574,0.0015617500099423737,0.003692197597054666
0.1760192,0.010469907945146108,0.005153925991409968,0.002846264161459272,0.002731801136529448,0.026665125374212197,0.030078547593535575,0.0015613397306688968,0.0036782246605519147
0.1765385,0.010364882776212041,0.005144384006847174,0.002829383897907488,0.0027257872459413744,0.026679905968444707,0.029914062607485817,0.0015610239764261005,0.0036650941733607344
0.1770577,0.010260254572431356,0.005135769708407099,0.002812673052962522,0.002720056350658428,0.02669539818495775,0.02974863673429117,0.0015608020559941546,0.0036528038841000705
0.1775769,0.010156037888713899,0.00512807583785586,0.0027961338224093885,0.00271460429380719,0.026711586395959153,0.02958230378818023,0.0015606732565834455,0.0036413516047403825
0.1780962,0.010052247091920685,0.005121295000883342,0.0027797683736063977,0.002709426888583794,0.02672845472668706,0.029415097563269918,0.0015606368443274584,0.0036307352137058186
0.1786154,0.009948896359342542,0.005115419669993088,0.002763578845344966,0.0027045199199947057,0.026745987062861326,0.029247051822757577,0.0015606920647768007,0.003620952658931188
0.1791346,0.00984599967723443,0.005110442187401391,0.002747567347715453,0.0026998791465864163,0.02676416705821005,0.02907820028827403,0.0015608381433940622,0.003612001960872685
0.1796538,0.009743570839404575,0.005106354767944768,0.0027317359619790094,0.0026955003021633703,0.026782978142068148,0.02890857662940278,0.0015610742860492103,0.003603881215471313
0.1801731,0.00964162344585759,0.005103149501995058,0.0027160867404454054,0.0026913790974935053,0.026802403527044695,0.028738214453370263,0.0015613996795152197,0.0035965885970679293
0.1806923,0.009540170901490673,0.005100818358381348,0.002700621706356814,0.002687511222000759,0.026822426216755776,0.028567147294911895,0.0015618134919636302,0.0035901223612688354
0.1812115,0.00943922641484198,0.0050993531873179685,0.002685342853777506,0.002683892345443926,0.026843029013619447,0.028395408606318267,0.0015623148734597227,0.0035844808477608053
0.1817308,0.009338802996890256,0.005098745723337766,0.002670252147489424,0.0026805181195812787,0.026864194526709337,0.028223031747665737,0.0015629029564569932,0.003579662483074448
0.18225,0.009238913459904689,0.005098987588229873,0.002655351522893602,0.00267738417982037,0.026885905179663373,0.02805004997723526,0.0015635768562906088,0.003575665783294817
0.1827692,0.00913957041634404,0.005100070293981182,0.002640642885917416,0.0026744861468524584,0.026908143218643994,0.027876496442123245,0.0015643356716695273,0.003572489356718195
0.1832885,0.009040786277803936,0.005101985245720751,0.002626128112927663,0.0026718196282710187,0.02693089072034629,0.02770240416904787,0.0015651784851669528,0.0035701319064540145
0.1838077,0.00894257325401123,0.00510472374466632,0.0026118090506494825,0.002669380220173804,0.026954129600050575,0.027527806055354022,0.0015661043637088124,0.0035685922329709322
0.1843269,0.008844943351864332,0.005108276991072167,0.0025976875160911676,0.0026671635087479532,0.02697784161971598,0.02735273486021999,0.0015671123590599335,0.003567869236586095
0.1848462,0.008747908374518401,0.005112636087177483,0.0025837652964749197,0.0026651650718376814,0.027002008396111575,0.027177223196068585,0.0015682015083076169,0.0035679619198966924
0.1853654,0.008651479920514241,0.005117792040154458,0.002570044149173633,0.0026633804804941886,0.027026611408981997,0.027001303520185354,0.001569370834342318,0.0035688693901529244
0.1858846,0.008555669382949797,0.005123735765055265,0.002556525801653796,0.0026618053005075352,0.027051632009244136,0.026825008126546084,0.0015706193463351748,0.0035705908615715327
0.1864038,0.008460487948693009,0.005130458087757119,0.002543211951424591,0.002660435093920327,0.027077051427211663,0.026648369137855787,0.0015719460402121455,0.003573125657589067
0.1869231,0.008365946597634837,0.0051379497479046195,0.0025301042659932665,0.0026592654205231585,0.027102850780843957,0.02647141849780097,0.001573349899124529,0.003576473213054056
0.1874423,0.008272056101981177,0.005146201401848553,0.0025172043828268317,0.0026582918393318034,0.027129011084015935,0.026294187963516777,0.0015748298939156668,0.0035806330763572523
0.1879615,0.008178827025582343,0.005155203625580391,0.0025045139093201104,0.00265750991004617,0.02715551325480536,0.02611670909827049,0.0015763849835836179,0.003585604911499092
0.1884808,0.008086269723298817,0.005164946917661685,0.0024920344227701632,0.0026569151944910684,0.02718233812379407,0.02593901326436248,0.0015780141157396125,0.0035913885000935014
0.189,0.007994394340401974,0.0051754217021475766,0.0024797674703570818,0.002656503258038836,0.027209466442379603,0.025761131616245537,0.0015797162270620919,0.0035979837433071722
0.1895192,0.007903210812008576,0.005186618331503618,0.002467714569131132,0.002656269671013903,0.027236878891093504,0.025583095093863462,0.001581490243746154,0.0036053906637334323
0.1900385,0.007812728862547887,0.00519852708951505,0.0024558772060062186,0.0026562100100793575,0.02726455608792247,0.025404934416209432,0.0015833350819482366,0.003613609407199854
0.1905577,0.0077229580052604685,0.005211138194187687,0.00244425683775962,0.002656319859605567,0.02729247859662832,0.025226680075104566,0.0015852496482258822,0.0036226402445087937
0.1910769,0.007633907541727801,0.005224441800639479,0.0024328548910379504,0.002656594813020906,0.02732062693506261,0.025048362329197014,0.0015872328399724315,0.003632483573110099
0.1915962,0.007545586561432145,0.005238428003981848,0.0024216727623692733,0.0026570304741446184,0.02734898158347144,0.02487001119818161,0.0015892835458464994,0.003643139918705252
0.1921154,0.007458003941346164,0.005253086842189853,0.002410711818181314,0.0026576224585018486,0.027377522992786032,0.0246916564572401,0.0015914006461960918,0.003654609936782238
0.1926346,0.007371168345552039,0.005268408298960271,0.00239997339482571,0.0026583663946208765,0.027406231592894525,0.0245133276317017,0.0015935830134772347,0.0036668944140804197
0.1931538,0.0072850882248898996,0.005284382306556704,0.002389458798608231,0.0026592579253125873,0.027435087800890507,0.024335053991923615,0.0015958295126669879,0.003679994269984719
0.1936731,0.007199771816635497,0.005300998748640881,0.0023791693058249084,0.0026602927089322175,0.027464072029293966,0.024156864548390868,0.00159813900167073,0.0036939105578483703
0.1941923,0.007115227144207148,0.005318247463089383,0.0023691061628040126,0.0026614664206234015,0.027493164694240232,0.02397878804703469,0.0016005103317236042,0.0037086444662435716
0.1947115,0.007031462016901974,0.00533611824479512,0.0023592705859538177,0.0026627747535445494,0.027522346223632515,0.023800852964768544,0.0016029423477860268,0.0037241973201393493
0.1952308,0.006948484029661513,0.00535460084845297,0.002349663761816093,0.002664213420077585,0.02755159706525372,0.02362308750524054,0.0016054338889331591,0.003740570582006031
0.19575,0.006866300562866794,0.0053736849913290615,0.0023402868471252766,0.002665778153019062,0.02758089769483319,0.02344551959480096,0.0016079837887382597,0.0037577658528457326
0.1962692,0.006784918782162911,0.005393360356013263,0.002331140968873285,0.002667464706753675,0.027610228624064207,0.023268176878683305,0.0016105908756498522,0.0037757848731483227
0.1967885,0.006704345638313112,0.00541361659315446,0.0023222272243799305,0.002669268858410173,0.027639570408568098,0.023091086717397118,0.0016132539733626804,0.003794629523772362
0.1973077,0.006624587867082383,0.005434443324178212,0.002313546681368928,0.002671186408999666,0.027668903655800926,0.02291427618333056,0.0016159719011824272,0.0038143018267505647
0.1978269,0.006545651989150462,0.005455830143986374,0.00230510037804948,0.0026732131845363396,0.02769820903289852,0.022737772057560675,0.0016187434743841847,0.003834803946019403
0.1983462,0.006467544310054201,0.005477766623638297,0.002296889323203419,0.002675345037140556,0.027727467274455613,0.022561600826868998,0.0016215675045646654,0.0038561381880725305
0.1988654,0.006390270920159186,0.005500242313013202,0.0022889144962778833,0.0026775778461243416,0.027756659190234657,0.022385788680959886,0.0016244427999881302,0.0038783070025377817
0.1993846,0.006313837694660527,0.005523246743453388,0.002281176847483495,0.0026799075190592565,0.027785765672799778,0.022210361509878974,0.001627368165926006,0.0039013129826775497
0.1999038,0.006238250293612749,0.0055467694303879675,0.002273677297898004,0.0026823299928266284,0.027814767705071224,0.02203534490162881,0.0016303424049901587,0.003925158865812416
0.2004231,0.006163514161988735,0.00557079987593685,0.002266416739575341,0.002684841234650132,0.027843646367795603,0.021860764139978645,0.0016333643174597891,0.0039498475336679365
0.2009423,0.0060896345297677375,0.0055953275714947254,0.0022593960356600356,0.0026874372431106783,0.027872382846927134,0.021686644202465175,0.0016364327016019271,0.003975382012644498
0.2014615,0.0060166164120524215,0.005620342000294806,0.0022526160205069254,0.002690114049143579,0.027900958440915145,0.021513009758580982,0.001639546353985511,0.004001765474010196
0.2019808,0.005944464609215004,0.005645832639952061,0.002246077499806079,0.0026928677170179266,0.02792935456789326,0.021339885168147183,0.0016427040697890606,0.004029001234016629
0.2025,0.005873183707072532,0.005671788964985642,0.002239781250712858,0.0026956943452981176,0.027957552772766008,0.021167294479866768,0.0016459046431019633,0.004057092753937536
0.2030192,0.0058027780770914025,0.005698200449320212,0.0022337280219830286,0.0026985900677874383,0.027985534734188886,0.020995261430054955,0.001649146867219388,0.004086043640030184
0.2035385,0.005733251876621268,0.005725056568765797,0.0022279185341128357,0.0027015510544536243,0.028013282271438185,0.02082380944154274,0.0016524295349308487,0.004115857643419448
0.2040577,0.0056646090491585255,0.005752346803475795,0.0022223534794839684,0.0027045735123362993,0.028040777351167126,0.020652961622749835,0.0016557514388024295,0.004146538659904504
0.2045769,0.005596853324639619,0.005780060640382715,0.002217033522513323,0.00270765368643622,0.02806800209404517,0.020482740766923024,0.0016591113714526948,0.004178090729688144
0.2050962,0.005529988219764422,0.005808187575611179,0.0022119592998074834,0.002710787860586258,0.0280949387812778,0.020313169351535983,0.0016625081258222984,0.004210518037028637
0.2056154,0.005464017038350003,0.0058367171168677125,0.0022071314203218175,0.0027139723583040837,0.02812156986100445,0.02014426953784652,0.0016659404954373115,0.004243824909814155
0.2061346,0.00539894287171501,0.005865638785806774,0.0022025504655240865,0.0027172035436265397,0.028147877954572714,0.019976063170607142,0.0016694072746662925,0.004278015819059695
0.2066538,0.005334768599094972,0.0058949421203724345,0.0021982169895624504,0.002720477821925732,0.028173845862687025,0.019808571777924854,0.0016729072589711151,0.004313095378326488
0.2071731,0.005271496888088704,0.005924616677115079,0.002194131519437746,0.0027237916407068753,0.028199456571430175,0.019641816571266107,0.001676439245151571,0.004349068343063874
0.2076923,0.005209130195136098,0.00595465203348247,0.0021902945551799135,0.002727141490387947,0.028224693258155742,0.019475818445602925,0.0016800020315837505,0.00438593960987366
0.2082115,0.005147670766027458,0.005985037790084456,0.002186706570028447,0.002730523905061196,0.028249539297249514,0.019310597979696188,0.0016835944184522098,0.004423714215697
0.2087308,0.005087120636444593,0.006015763572930599,0.002183368010616743,0.0027339354632365444,0.028273978265758004,0.019146175436512015,0.001687215207975921,0.004462397336923853
0.20925,0.00502748163253382,0.006046819035639958,0.0021802792971602363,0.002737372788566894,0.028297993948882168,0.018982570763767345,0.0016908632046280117,0.004501994288425086
0.2097692,0.004968755371510996,0.006078193861622247,0.0021774408236481906,0.0027408325505553412,0.02832157034533494,0.018819803594600792,0.001694537215349313,0.004542510522507285
0.2102885,0.004910943262298682,0.006109877766229607,0.002174852958039026,0.0027443114652442604,0.028344691672561286,0.018657893248365143,0.0016982360497557383,0.004583951627790413
0.2108077,0.004854046506195522,0.006141860498878261,0.002172516042459054,0.0027478062958862255,0.028367342371820023,0.018496858731538005,0.0017019585203395422,0.004626323328008478
0.2113269,0.004798066097577876,0.006174131845139382,0.0021704303934044844,0.0027513138535967085,0.028389507113126846,0.018336718738747256,0.00170570344266451,0.004669631480733445
0.2118462,0.004743002824633767,0.006206681628798599,0.002168596301946559,0.002754830997988483,0.028411170800058172,0.01817749165390795,0.0017094696355551427,0.004713882076022673
0.2123654,0.0046888572701291615,0.006239499713883601,0.0021670140339396593,0.0027583546377876393,0.028432318574415725,0.01801919555146729,0.0017132559212799038,0.00475908123499022
0.2128846,0.004635629812206552,0.006272576006659434,0.0021656838302322396,0.0027618817314311165,0.02845293582075214,0.01786184819775426,0.0017170611257285833,0.004805235208302397
0.2134038,0.004583320625215856,0.00630590045759109,0.0021646059068804336,0.0027654092876456247,0.02847300817075835,0.017705467052430358,0.0017208840785838603,0.004852350374598063
0.2139231,0.004531929680577572,0.006339463063273045,0.0021637804553642,0.0027689343660078263,0.028492521507514034,0.017550069270037823,0.001724723613487136,0.004900433238834196
0.2144423,0.00448145674767819,0.006373253868325449,0.0021632076428058588,0.0027724540774856153,0.02851146196960262,0.01739567170164171,0.0017285785681987382,0.004949490430557397
0.2149615,0.004431901394797837,0.006407262967256663,0.0021628876121908584,0.0027759655849603276,0.028529815955092564,0.017242290896562127,0.0017324477847526192,0.00499952870210204
0.2154808,0.004383262990070171,0.0064414805062918655,0.002162820482590618,0.002779466103729681,0.0285475701253866,0.01708994310419296,0.0017363301096056823,0.0050505549267158886
0.216,0.004335540702474534,0.006475896685167412,0.0021630063493872555,0.0027829529019912473,0.02856471140894053,0.016938644275903345,0.0017402243937818878,0.005102576096614014
0.2165192,0.004288733502860362,0.006510501758890635,0.002163445284500022,0.002786423301306227,0.028581227004853025,0.016788410067018113,0.001744129493011286,0.005155599320961897
0.2170385,0.004242840165003847,0.006545286039464713,0.0021641373366132286,0.0027898746770432872,0.02859710438632765,0.016639255838873403,0.0017480442678641248,0.0052096318237885774
0.2175577,0.004197859266696797,0.006580239897578251,0.002165082531405455,0.002793304458802231,0.028612331304008323,0.0164911966609436,0.0017519675838801908,0.005264680941830741
0.2180769,0.004153789190867671,0.006615353764259239,0.0021662808717798137,0.0027967101308172594,0.02862689578918915,0.01634424731303565,0.0017558983116935498,0.005320754122308658
0.2185962,0.0041106281267347024,0.006650618132493088,0.0021677323380950497,0.0028000892323396124,0.028640786156899425,0.016198422287546664,0.0017598353271528634,0.0053778589206349555
0.2191154,0.004068374070991063,0.00668602355880452,0.0021694368883972475,0.0028034393579993906,0.028653991008864604,0.01605373579178077,0.001763777511437474,0.0054360029980573
0.2196346,0.004027024829021971,0.006721560664803166,0.002171394458651927,0.0028067581581463965,0.02866649923634384,0.015910201750320867,0.0017677237511694532,0.0054951941192361315
0.2201538,0.00398657801615364,0.0067572201386927825,0.0021736049629763124,0.0028100433391698475,0.02867830002284446,0.015767833807451052,0.0017716729385218188,0.0055554401497586595
0.2206731,0.003947031058933971,0.006792992736744008,0.0021760682938715783,0.002813292663796842,0.028689382846713792,0.015626645329625342,0.0017756239713231196,0.005616749053590275
0.2211923,0.003908381196444814,0.006828869284730621,0.00217878432245488,0.00281650395136948,0.028699737483608496,0.015486649407978377,0.0017795757531585887,0.0056791288904645895
0.2217115,0.0038706254816456755,0.0068648406793292245,0.002181752898690983,0.0028196750781005545,0.02870935400884163,0.015347858860873736,0.0017835271934680678,0.005742587813213229
0.2222308,0.003833760782748645,0.006900897889482344,0.002184973851623317,0.0028228039773077348,0.028718222799607705,0.015210286236485614,0.0017874772076409118,0.005807134065036513
0.22275,0.003797783784624369,0.006937031957724854,0.0021884469896042962,0.0028258886396261844,0.028726334537085854,0.015073943815409588,0.0017914247171080765,0.005872775976716087
0.2232692,0.0037626909902388297,0.006973234001473769,0.0021921721005247544,0.0028289271131995675,0.02873368020842152,0.014938843613298327,0.0017953686494315928,0.005939521963770552
0.2237885,0.0037284787221206982,0.007009495214281477,0.0021961489520423727,0.0028319175038494277,0.028740251108586894,0.01480499738351818,0.0017993079383916233,0.006007380523555118
0.2243077,0.0036951431238589913,0.007045806867052602,0.0022003772918089957,0.002834857975222937,0.02874603884212049,0.014672416619822628,0.0018032415240712989,0.006076360232306271
0.2248269,0.003662680161630753,0.007082160309224776,0.0022048568476967447,0.002837746748919073,0.028751035324746346,0.014541112559038661,0.0018071683529395162,0.006146469742132435
0.2253462,0.003631085625758446,0.007118546969913689,0.0022095873280228583,0.0028405821045932988,0.028755232784873394,0.014411096183762167,0.001811087377931886,0.006217717777951615
0.2258654,0.0036003551322967096,0.007154958359022895,0.0022145684217731772,0.0028433623800408828,0.028758623764975778,0.014282378225058573,0.0018149975585300035,0.0062901131343770095
0.2263846,0.0035704841246481105,0.007191386068318805,0.0022197997988242027,0.0028460859712589985,0.028761201122855115,0.014154969165165081,0.0018188978608392173,0.006363664672551547
0.2269038,0.003541467875207493,0.007227821772471354,0.002225281110163648,0.0028487513324877696,0.02876295803278583,0.014028879240190957,0.0018227872576650592,0.006438381316932291
0.2274231,0.00351330148703449,0.007264257230060808,0.002231011988109388,0.002851356976230432,0.02876388798654507,0.013904118442812476,0.0018266647285884927,0.006514272052025651
0.2279423,0.003485979895553732,0.007300684284551112,0.002236992046526706,0.0028539014732527714,0.028763984794328783,0.013780696524959165,0.001830529260040127,0.006591345919074278
0.2284615,0.003459497870282267,0.007337094865230217,0.0022432208810437317,0.002856383452562003,0.028763242585555692,0.01365862300048812,0.0018343798453735367,0.0066696120126965
0.2289808,0.003433850016583686,0.007373480988117705,0.002249698069264951,0.002858801601365224,0.028761655809560915,0.01353790714784316,0.0018382154849378247,0.006749079477479128
0.2295,0.003409030777448434,0.007409834756840038,0.002256423170982682,0.002861154665007554,0.02875921923618096,0.013418558012695621,0.0018420351861495614,0.006829757504524392
0.2300192,0.003385034435299765,0.007446148363473699,0.0022633957283863977,0.00286344144689006,0.028755927956231535,0.01330058441056358,0.0018458379635642363,0.006911655327951792
0.2305385,0.003361855113824768,0.007482414089356424,0.002270615266269782,0.002865660808367541,0.028751777381879652,0.013183994929406383,0.0018496228389473452,0.0069947822213555525
0.2310577,0.00333948677982991,0.007518624305866692,0.002278081292235412,0.002867811668626234,0.02874676324691117,0.013068797932191425,0.0018533888413452297,0.007079147494218432
0.2315769,0.0033179232451204855,0.007554771475171576,0.0022857932968969544,0.0028698930045414923,0.02874088160689484,0.012955001559430255,0.0018571350071557872,0.007164760488282621
0.2320962,0.0032971581684033916,0.00759084815094303,0.002293750754078769,0.002871903850515499,0.02873412883924378,0.012842613731681118,0.0018608603801991486,0.007251630573878597
0.2326154,0.0032771850572126124,0.007626846979042672,0.0023019531210128215,0.0028738432982950697,0.02872650164317526,0.012731642152015103,0.0018645640117884337,0.00733976714621286
0.2331346,0.003257997269856794,0.007662760698175118,0.0023103998385328272,0.0028757104967696377,0.028717997039569627,0.012622094308443198,0.0018682449608006795,0.007429179621615616
0.2336538,0.003239588017388274,0.007698582140509954,0.002319090331265532,0.002877504651749523,0.028708612370729282,0.012513977476301568,0.0018719022937480447,0.007519877433749544
0.2341731,0.0032219503655929417,0.007734304232272517,0.002328024007819071,0.00287922502572464,0.028698345300038678,0.012407298720592567,0.001875535084849395,0.007611870029780808
0.2346923,0.0032050772370002976,0.007769919994303715,0.0023372002609683444,0.00288087093760383,0.028687193811526325,0.01230206489827912,0.0018791424161023627,0.007705166866513462
0.2352115,0.0031889614129130936,0.007805422542589181,0.0023466184678373556,0.002882441762435088,0.028675156209329884,0.012198282660530184,0.0018827233773559744,0.007799777406488477
0.2357308,0.003173595535455962,0.00784080508875819,0.002356277990078478,0.0028839369311069846,0.02866223111706527,0.012095958454914959,0.0018862770663839261,0.00789571111404858
0.23625,0.0031589721096424456,0.007876060940552772,0.0023661781740485946,0.002885355930031628,0.028648417477100837,0.011995098527543588,0.001889802588958575,0.007992977451370092
0.2367692,0.00314508350545988,0.007911183502267579,0.0023763183509820695,0.002886698300809562,0.02863371454973759,0.011895708925152187,0.0018932990589256987,0.008091585874463002
0.2372885,0.003131921959971583,0.007946166275161051,0.00238669783716046,0.0028879636398770124,0.028618121912296308,0.01179779549713016,0.0018967655982800816,0.008191545829140365
0.2378077,0.0031194795794358184,0.007981002857838504,0.0023973159340788964,0.0028891515981359145,0.028601639458112466,0.011701363897488125,0.001900201337241971,0.008292866746958196
0.2383269,0.0031077483414410113,0.008015686946607708,0.002408171928609023,0.0028902618805671607,0.028584267395439705,0.011606419586765058,0.0019036054143344535,0.008395558041126874
0.2388462,0.0030967200970566764,0.008050212335807555,0.002419265093158401,0.0028912942458275055,0.028566006246262477,0.011512967833873677,0.0019069769764618182,0.008499629102395056
0.2393654,0.0030863865729995393,0.008084572918110353,0.0024305946858262754,0.0028922485058305854,0.028546856845018488,0.011421013717883424,0.0019103151789889633,0.00860508929490705
0.2398846,0.003076739373814342,0.00811876268479825,0.00244215995055563,0.0028931245253124654,0.02852682033723142,0.011330562129740752,0.0019136191858219163,0.008711947952034524
0.2404038,0.0030677699840688318,0.008152775726014234,0.002453960117281445,0.002893922221382149,0.028505898178054368,0.011241617773926616,0.0019168881694895312,0.008820214372183416
0.2409231,0.00305946977056244,0.00818660623098814,0.002465994402075101,0.002894641563057477,0.028484092130724618,0.011154185170051229,0.0019201213112264189,0.00892989781457683
0.2414423,0.003051829984548154,0.008220248488238022,0.002478262007284873,0.002895282570786829,0.028461404264930334,0.011068268654386275,0.0019233178010571582,0.009041007495014831
0.2419615,0.003044841763967065,0.008253696885747218,0.00249076212167246,0.0028958453159570498,0.028437836955089717,0.010983872381334706,0.0019264768378818274,0.009153552581612056
0.2424808,0.0030384961356950606,0.008286945911117422,0.002503493920545525,0.002896329920388013,0.028413392878543144,0.010901000324838267,0.0019295976295628844,0.009267542190514157
0.243,0.003032784017801126,0.008319990151698044,0.0025164565658862014,0.0028967365558142163,0.028388075013658667,0.010819656279722874,0.001932679393013409,0.009382985381594192
0.2435192,0.003027696221816673,0.008352824294692116,0.002529649206475546,0.0028970654433537954,0.028361886637851386,0.010739843862981935,0.0019357213542867072,0.009499891154130148
0.2440385,0.0030232234550153403,0.008385443127238969,0.0025430709780139183,0.0028973168529653377,0.02833483132551718,0.010661566514997842,0.0019387227486672676,0.009618268442464824
0.2445577,0.003019356322702689,0.008417841536473932,0.0025567210032372673,0.002897491102892846,0.028306912945881602,0.010584827500701943,0.0019416828207630425,0.009738126111649419
0.2450769,0.003016085330515204,0.008450014509565246,0.0025705983920293295,0.0028975885590992027,0.028278135660764925,0.010509629910673503,0.0019446008245990129,0.009859472953072126
0.2455962,0.0030134008867280285,0.008481957133728379,0.002584702241529732,0.002897609634688456,0.028248503922264388,0.010435976662178333,0.0019474760237119942,0.009982317680073096
0.2461154,0.003011293304570873,0.008513664596217907,0.0025990316362379967,0.002897554789317249,0.028218022470354938,0.010363870500147919,0.0019503076912466204,0.010106668923547047
0.2466346,0.003009752804551573,0.008545132184297078,0.0026135856481134374,0.0028974245285956746,0.028186696330409794,0.010293313998099957,0.0019530951100524456,0.010232535227534818
0.2471538,0.0030087695167868253,0.008576355285185118,0.0026283633366709328,0.0028972194034778713,0.028154530810642047,0.010224309559001232,0.0019558375727820932,0.010359925044805093
0.2476731,0.003008333483339678,0.008607329385982344,0.002643363749072548,0.0028969400096426285,0.02812153149946837,0.010156859416073812,0.0019585343819903643,0.010488846732427533
0.2481923,0.0030084346605633925,0.008638050073573154,0.002658585920214965,0.0028965869868642947,0.028087704262795818,0.01009096563354556,0.0019611848502342254,0.010619308547338526
0.2487115,0.003009062921451326,0.008668513034506938,0.0026740288728126704,0.0028961610183742595,0.028053055241232576,0.01002663010734604,0.00196378830017359,0.010751318641900693
0.2492308,0.003010208057992526,0.008698714054856962,0.002689691617476829,0.0028956628302132825,0.028017590847223512,0.009963854565748893,0.001966344064672815,0.010884885059457283
0.24975,0.00301185978353275,0.008728649020057334,0.0027055731527897606,0.0028950931905749227,0.027981317762111275,0.0099026405699618,0.001968851486902842,0.011020015729882468
0.2502692,0.003014007735140629,0.008758313914718098,0.0027216724653749253,0.0028944529091403473,0.02794424293312361,0.00984298951466514,0.0019713099204439334,0.011156718465128505
0.2507885,0.003016641475978752,0.008787704822418571,0.0027379885299623004,0.0028937428364047887,0.0279063735702878,0.009784902628500375,0.001973718729388951,0.011295000954770646
0.2513077,0.003019750497679452,0.00881681792547896,0.0027545203094490323,0.002892963862995927,0.027867717143273036,0.009728380974509187,0.001976077288447145,0.011434870761550616
0.2518269,0.0030233242227251035,0.008845649504710368,0.002771266754955243,0.002892116918984489,0.02782828137816198,0.009673425450524348,0.001978384983048409,0.011576335316919399
0.2523462,0.003027352006832771,0.00887419593914325,0.0027882268058748447,0.0028912029731873717,0.027788074254153066,0.009620036789513215,0.00198064120944795,0.011719401916580073
0.2528654,0.003031823141343054,0.00890245370573442,0.0028053993899212156,0.002890223032463606,0.027747104000195224,0.00956821555987479,0.0019828453748313335,0.011864077716031422
0.2533846,0.003036726855612989,0.008930419379052649,0.0028227834231675884,0.002889178141003505,0.02770537909155705,0.009517962165691164,0.001984996897419848,0.012010369726112916
0.2539038,0.003042052319412893,0.00895808963094295,0.0028403778100819983,0.002888069379611376,0.027662908246332222,0.009469276846934148,0.0019870952065761506,0.012158284808551668
0.2544231,0.0030477886453270197,0.008985461230169571,0.002858181443556664,0.002886897864982181,0.027619700421882994,0.009422159679627859,0.0019891397429101718,0.012307829671511884
0.2549423,0.00305392489115794,0.0090125310420377,0.0028761932049316957,0.0028856647489725715,0.027575764811223518,0.009376610575967939,0.0019911299583852474,0.01245901086514721
0.2554615,0.0030604500623345374,0.009039296027993908,0.0028944119640130508,0.0028843712178667105,0.0275311108393448,0.009332629284398094,0.00199306531642448,0.01261183477715639
0.2559808,0.0030673531143235295,0.009065753245205314,0.0029128365790846793,0.002883018491637325,0.027485748159483004,0.0092902153896445,0.001994945292017321,0.012766307628342544
0.2565,0.0030746229550444064,0.009091899846117536,0.002931465896914833,0.0028816078232024095,0.027439686649333016,0.00924936831270863,0.001996769371826393,0.01292243546817643
0.2570192,0.0030822484472876853,0.009117733077991474,0.002950298752756541,0.002880140497678025,0.027392936407209082,0.009210087310819076,0.0019985370542945644,0.013080224170363962
0.2575385,0.0030902184111363615,0.00914325028241903,0.002969333970342266,0.0028786178316275975,0.027345507748154394,0.009172371477342919,0.0020002478497523008,0.013239679428418244
0.2580577,0.0030985216263904585,0.009168448894817882,0.0029885703618727734,0.0028770411723081524,0.02729741120000131,0.009136219741657388,0.002001901280525301,0.013400806751236302
0.2585769,0.0031071468349945677,0.009193326443905381,0.0030080067280002553,0.0028754118969138882,0.027248657499383894,0.009101630868982585,0.0020034968810424257,0.013563611458680607
0.2590962,0.0031160827434682774,0.0092178805511516,0.003027641857805753,0.0028737314118174847,0.02719925758770445,0.009068603460176227,0.0020050341979439145,0.013728098677165469
0.2596154,0.0031253180253393914,0.00924210893021159,0.00304747452877092,0.0028720011518095375,0.027149222607055695,0.009037135951491413,0.002006512790189874,0.013894273335248314
0.2601346,0.00313484132357986,0.009266009386336883,0.003067503506744172,0.002870222579336484,0.027098563896100405,0.00900722661429854,0.00200793222916902,0.014062140159225958
0.2606538,0.0031446412530443356,0.009289579815766266,0.0030877275459012497,0.0028683971837373885,0.027047292985910278,0.008978873554772532,0.002009292098807663,0.014231703668735938
0.2611731,0.003154706402911287,0.009312818205095967,0.0031081453887002383,0.002866526480479953,0.026995421595766074,0.008952074713546707,0.0020105919956789346,0.014402968172363079
0.2616923,0.003165025339126618,0.009335722630629349,0.003128755765831044,0.0028646120103961196,0.026942961628920854,0.008926827865334611,0.0020118315291122804,0.014575937763251454
0.2622115,0.0031755866068497356,0.009358291257706321,0.0031495573961593526,0.0028626553389176405,0.026889925168328447,0.008903130618521223,0.002013010321303264,0.014750616314722095
0.2627308,0.0031863787329020196,0.00938052234001263,0.0031705489866650912,0.0028606580553119923,0.026836324472339364,0.008880980414724923,0.002014128007423738,0.014927007475896906
0.26325,0.003197390228217623,0.009402414218869205,0.003191729232375415,0.0028586217719190196,0.02678217197036653,0.008860374528331662,0.0020151842357324563,0.015105114667329382
0.2637692,0.0032086095902965246,0.00942396532250175,0.003213096816292244,0.0028565481233886816,0.02672748025852334,0.008841310066002726,0.0020161786676862,0.015284941076642924
0.2642885,0.0032200253056597337,0.00944517416529064,0.0032346504093143926,0.0028544387659202694,0.02667226209523659,0.008823783966157505,0.0020171109780514752,0.015466489654177571
0.2648077,0.0032316258523065137,0.009466039347001225,0.0032563886701543142,0.0028522953765034447,0.02661653039683684,0.00880779299843268,0.0020179808550168372,0.01564976310864595
0.2653269,0.003243399702173486,0.00948655955199466,0.0032783102452494826,0.002850119652161434,0.02656029823312852,0.008793333763119169,0.0020187880003058787,0.015834763902799257
0.2658462,0.0032553353235954437,0.009506733548419369,0.0033004137686684556,0.0028479133091966896,0.026503578822942242,0.008780402690578138,0.0020195321292909023,0.016021494249104092
0.2663654,0.0032674211837677,0.009526560187383355,0.00332269786201165,0.002845678082439317,0.02644638552967163,0.00876899604063739,0.0020202129711072866,0.016209956105431026
0.2668846,0.003279645751209768,0.009546038402107581,0.003345161134306867,0.0028434157244985486,0.02638873185679712,0.008759109901969373,0.0020208302687685442,0.01640015117075579
0.2674038,0.0032919974982301655,0.009565167207060668,0.0033678021818996165,0.0028411280050175316,0.026330631443399127,0.00875074019145211,0.0020213837792820567,0.01659208088087403
0.2679231,0.0033044649033920977,0.009583945697075128,0.0033906195883382593,0.0028388167099316947,0.02627209805966298,0.0087438826535143,0.002021873273765456,0.01678574640413049
0.2684423,0.0033170364539797568,0.00960237304644536,0.0034136119242539884,0.0028364836407309643,0.026213145602378144,0.008738532859465945,0.0020222985375636204,0.016981148637163507
0.2689615,0.0033297006484649524,0.00962044850800754,0.003436777747235669,0.002834130613726119,0.026153788090433904,0.008734686206815803,0.0020226593703662333,0.017178288200665564
0.2694808,0.0033424459989737747,0.009638171412201574,0.0034601156016995536,0.002831759459319554,0.026094039660313813,0.008732337918577061,0.002022955586325851,0.017377165435160564
0.27,0.0033552610337529622,0.00965554116611527,0.003483624018753932,0.002829372021280751,0.026033914561590953,0.008731483042562589,0.002023187014176421,0.017577780396798377
0.2705192,0.0033681342996356653,0.009672557252510951,0.0035073015160588003,0.002826970156026759,0.02597342715242595,0.008732116450671054,0.0020233534973521784,0.017780132853167263
0.2710385,0.0033810543645062885,0.009689219228834794,0.003531146597680663,0.002824555731907993,0.02591259189506959,0.008734232838165186,0.0020234548941068416,0.017984222279124575
0.2715577,0.003394009819764118,0.009705526726209205,0.0035551577539426338,0.002822130628499676,0.025851423351371545,0.00873782672294336,0.00202349107763303,0.018190047852646215
0.2720769,0.003406989282785468,0.009721479448408676,0.003579333461270037,0.002819696735899263,0.025789936178296658,0.008742892444805622,0.002023461936181804,0.018397608450695324
0.2725962,0.0034199813993840977,0.009737077170819551,0.0036036721820317504,0.002817255954030157,0.02572814512344996,0.008749424164715263,0.002023367373182236,0.01860690264511067
0.2731154,0.0034329748462696838,0.00975231973938421,0.0036281723643775735,0.002814810191952045,0.025666065020611358,0.008757415864057021,0.002023207307360911,0.018817928698515236
0.2736346,0.0034459583335041595,0.009767207069530204,0.00365283244207194,0.002812361367178156,0.02560371078528084,0.008766861343892965,0.002022981672861269,0.019030684560245408
0.2741538,0.0034589206069557746,0.009781739145084851,0.0036776508343243056,0.002809911404999712,0.025541097410234803,0.008777754224217242,0.0020226904193627097,0.019245167862301155
0.2746731,0.003471850450750752,0.009795916017175818,0.003702625945616582,0.002807462237817841,0.025478239961094044,0.008790087943210918,0.002022333512199399,0.01946137591531756
0.2751923,0.0034847366897224476,0.009809737803118161,0.003727756165528005,0.0028050158044832093,0.025415153571903715,0.008803855756498195,0.0020219109324787054,0.019679305704558243
0.2757115,0.003497568191857919,0.009823204685288295,0.0037530398685578273,0.0028025740496436294,0.025351853440725703,0.008819050736405454,0.0020214226771992053,0.019898953885931377
0.2762308,0.0035103338707418337,0.009836316909985258,0.003778475413946273,0.002800138923099877,0.025288354825243588,0.008835665771224485,0.0020208687593681832,0.020120316782029482
0.27675,0.003523022687997608,0.0098490747862796,0.0038040611454941424,0.0027977123791699614,0.025224673038380288,0.008853693564481374,0.0020202492081185463,0.02034339037819436
0.2772692,0.003535623655725677,0.009861478684850121,0.0038297953913814975,0.002795296376062088,0.025160823443928358,0.008873126634212409,0.0020195640688250747,0.020568170318608966
0.2777885,0.0035481258389388017,0.009873529036808684,0.0038556764639858182,0.0027928928752565317,0.02509682145219273,0.008893957312248357,0.0020188134032199144,0.020794651902417992
0.2783077,0.0035605183579943142,0.009885226332513163,0.003881702659700033,0.0027905038408966537,0.025032682515645464,0.008916177743508415,0.0020179972895072213,0.021022830079879252
0.2788269,0.0035727903910232443,0.00989657112036862,0.003907872258750813,0.002788131239189267,0.024968422124592066,0.008939779885305105,0.002017115822476847,0.021252699448547966
0.2793462,0.003584931176356282,0.009907564005616676,0.0039341835250175415,0.0027857770378145606,0.02490405580284867,0.008964755506661412,0.0020161691136169543,0.021484254249496286
0.2798654,0.0035969300149465734,0.009918205649113025,0.0039606347058523655,0.0027834432053457695,0.024839599103429404,0.008991096187641542,0.0020151572912254292,0.021717488363570563
0.2803846,0.00360877627278938,0.009928496766092948,0.003987224031901757,0.002781131710678758,0.02477506760424333,0.009018793318696705,0.0020140805005199516,0.02195239530768915
0.2809038,0.003620459383338659,0.009938438124924629,0.004013949716930025,0.002778844522471678,0.024710476903800106,0.009047838100027449,0.002012938903746581,0.022188968231183725
0.2814231,0.0036319688499206805,0.00994803054585,0.004040809957645218,0.002776583608594829,0.024645842616923572,0.009078221540964118,0.002011732680286695,0.02242719991218725
0.2819423,0.003643294248144781,0.009957274899712829,0.004067802933527914,0.002774350935590839,0.024581180370472234,0.009109934459367131,0.0020104620267621005,0.02266708275407195
0.2824615,0.0036544252283113913,0.009966172106673724,0.00409492680666339,0.0027721484681452664,0.02451650579906558,0.009142967481048751,0.0020091271571381357,0.02290860878194067
0.2829808,0.0036653515178174598,0.009974723134911797,0.004122179721577696,0.0027699781685677272,0.024451834540814756,0.009177311039218136,0.002007728302824557,0.02315176963917518
0.2835,0.0036760629235594007,0.009982928999312735,0.0041495598050781905,0.002767841996283619,0.02438718223305629,0.009212955373951415,0.002006265712773993,0.023396556584044728
0.2840192,0.0036865493343336865,0.009990790760143234,0.004177065166099085,0.002765741907336524,0.02432256450808723,0.009249890531688522,0.00200473965357775,0.023642960486378276
0.2845385,0.0036968007232351992,0.009998309521711745,0.00420469389555256,0.002763679853901346,0.024257996988900278,0.009288106364758499,0.0020031504095587268,0.023890971824303654
0.2850577,0.003706807150053446,0.01000548643101575,0.004232444066185996,0.0027616577838082234,0.024193495284917536,0.009327592530934922,0.002001498282861209,0.024140580681056668
0.2855769,0.0037165587636667306,0.010012322676375881,0.004260313732445861,0.002759677640077255,0.024129074987721686,0.009368338493023038,0.001999783593537279,0.02439177674186321
0.2860962,0.003726045804434363,0.010018819486057406,0.00428830093034875,0.002757741360464061,0.024064751666783943,0.00941033351848014,0.001998006679629593,0.02464454929089742
0.2866154,0.003735258606586982,0.010024978126879707,0.004316403677360081,0.0027558508770162094,0.02400054086518849,0.009453566679070642,0.0019961678972502624,0.024898887208318957
0.2871346,0.0037441876006150225,0.010030799902814596,0.004344619972280897,0.0027540081156405376,0.02393645809535345,0.009498026850557263,0.001994267620655599,0.025154778967392686
0.2876538,0.003752823315655364,0.010036286153574419,0.004372947795143259,0.0027522149956814147,0.02387251883474877,0.009543702712429759,0.001992306242316509,0.025412212631694277
0.2881731,0.003761156381876137,0.010041438253191001,0.004401385107114681,0.0027504734295099808,0.02380873852161166,0.009590582747672525,0.0019902841729843566,0.02567117585240561
0.2886923,0.003769177532859665,0.010046257608586512,0.0044299298504121435,0.002748785322124423,0.02374513255066019,0.009638655242572467,0.0019882018417521677,0.025931655865703854
0.2892115,0.003776877607983464,0.010050745658137359,0.004458579948226201,0.002747152570761318,0.023681716268805802,0.009687908286568476,0.0019860596961110634,0.026193639490248322
0.2897308,0.0037842475547992054,0.010054903870232145,0.004487333304655788,0.0027455770645180805,0.023618504970865702,0.009738329772143832,0.0019838582020018465,0.026457113124768932
0.29025,0.0037912784314095213,0.010058733741824803,0.00451618780465436,0.0027440606839865475,0.02355551389527632,0.009789907394762772,0.001981597843861669,0.02672206274576008
0.2907692,0.003797961408842491,0.010062236796983915,0.0045451413139880135,0.002742605300897731,0.023492758219809284,0.009842628652852391,0.0019792791246657066,0.026988473905283406
0.2912885,0.003804287773423639,0.010065414585439416,0.0045741916792062624,0.0027412127777777765,0.023430253057291676,0.009896480847830987,0.001976902565963772,0.027256331728882817
0.2918077,0.0038102489291452373,0.010068268681127864,0.004603336727626119,0.0027398849676151765,0.023368013451332645,0.009951451084183846,0.0019744687079118173,0.027525620913614938
0.2923269,0.0038158364000326858,0.010070800680737652,0.00463257426733015,0.002738623713539326,0.023306054372058852,0.010007526269587487,0.0019719781092982923,0.027796325726197942
0.2928462,0.003821041832507715,0.010073012202255581,0.0046619020871791796,0.0027374308485104797,0.023244390711861497,0.0100646931150833,0.0019694313475653647,0.028068430001281796
0.2933654,0.0038258569977481266,0.010074904883516403,0.004691317956840319,0.002736308195021214,0.023183037281157858,0.010122938135301494,0.0019668290188250316,0.028341917139842767
0.2938846,0.0038302737940437417,0.010076480380756925,0.004720819626831012,0.002735257564809473,0.023122008804170473,0.010182247648736242,0.0019641717378701884,0.02861677010770511
0.2944038,0.003834284249148223,0.010077740367176437,0.004750404828579786,0.0027342807585832626,0.02306131991472717,0.010242607778072904,0.001961460138180745,0.028892971434192782
0.2949231,0.003837880522626405,0.010078686531505149,0.00478007127450439,0.0027333795657570516,0.023000985152085197,0.010304004450568144,0.0019586948719249233,0.029170503210914075
0.2954423,0.003841054908196755,0.010079320576582415,0.004809816658107953,0.002732555764199931,0.022941018956782598,0.010366423398483746,0.0019558766099558957,0.029449347090681734
0.2959615,0.0038437998360685887,0.010079644217946495,0.0048396386540938115,0.002731811119995556,0.022881435666519845,0.010429850159574792,0.0019530060418039583,0.029729484286571167
0.2964808,0.0038461078752736405,0.010079659182437596,0.004869534918499567,0.0027311473872138866,0.022822249512074774,0.010494270077632907,0.001950083875664454,0.030010895571118974
0.297,0.0038479717359916057,0.010079367206815952,0.004899503088850958,0.0027305663076947297,0.022763474613253752,0.010559668303085074,0.0019471108383816895,0.030293561275663846
0.2975192,0.003849384271869227,0.010078770036396664,0.0049295407843360515,0.0027300696108430696,0.022705124974881925,0.010626029793648554,0.0019440876754290874,0.0305774612898317
0.2980385,0.0038503384823325264,0.010077869423703036,0.004959645606000257,0.00272965901343617,0.02264721448283549,0.010693339315042318,0.0019410151508858257,0.030862575061166745
0.2985577,0.003850827514891754,0.010076667127140079,0.004989815136962625,0.0027293362194424162,0.02258975690011883,0.010761581441755357,0.0019378940474102213,0.031148881594910017
0.2990769,0.0038508446674386174,0.010075164909689852,0.005020046942653847,0.0027291029198518437,0.022532765862989346,0.01083074055787215,0.0019347251662101008,0.03143635945392696
0.2995962,0.0038503833905353334,0.010073364537630206,0.005050338571076363,0.00272896079251829,0.022476254877132583,0.01090080085795552,0.0019315093270103993,0.03172498675878562
0.3001154,0.0038494372896950403,0.01007126777927846,0.005080687553086933,0.0027289115020130835,0.02242023731389011,0.010971746347987005,0.0019282473680182104,0.03201474118798687
0.3006346,0.003848000127653061,0.010068876403761478,0.005111091402701985,0.002728956699490159,0.022364726406542485,0.011043560846364896,0.0019249401458855066,0.03230559997834807
0.3011538,0.0038460658266285235,0.01006619217981351,0.005141547617426024,0.002729098022562483,0.0223097352466495,0.011116227984960009,0.0019215885356697294,0.03259753992554165
0.3016731,0.003843628470575813,0.010063216874603067,0.005172053678603358,0.0027293370951896505,0.022255276780449824,0.011189731210229354,0.0019181934307924448,0.03289053738479014
0.3021923,0.0038406823074253332,0.010059952252590078,0.005202607051793324,0.0027296755275765137,0.022201363805322113,0.011264053784387964,0.0019147557429962563,0.03318456827171952
0.3027115,0.0038372217513130504,0.010056400074414409,0.005233205187169191,0.0027301149160826894,0.02214800896630959,0.01133917878663931,0.0019112764023001593,0.0334796080633732
0.3032308,0.0038332413847983167,0.010052562095816802,0.00526384551994086,0.0027306568431428205,0.022095224752710075,0.011415089114465026,0.0019077563569535269,0.033775631799389076
0.30375,0.0038287359610694864,0.010048440066593183,0.00529452547080146,0.0027313028771974585,0.02204302349473342,0.01149176748497473,0.0019041965733889138,0.034072614083342445
0.3042692,0.0038237004061368466,0.010044035729583203,0.0053252424463978995,0.0027320545726344275,0.021991417360228225,0.011569196436316908,0.0019005980361738583,0.03437052908425735
0.3047885,0.0038181298210123982,0.010039350819693774,0.005355993839825402,0.00273291346974054,0.021940418351479682,0.01164735832915186,0.0018969617479618495,0.03466935053828928
0.3053077,0.0038120194838760038,0.010034387062958316,0.005386777031146011,0.0027338810946635154,0.02189003830208034,0.011726235348187735,0.0018932887294426243,0.03496905175058182
0.3058269,0.0038053648522274035,0.010029146175632336,0.005417589387931021,0.0027349589593839547,0.021840288873875527,0.011805809503780615,0.001889580019291946,0.03526960559729971
0.3063462,0.0037981615650235804,0.010023629863325872,0.005448428265827252,0.002736148561697191,0.02179118155398503,0.011886062633599667,0.001885836674121016,0.03557098452784111
0.3068654,0.0037904054448009363,0.010017839820173294,0.005479291009147041,0.002737451385204856,0.02174272765190243,0.011966976404358357,0.0018820597684256716,0.03587316056723137
0.3073846,0.0037820924997817307,0.010011777728040853,0.005510174951481815,0.0027388688993159617,0.021694938296673412,0.01204853231361268,0.0018782503945355233,0.03617610531870059
0.3079038,0.003773218925964211,0.010005445255772278,0.0055410774163390675,0.0027404025592572927,0.02164782443415418,0.012130711691627294,0.0018744096625632053,0.036479789966447
0.3084231,0.003763781109195889,0.00999884405847269,0.005571995717802539,0.002742053806092893,0.021601396824350923,0.01221349570331042,0.0018705387003538996,0.03678418527858784
0.3089423,0.0037537756272294186,0.00999197577683096,0.0056029271612153785,0.0027438240667524098,0.02155566603884112,0.012296865350218275,0.0018666386534352958,0.037089261610299185
0.3094615,0.0037431992517605694,0.009984842036480616,0.00563386904388606,0.002745714754068041,0.021510642458277426,0.012380801472629745,0.0018627106849681324,0.03739498890714579
0.3099808,0.003732048950447812,0.009977444447399344,0.005664818655816845,0.002747727266819826,0.021466336269974656,0.012465284751691967,0.00185875597569746,0.03770133670860186
0.3105,0.0037203218889130746,0.009969784603347008,0.005695773280454557,0.0027498629897890056,0.021422757465580308,0.012550295711637476,0.0018547757239047499,0.03800827415176347
0.3110192,0.0037080154327232807,0.009961864081342099,0.0057267301954635,0.002752123293819173,0.021379915838828836,0.012635814722073499,0.0018507711453609572,0.03831576997525299
0.3115385,0.0036951271493522882,0.009953684441176442,0.005757686673520324,0.002754509535884939,0.021337820983379874,0.012721822000343986,0.0018467434732806474,0.03862379252331562
0.3120577,0.0036816548101228745,0.009945247224967917,0.005788639983130661,0.002757023059167829,0.02129648229074038,0.012808297613964795,0.001842693958277287,0.03893230975010809
0.3125769,0.003667596392128411,0.009936553956750898,0.005819587389467342,0.002759665193139133,0.021255908948270737,0.012895221483132473,0.0018386238683197928,0.03924128922417947
0.3130962,0.00365295008013387,0.009927606142104035,0.0058505261552300285,0.0027624372536494356,0.02121610993727464,0.01298257338330698,0.0018345344886904306,0.039550698133143825
0.3136154,0.003637714268455774,0.009918405267814956,0.005881453541526112,0.0027653405430245657,0.02117709403117274,0.013070332947868593,0.0018304271219441485,0.03986050328854472
0.3141346,0.003621887562820696,0.009908952801581432,0.005912366808772831,0.0027683763501677072,0.021138869793759722,0.013158479670849231,0.0018263030878694195,0.04017067113091154
0.3146538,0.0036054687822018932,0.009899250191748523,0.005943263217620579,0.002771545950667409,0.021101445577544703,0.013246992909738407,0.0018221637234506606,0.04048116773500765
0.3151731,0.0035884569606336276,0.009889298867081175,0.005974140029897439,0.00277485060691125,0.021064829522174467,0.013335851888363951,0.001818010382832288,0.040791958815270674
0.3156923,0.003570851349002708,0.009879100236571806,0.006004994509575012,0.002778291568204896,0.02102902955293924,0.013425035699847696,0.0018138444372844515,0.04110300973144474
0.3162115,0.003552651416816778,0.00986865568928239,0.006035823923755621,0.002781870070896281,0.02099405337936051,0.013514523309636262,0.0018096672751704947,0.04141428549440482
0.3167308,0.003533856853948833,0.009857966594220573,0.00606662554368094,0.0027855873385046474,0.020959908493860393,0.013604293558607115,0.0018054803019161654,0.04172575077217294
0.31725,0.003514467572357456,0.009847034300249375,0.0060973966457621475,0.002789444581854158,0.02092660217051203,0.01369432516625004,0.0018012849399805994,0.042037369896126164
0.3177692,0.003494483707782242,0.00983586013603008,0.006128134512631693,0.0027934429992118232,0.02089414146387048,0.013784596733924157,0.0017970826288291036,0.04234910686739578
0.3182885,0.003473905621413878,0.00982444540999789,0.006158836434216818,0.0027975837764294678,0.02086253320788355,0.013875086748190683,0.0017928748249077357,0.04266092536345764
0.3188077,0.0034527339015383513,0.00981279141036998,0.006189499708834965,0.0028018680870894814,0.020831784014881963,0.013965773584221597,0.0017886630016196877,0.04297278874491329
0.3193269,0.003430969365154771,0.00980089940518557,0.006220121644311233,0.002806297092654099,0.020801900274648226,0.014056635509284397,0.0017844486493034581,0.04328466006246164
0.3198462,0.0034086130595662872,0.009788770642377603,0.006250699559118051,0.00281087194261797,0.020772888153563412,0.014147650686303075,0.001780233275212789,0.04359650206406119
0.3203654,0.0033856662639436303,0.009776406349875665,0.006281230783537149,0.00281559377466376,0.020744753593831027,0.014238797177495436,0.0017760184034983297,0.04390827720228238
0.3208846,0.0033621304908607696,0.00976380773573962,0.006311712660843937,0.002820463714820523,0.020717502312776876,0.014330052948086862,0.0017718055751909769,0.044219947641850076
0.3214038,0.0033380074878022266,0.009750975988323467,0.006342142548514332,0.002825482877624574,0.020691139802223753,0.014421395870100533,0.001767596348186827,0.04453147526737571
0.3219231,0.003313299238641538,0.009737912276468811,0.006372517819454046,0.0028306523662825597,0.02066567132793965,0.014512803726224143,0.0017633922972336597,0.04484282169127872
0.3224423,0.003288007965090398,0.0097246177497273,0.006402835863250285,0.002835973272836421,0.020641101929158006,0.014604254213753007,0.001759195013918863,0.04515394826189652
0.3229615,0.00326213612811795,0.009711093538611302,0.006433094087445842,0.002841446678329913,0.020617436418168357,0.014695724948609441,0.0017550061066586974,0.04546481607178228
0.3234808,0.0032356864293397137,0.009697340754872025,0.006463289918835442,0.002847073652976355,0.02059467937997575,0.01478719346943824,0.0017508272006887765,0.045775385966189706
0.324,0.0032086618123756197,0.009683360491804266,0.006493420804784219,0.002852855256327252,0.020572835172027116,0.014878637241777992,0.0017466599380556432,0.0460856185517441
0.3245192,0.0031810654641765855,0.009669153824576887,0.006523484214568124,0.0028587925374414383,0.020551907924002893,0.014970033662307976,0.0017425059776093037,0.046395474205298944
0.3250385,0.0031529008163190676,0.009654721810588088,0.006553477640736062,0.002864886535054383,0.020531901537672197,0.015061360063170307,0.001738366994996591,0.046704913082977424
0.3255577,0.0031241715462669937,0.009640065489844503,0.006583398600493444,0.00287113827774728,0.02051281968681003,0.015152593716366921,0.0017342446826552331,0.04701389512939813
0.3260769,0.0030948815786004513,0.009625185885363128,0.006613244637106856,0.0028775487841155825,0.020494665817175073,0.01524371183823098,0.001730140749808517,0.04732238008708441
0.3265962,0.0030650350862105073,0.009610084003595053,0.006643013321329445,0.0028841190629366174,0.020477443146546828,0.015334691593972096,0.00172605692246043,0.047630327506056516
0.3271154,0.0030346364914594797,0.009594760834870018,0.006672702252846634,0.0028908501133359504,0.020461154664820968,0.01542551010229489,0.0017219949433911715,0.047937696753605374
0.3276346,0.003003690467305996,0.009579217353860758,0.0067023090617417125,0.0028977429249521704,0.0204458031341617,0.015516144440090227,0.0017179565721529195,0.04824444702424675
0.3281538,0.002972201938394148,0.009563454520066204,0.006731831409980863,0.0029047984780997856,0.020431391089210105,0.015606571647198668,0.0017139435850657351,0.0485505373498541
0.3286731,0.002940176082106048,0.009547473278312655,0.006761266992917119,0.0029120177439299366,0.020417920837347284,0.015696768731245554,0.0017099577752134863,0.048855926609968146
0.3291923,0.0029076183295770838,0.009531274559272114,0.006790613540812749,0.002919401684588659,0.020405394459011177,0.015786712672547196,0.0017060009524396556,0.049160573542280935
0.3297115,0.002874534366673165,0.00951485927999707,0.006819868820379506,0.0029269512533724373,0.020393813808065875,0.015876380429087646,0.0017020749433428975,0.04946443675329174
0.3302308,0.00284093013492925,0.00949822834447104,0.006849030636336152,0.002934667394880803,0.020383180512222286,0.015965748941565435,0.0016981815912721944,0.04976747472913193
0.33075,0.0028068118324484225,0.009481382644174278,0.0068780968329826,0.0029425510451657464,0.02037349597350896,0.016054795138509593,0.0016943227563214565,0.05006964584655538
0.3312692,0.0027721859147607974,0.00946432305866407,0.006907065295790004,0.002950603131877701,0.020364761368791933,0.016143495941464154,0.0016905003153233997,0.05037090838409097
0.3317885,0.002737059095641512,0.009447050456168992,0.006935933953006048,0.0029588245744078742,0.020356977650342355,0.016231828270240327,0.001686716161842539,0.05067122053335285
0.3323077,0.0027014383478870746,0.009429565694196559,0.0069647007772746915,0.0029672162840266663,0.020350145546450506,0.016319769048235348,0.0016829722061671285,0.050970540410504146
0.3328269,0.0026653309040493263,0.009411869620153635,0.00699336378726959,0.002975779164017931,0.02034426556208478,0.016407295207816947,0.001679270375299885,0.051268826067869554
0.3333462,0.002628744257126288,0.009393963071978916,0.007021921049340389,0.002984514109808806,0.02033933797959422,0.016494383695772323,0.0016756126129473358,0.051566035505691596
0.3338654,0.002591686161209153,0.009375846878786802,0.007050370679171096,0.002993422009094829,0.02033536285945323,0.01658101147882039,0.0016720008795076374,0.05186212668402527
0.3343846,0.0025541646320847125,0.009357521861521851,0.0070787108434497105,0.003002503741960039,0.020332340041047114,0.016667155549185977,0.0016684371520567015,0.05215705753476522
0.3349038,0.0025161879477925103,0.009338988833622967,0.007106939761548295,0.0030117601809917433,0.020330269143497292,0.01675279293023469,0.0016649234243324713,0.05245078597379946
0.3354231,0.002477764649136053,0.009320248601696429,0.007135055707212672,0.0030211921913896093,0.020329149566525033,0.01683790068216698,0.0016614617067171693,0.052743269913283236
0.3359423,0.0024389035401474243,0.009301301966196785,0.00716305701026091,0.003030800631068725,0.020328980491352778,0.016922455907770036,0.001658054026217349,0.05303446727402633
0.3364615,0.002399613688504669,0.009282149722114608,0.007190942058289794,0.003040586350756254,0.020329760881642272,0.01700643575822609,0.0016547024264415757,0.053324335997986964
0.3369808,0.002359904425901325,0.009262792659670038,0.007218709298388444,0.003050550194081309,0.020331489484469157,0.017089817438975672,0.0016514089675755965,0.0536128340608652
0.3375,0.0023197853483674664,0.009243231565011051,0.007246357238858279,0.0030606929976576785,0.020334164831333903,0.01717257821563458,0.0016481757263548766,0.0538999194847887
0.3380192,0.0022792663165416152,0.00922346722091533,0.007273884450938516,0.0030710155911590114,0.020337785239209382,0.01725469541996324,0.0016450047960344118,0.05418555035108373
0.3385385,0.0022383574558928676,0.009203500407494663,0.0073012895705364175,0.003081518797386109,0.020342348811625506,0.017336146455887224,0.0016418982863557472,0.05446968481312449
0.3390577,0.002197069156892583,0.009183331902900722,0.007328571299961472,0.0030922034323259615,0.02034785343979139,0.017416908805567673,0.0016388583235111504,0.05475228110925399
0.3395769,0.0021554120751349735,0.009162962484031137,0.0073557284096626855,0.0031030703052021824,0.02035429680375551,0.017496960035520363,0.001635887050104887,0.05503329757577008
0.3400962,0.002113397131405935,0.009142392927234759,0.007382759739968141,0.0031141202185165184,0.02036167637360413,0.017576277802782043,0.0016329866251115475,0.05531269265997019
0.3406154,0.002071035511699452,0.009121624009015047,0.007409664202825948,0.0031253539680810897,0.020369989410698154,0.01765483986112258,0.0016301592238313735,0.05559042493324856
0.3411346,0.002028338667180908,0.009100656506730453,0.007436440783545649,0.0031367723430410633,0.020379232968948564,0.017732624067301368,0.0016274070378425238,0.05586645310423926
0.3416538,0.001985318314096627,0.009079491199290775,0.007463088542539096,0.0031483761258874576,0.0203894038961303,0.017809608387366335,0.0016247322749502167,0.05614073603199864
0.3421731,0.0019419864336289805,0.009058128867848453,0.007489606617059768,0.003160166092459789,0.020400498835234506,0.017885770902993845,0.0016221371591326852,0.05641323273922049
0.3426923,0.0018983552716963991,0.009036570296483734,0.0075159942229394774,0.0031721430119382816,0.020412514225858977,0.017961089817867596,0.0016196239304838722,0.056683902425476614
0.3432115,0.0018544373386976416,0.009014816272882748,0.007542250656321331,0.0031843076468253827,0.02042544630563633,0.01803554346409459,0.0016171948451527847,0.056952704480475645
0.3437308,0.001810245409199675,0.008992867589007523,0.007568375295387827,0.0031966607529163075,0.020439291111699513,0.01810911030865612,0.0016148521752794207,0.057219598497332484
0.34425,0.0017657925215685255,0.008970725041757058,0.007594367602082937,0.00320920307925837,0.020454044482183992,0.018181768959891587,0.0016125982089271694,0.05748454428584064
0.3447692,0.0017210919775424416,0.008948389433618599,0.0076202271238269914,0.0032219353680988166,0.02046970205776585,0.01825349817401287,0.0016104352500115756,0.05774750188573954
0.3452885,0.0016761573417467123,0.008925861573308375,0.007645953495223204,0.00323485835482088,0.020486259283235005,0.018324276861646775,0.0016083656182253432,0.058008431579968774
0.3458077,0.0016310024411494723,0.008903142276401118,0.007671546439754667,0.003247972767867765,0.020503711409102524,0.01839408409440299,0.0016063916489594478,0.05826729390790129
0.3463269,0.001585641364457819,0.008880232365947762,0.007697005771470685,0.0032612793286542355,0.02052205349324093,0.01846289911146482,0.0016045156932202155,0.05852404967854712
0.3468462,0.0015400884614535676,0.008857132673080843,0.007722331396661291,0.003274778751465459,0.0205412804025563,0.01853070132619997,0.0016027401175422204,0.058778659983719984
0.3473654,0.0014943583422679565,0.008833844037607159,0.007747523315518859,0.003288471743342761,0.020561386814690982,0.01859747033278855,0.001601067303896844,0.05903108621115821
0.3478846,0.001448465876594606,0.008810367308587362,0.007772581623785686,0.0033023590039558946,0.02058236721975567,0.0186631859128655,0.001599499649596343,0.059281290057591994
0.3484038,0.0014024261928400371,0.008786703344902126,0.007797506514386491,0.003316441225461452,0.020604215922089827,0.018727828042174696,0.0015980395671932675,0.059529233541748355
0.3489231,0.0013562546772110386,0.008762853015804586,0.007822298279044739,0.0033307190923470387,0.02062692704204945,0.018791376897232034,0.0015966894843750794,0.05977487901728547
