Time,Rectus Femoris right,Rectus Femoris left,Hamstrings right,Hamstrings left,TibilaisÂ Anterior right,TibilaisÂ Anterior left,Gastrocnemius right,Gastrocnemius left
0.0,-0.0014478912901024145,-0.002731277735731264,-0.0006025479183151978,0.01786717547784987,0.005642960324951136,0.005673662472526827,0.0067950241973441395,0.007753259054294367
0.0005192,-0.001417913098264524,-0.0026566220449723613,-0.0004915766996901391,0.018113756985036655,0.005878627965396221,0.005976689997383889,0.00696563541366787,0.007838141460413835
0.0010385,-0.001387981223750073,-0.002581989989945044,-0.00038105599125018457,0.01836181305614116,0.006114660264253268,0.006281254579213577,0.00713530106675517,0.007923268385181946
0.0015577,-0.001358096151690113,-0.0025073908523893466,-0.00027100242067220953,0.01861132252734779,0.006351028583560776,0.006587323154922094,0.007303992082546358,0.008008631639546848
0.0020769,-0.0013282582700847821,-0.002432833903958161,-0.00016143249824290338,0.018862263929441958,0.006587704219364288,0.006894862194772955,0.0074716796046856255,0.00809422301995827
0.0025962,-0.001298467868389813,-0.002358328403547182,-5.236261107439111e-05,0.019114615493145585,0.006824658411122675,0.007203837708387331,0.0076383350051285465,0.008180034311546383
0.0031154,-0.001268725136139679,-0.0022838835946413253,5.6190982639836276e-05,0.019368355154560823,0.007061862351159636,0.007514215250896821,0.0078039298946846695,0.00826605729131312
0.0036346,-0.001239030161608655,-0.002209508702679584,0.0001642121593253809,0.01962346056071834,0.0072992871941544284,0.007825959929246774,0.007968436133487567,0.008352283731333355
0.0041538,-0.0012093829305110128,-0.0021352129324402136,0.0002716849356805097,0.01987990907522651,0.007536904066665981,0.008139036408648312,0.008131825841384806,0.008438705401963478
0.0046731,-0.0011797833247415423,-0.0020610054654480415,0.0003785934742795918,0.020137677784018024,0.007774684076684605,0.008453408919177193,0.008294071408240414,0.008525314075054977
0.0051923,-0.0011502311211575341,-0.0019868954574055937,0.00048492208912320024,0.020396743501190515,0.008012598323205755,0.0087690412625176,0.008455145504142616,0.008612101527170719
0.0057115,-0.0011207259904033255,-0.0019128920356496185,0.0005906552511317374,0.020657082774937923,0.008250617905820467,0.009085896818848983,0.00861502108950981,0.008699059542801537
0.0062308,-0.0010912674957784551,-0.0018390042966344657,0.0006957775935795238,0.020918671893569402,0.008488713934317323,0.009403938553874,0.008773671425088019,0.008786179917580789
0.00675,-0.0010618550921504474,-0.0017652413034436923,0.0008002739174663686,0.02118148689161259,0.008726857538291029,0.009723129025985643,0.008931070081833213,0.008873454461494455
0.0072692,-0.0010324881249132076,-0.0016916120833311479,0.0009041291968237202,0.021445503555998023,0.008965019876752908,0.010043430393571641,0.009087190950672064,0.00896087500208431
0.0077885,-0.0010031658289919745,-0.001618125625292701,0.0010073285839525652,0.021710697432321416,0.009203172147738824,0.010364804422454181,0.009242008252134691,0.009048433387641728
0.0083077,-0.0009738873278957493,-0.0015447908776696658,0.0011098574145902932,0.021977043831180314,0.00944128559791032,0.01068721249346298,0.009395496545853005,0.009136121490389568
0.0088269,-0.0009446516328180649,-0.0014716167457848861,0.001211701213003813,0.022244517834581687,0.009679331532144854,0.011010615610139706,0.009547630739918236,0.00922393120964965
0.0093462,-0.0009154576417869114,-0.0013986120896123445,0.0013128456970062812,0.022513094302416756,0.009917281323111142,0.011334974406571696,0.009698386100091223,0.009311854474993166
0.0098654,-0.0008863041388645686,-0.0013257857214810501,0.0014132767828949166,0.02278274787899929,0.010155106420825738,0.011660249155352985,0.009847738258859078,0.009399883249371447
0.0103846,-0.0008571897933980373,-0.0012531464038138696,0.001512980590307479,0.023053452999663604,0.010392778362186952,0.011986399775670583,0.009995663224332024,0.00948800953222444
0.0109038,-0.0008281131593206951,-0.001180702846901868,0.0016119434469950907,0.023325183897418375,0.010630268780482401,0.01231338584151404,0.010142137388974225,0.00957622536256436
0.0114231,-0.000799072674505735,-0.0011084637067146602,0.001710151893509138,0.023597914609652333,0.010867549414866446,0.012641166590006275,0.010287137538162598,0.009664522822031943
0.0119423,-0.0007700666601718886,-0.0010364375827472128,0.0018075926878000207,0.02387161898488789,0.011104592119803896,0.012969700929853632,0.010430640858567654,0.009752894037922871
0.0124615,-0.0007410933203418596,-0.0009646330159034926,0.0019042528097255238,0.0241462706895787,0.011341368874476372,0.013298947449913062,0.010572624946350521,0.00984133118618186
0.0129808,-0.000712150741353834,-0.000893058486417331,0.002000119465466596,0.02442184321494702,0.011577851792147773,0.013628864427874251,0.010713067815170266,0.00992982649436195
0.0135,-0.0006832368914263775,-0.0008217224118108373,0.00209518009184833,0.024698309883856934,0.011814013129485332,0.01395940983905441,0.010851947903995643,0.010018372244546457
0.0140192,-0.0006543496202769758,-0.0007506331448906695,0.0021894223605639605,0.024975643857719557,0.012049825295832711,0.014290541365303428,0.010989244084715338,0.010106960776231008
0.0145385,-0.0006254866587944349,-0.0006797989717824345,0.002282834182299752,0.025253818143426598,0.012285260862431533,0.014622216404016938,0.0111249356695408,0.010195584489163054
0.0150577,-0.0005966456187653212,-0.000609228110003469,0.0023754037107586675,0.025532805600308857,0.012520292571587785,0.014954392077254814,0.01125900241819577,0.010284235846136261
0.0155769,-0.00056782399265458,-0.0005389287065742157,0.0024671193465807626,0.025812578947116603,0.012754893345779398,0.01528702524096253,0.011391424544886685,0.010372907375737131
0.0160962,-0.0005390191534404308,-0.0004689088361683738,0.0025579697411582994,0.026093110769018817,0.012989036296701343,0.015620072494292791,0.011522182725048489,0.010461591675041218
0.0166154,-0.0005102283545035943,-0.0003991764993019637,0.00264794380034365,0.026374373524618553,0.01322269473424447,0.01595349018902485,0.011651258101860577,0.010550281412256323
0.0171346,-0.0004814487295708706,-0.00032973962056141433,0.0027370306880481754,0.026656339552981835,0.013455842175404324,0.016287234439078917,0.011778632292528034,0.010638969329310216
0.0176538,-0.0004526772927130585,-0.00026060604687075134,0.0028252198297303846,0.02693898108067759,0.013688452353116087,0.01662126113012305,0.011904287394323674,0.01072764824438062
0.0181731,-0.00042391093839718114,-0.0001917835457979499,0.002912500915771794,0.027222270228826388,0.013920499225011672,0.016955525929269823,0.01202820599038675,0.010816311054365509
0.0186923,-0.0003951464415929608,-0.00012327980390049832,0.002998863904739001,0.027506179020155765,0.014151956982094966,0.017289984294860117,0.012150371155274654,0.010904950737292158
0.0192115,-0.0003663804579334563,-5.5102425110199655e-05,0.003084299026530583,0.02779067938606019,0.014382800057331087,0.017624591486331196,0.012270766460264208,0.010993560354663623
0.0197308,-0.0003376095239297539,1.2741070842787156e-05,0.0031687967854075426,0.028075743173663792,0.014613003134145437,0.017959302574166117,0.01238937597839939,0.011082133053741724
0.02025,-0.00030883005723957285,8.024324996669486e-05,0.0032523479629061503,0.028361342152884095,0.014842541154828229,0.01829407244992147,0.012506184289282572,0.011170662069765682
0.0207692,-0.00028003835698962116,0.0001473967655057466,0.0033349436206321745,0.028647448023494955,0.015071389328840083,0.018628855836330317,0.012621176483606516,0.011259140728105611
0.0212885,-0.00025123060415150646,0.00021419435939870038,0.003416575102935653,0.028934032422187044,0.01529952314101427,0.018963607297477293,0.012734338167424567,0.011347562446350101
0.0218077,-0.0002224028619709812,0.00028062886369846165,0.0034972340394654865,0.02922106692962408,0.015526918359651294,0.01929828124904254,0.01284565546615686,0.01143592073632704
0.0223269,-0.00019355107645027564,0.0003466932019529081,0.003576912347603292,0.029508523077492826,0.015753551044501532,0.019632831968611243,0.012955115028330756,0.011524209206056705
0.0228462,-0.0001646710768832474,0.00041238039054708844,0.003655602234776078,0.02979637235554484,0.01597939755463183,0.019967213606045347,0.013062704029054227,0.011612421561636273
0.0233654,-0.00013575857644305552,0.00047768354000697025,0.0037332962006474605,0.030084586218627696,0.01620443455617193,0.020301380193914115,0.013168410173221557,0.011700551609054735
0.0238846,-0.00010680917282204296,0.0005425958562649231,0.0038099870391872545,0.030373136093703353,0.01642863902993675,0.020635285657980087,0.013272221698451317,0.011788593255937271
0.0244038,-7.781834892348713e-05,0.0006071106418871395,0.0038856678406194167,0.030661993386851525,0.01665198827892042,0.02096888382773702,0.013374127377757195,0.01187654051321824
0.0249231,-4.878147360484907e-05,0.0006712212972632148,0.003960331993248481,0.030951129490255882,0.01687445993565834,0.021302128446996388,0.013474116521952791,0.011964387496741958
0.0254423,-1.9693802472119346e-05,0.0007349213217581348,0.004033973185164722,0.031240515789171166,0.017096031969453366,0.021634973184519086,0.01357217898179184,0.0120521284287905
0.0259615,9.449521275171298e-06,0.0007982043148269399,0.004106585405828417,0.0315301236688693,0.01731668269346254,0.021967371644689,0.013668305149845607,0.012139757639537802
0.0264808,3.865346594873729e-05,0.0008610639770923549,0.004178162947533635,0.031819924521562674,0.017536390771640757,0.02229927737822544,0.013762485962119321,0.012227269568429391
0.027,6.792311042660468e-05,0.0009234941113856861,0.004248700406752014,0.03210988975330252,0.01775513522553779,0.022630643892931485,0.013854712899409658,0.012314658765487041
0.0275192,9.726364315896567e-05,0.0009854886237512922,0.004318192685357017,0.03239999079085019,0.017972895440945113,0.022961424664475347,0.013944977988405428,0.012401919892537739
0.0280385,0.00012668036112534837,0.0010470415244149386,0.004386634991729126,0.03269019908851885,0.018189651174389018,0.023291573147201927,0.014033273802533755,0.012489047724366473
0.0285577,0.00015617866874364727,0.0011081469287163518,0.004454022841742439,0.0329804861349829,0.018405382559466835,0.023621042784971652,0.014119593462554167,0.012576037149792562
0.0290769,0.00018576407673157427,0.0011687990580063028,0.0045203520596331015,0.033270823460052175,0.018620070113023312,0.023949787022023702,0.014203930636903178,0.012662883172669495
0.0295962,0.00021544220092110122,0.0012289922405085698,0.004585618778749991,0.03356118264140769,0.018833694741164794,0.02427775931386072,0.014286279541792011,0.01274958091280848
0.0301154,0.0002452187610264712,0.0012887209121471585,0.004649819442188048,0.033851535311295616,0.019046237745109124,0.02460491313815203,0.014366634941060118,0.012836125606826069
0.0306346,0.00027509957936636115,0.0013479796173391752,0.004712950803304618,0.03414185316317572,0.019257680826869468,0.024931202005652343,0.014444992145787186,0.012922512608916385
0.0311538,0.0003050905795407812,0.0014067630097537786,0.004775009926119166,0.034432107958320864,0.019468006094770517,0.02525657947113275,0.014521347013666393,0.013008737391548557
0.0316731,0.0003351977850632973,0.0014650658530376435,0.0048359941855967295,0.03472227153236363,0.01967719606879574,0.025580999144320826,0.014595695948141814,0.013094795546089943
0.0321923,0.0003654273179491701,0.001522883021507372,0.004895901267815464,0.03501231580178664,0.019885233685764687,0.02590441470084656,0.014668035897313024,0.013180682783355772
0.0327115,0.0003957853972600087,0.0015802095008092879,0.004954729170018696,0.03530221277035292,0.02009210230433968,0.02622677989319085,0.014738364352610226,0.013266394934085745
0.0332308,0.0004262783376055541,0.0016370403885470454,0.005012476200551952,0.03559193453547315,0.020297785709861745,0.02654804856163325,0.014806679347243399,0.013351927949348103
0.03375,0.00045691254760322407,0.0016933708948774857,0.005069140978685469,0.035881453294506614,0.020502268119015787,0.02686817464519565,0.014872979454429149,0.013437277900871555
0.0342692,0.00048769452829607133,0.0017491963430751596,0.005124722434322749,0.03617074135099301,0.020705534184325233,0.02718711219257838,0.014937263785399097,0.013522440981305428
0.0347885,0.0005186308715298319,0.0018045121700659497,0.005179219807595701,0.03645977112081238,0.020907568998476393,0.027504815373085367,0.014999531987193579,0.01360741350440831
0.0353077,0.0005497282582897596,0.0018593139269302147,0.005232632648346975,0.03674851513827047,0.021108358098472783,0.027821238487534684,0.015059784240244446,0.013692191905165423
0.0358269,0.0005809934569979645,0.0019135972793758696,0.005284960815500037,0.03703694606210674,0.02130788746961951,0.02813633597915094,0.015118021255750775,0.013776772739834861
0.0363462,0.0006124333217719834,0.0019673580081818113,0.0053362044763175884,0.03732503668142235,0.02150614354933787,0.028450062444435955,0.015174244272851219,0.013861152685922898
0.0368654,0.0006440547906453183,0.002020592009612088,0.005386364105548938,0.037612759921524956,0.02170311323081021,0.028762372644014298,0.015228455055596933,0.013945328542088352
0.0373846,0.0006758648837506758,0.002073295295801202,0.005435440484466956,0.03790008884968739,0.021898783866455405,0.029073221513450525,0.015280655889729064,0.014029297227976117
0.0379038,0.0007078707014666456,0.002125463995110933,0.005483434699795289,0.038186996680816855,0.0220931432712352,0.029382564174034963,0.015330849579264897,0.014113055783979896
0.0384231,0.0007400794225285504,0.002177094352459055,0.0055303481425265965,0.03847345678303142,0.02228617972579196,0.029690355943534943,0.015379039442896895,0.014196601370934208
0.0389423,0.0007724983021042014,0.0022281827296203203,0.005576182506632591,0.03875944268314051,0.022477881979418208,0.029996552346908446,0.015425229310208727,0.014279931269735802
0.0394615,0.0008051346698352958,0.0022787256055000755,0.0056209397876667115,0.039044928072026246,0.022668239252858404,0.030301109126977043,0.015469423517712496,0.01436304288089483
0.0399808,0.0008379959278451984,0.002328719576380875,0.005664622281260259,0.0393298868099226,0.02285724124094325,0.03060398225505494,0.015511626904711138,0.014445933724016292
0.0405,0.0008710895487138608,0.0023781613561424508,0.005707232581512839,0.03961429293158925,0.023044878115056674,0.030905127941531246,0.015551844808989983,0.014528601437212522
0.0410192,0.0009044230734206511,0.0024270477764554163,0.005748773579277969,0.03989812065137726,0.023231140525435578,0.03120450264640252,0.015590083062341447,0.014611043776447712
0.0415385,0.0009380041092558875,0.0024753757869490625,0.005789248460344706,0.04018134436818361,0.023416019603302116,0.03150206308975299,0.015626347985926856,0.014693258614815623
0.0420577,0.0009718403277018944,0.0025231424553536215,0.005828660703516165,0.04046393867029148,0.023599506962828348,0.03179776626217999,0.015660646385479378,0.014775243941751618
0.0425769,0.0010059394622844108,0.0025703449676173578,0.005867014078585771,0.04074587834009331,0.023781594702932944,0.03209156943516243,0.01569298554635207,0.014856997862180338
0.0430962,0.0010403093063951906,0.0026169806279988626,0.00590431264421216,0.041027138358693635,0.023962275408909488,0.032383430171369854,0.015723373228415143,0.014938518595600147
0.0436154,0.0010749577110866408,0.002663046859134919,0.005940560745693596,0.0413076939103888,0.02414154215388582,0.03267330633491007,0.015751817660806515,0.015019804475105612
0.0441346,0.0011098925828393381,0.002708541202084316,0.005975763012642883,0.041587520387020877,0.024319388500114066,0.03296115610151282,0.015778327536539814,0.015100853946349274
0.0446538,0.001145121881303263,0.002753461316347981,0.006009924356563843,0.041866593392203305,0.024495808500090924,0.03324693796864711,0.015802912006974038,0.015181665566443894
0.0451731,0.0011806536170135854,0.0027978049798658275,0.006043049968330551,0.04214488874541597,0.024670796697508105,0.033530610765569735,0.015825580676149177,0.01526223800280633
0.0456923,0.0012164958490818328,0.0028415700889907096,0.006075145315570644,0.042422382485967844,0.024844348128032993,0.03381213366330247,0.015846343594992086,0.015342570031944102
0.0462115,0.0012526566828632722,0.0028847546584398814,0.006106216139954154,0.04269905087682544,0.025016458319919672,0.034091466184535936,0.015865211255396975,0.015422660538185595
0.0467308,0.0012891442676013331,0.002927356821224384,0.006136268454389431,0.04297487040830566,0.025187123294450536,0.03436856821345828,0.015882194584184915,0.015502508512354756
0.04725,0.0013259667940499025,0.0029693748285567548,0.0061653085401277945,0.043249817801632014,0.025356339566208617,0.03464340000550704,0.015897304936946768,0.015582113050391025
0.0477692,0.0013631324920743285,0.0030108070497374697,0.0061933429437786534,0.043523870012353354,0.02552410414318081,0.03491592219704271,0.01591055409177395,0.015661473351915152
0.0482885,0.0014006496282319742,0.003051651972020523,0.006220378474236878,0.04379700423362434,0.025690414526692025,0.03518609581494252,0.015921954242881464,0.015740588718741528
0.0488077,0.0014385265033331636,0.0030919082004585486,0.006246422199524273,0.04406919789934703,0.025855268711170207,0.03545388228611262,0.015931517994127654,0.015819458553337593
0.0493269,0.0014767714499833654,0.0031315744577279027,0.006271481443546995,0.04434042868717275,0.02601866518374224,0.03571924344691702,0.01593925835243522,0.015898082357230944
0.0498462,0.0015153928301074628,0.003170649583934113,0.006295563782770797,0.04461067452136331,0.02618060292366064,0.035982141552521045,0.015945188721118112,0.015976459729364848
0.0503654,0.0015543990324569587,0.0032091325363981264,0.006318677042815931,0.04487991357551029,0.026341081401560877,0.036242539286147464,0.01594932289311896,0.01605459036440287
0.0508846,0.0015937984701009864,0.0032470223894237728,0.006340829294973505,0.0451481242751112,0.026500100578549023,0.03650039976824297,0.01595167504416171,0.016132474050983354
0.0514038,0.0016335995779019885,0.00328431833404688,0.006362028852645054,0.045415285300000996,0.026657660905119278,0.03675568656555294,0.015952259725824022,0.01621011066992447
0.0519231,0.0016738108099769564,0.0033210196777664525,0.006382284267707121,0.04568137558663762,0.026813763319900943,0.0370083637001021,0.015951091858533932,0.016287500192380414
0.0524423,0.0017144406371451155,0.00335712584425831,0.006401604326802558,0.0459463743302404,0.026968409248234123,0.03725839565807868,0.015948186724495262,0.016364642677949327
0.0529615,0.0017554975443629579,0.0033926363730715815,0.006419998047560327,0.046210260986780556,0.027121600600573413,0.037505747398619387,0.01594355996054607,0.016441538272733473
0.0534808,0.0017969900281475226,0.0034275509193084056,0.0064374746747455636,0.0464730152748233,0.027273339770718958,0.037750384362492076,0.015937227550954402,0.016518187207352243
0.054,0.0018389265939888265,0.003461869253287178,0.006454043676341672,0.04673461717722151,0.027423629633873993,0.03799227248067319,0.015929205820155484,0.01659458979490859
0.0545192,0.0018813157537523487,0.0034955912601896694,0.006469714739566223,0.04699504694266133,0.027572473544528048,0.03823137818281635,0.015919511425434442,0.01667074642890959
0.0550385,0.0019241660230724536,0.003528716939692315,0.006484497766822432,0.047254285087060366,0.02771987533416516,0.038467668405608384,0.01590816134955858,0.01674665758114184
0.0555577,0.0019674859187376313,0.003561246405581959,0.006498402871588054,0.04751231239481921,0.02786583930879632,0.038701110601009,0.015895172893363122,0.016822323799502437
0.0560769,0.0020112839560684184,0.0035931798853563097,0.00651144037424351,0.047769109919927506,0.028010370246315856,0.03893167274436996,0.015880563668294302,0.016897745705786088
0.0565962,0.0020555686462888547,0.003624517719809378,0.006523620797841119,0.048024658986925844,0.028153473393681468,0.03915932334242968,0.015864351588913524,0.01697292399342894
0.0571154,0.0021003484938923065,0.003655260362602142,0.00653495486381736,0.04827894119172503,0.028295154463918205,0.039384031441179024,0.015846554865366225,0.01704785942520955
0.0576346,0.002145631994002497,0.0036854083798186794,0.006545453487650114,0.04853193840228434,0.028435419632946754,0.039605766633594074,0.01582719199581894,0.017122552830907543
0.0581538,0.0021914276297305734,0.003714962449508013,0.006555127774462891,0.04878363275914999,0.02857427553623688,0.03982449906723155,0.01580628175886797,0.01719700510492036
0.0586731,0.002237743869529044,0.0037439233612118795,0.006563989014578035,0.04903400667585504,0.028711729265287082,0.04004019945168288,0.015783843205923066,0.017271217203838604
0.0591923,0.002284589164543427,0.003772292015478635,0.006572048679020971,0.04928304283918156,0.028847788363931707,0.0402528390658826,0.015759895653569327,0.017345190143980525
0.0597115,0.0023319719459624546,0.0038000694233634577,0.006579318414977552,0.04953072420928557,0.028982460824476978,0.040462389765267316,0.01573445867591066,0.017418924998886018
0.0602308,0.0023799006223676786,0.0038272567059150077,0.006585810041206581,0.04977703401968498,0.02911575508366736,0.04066882398878095,0.015707552096897903,0.017492422896770752
0.06075,0.002428383577083327,0.0038538550936486546,0.006591535543409625,0.05002195577711041,0.029247680018483983,0.040872114765722216,0.01567919598264467,0.017565685017941007
0.0612692,0.0024774291655272605,0.003879865926006415,0.006596507069560247,0.05026547326121872,0.029378244941776908,0.041072235722429906,0.015649410633733863,0.01763871259216994
0.0617885,0.0025270457125638845,0.0039052906508037044,0.006600736925194787,0.050507570524169064,0.02950745959773328,0.041269161088801576,0.015618216577517661,0.01771150689603625
0.0623077,0.0025772415098598723,0.003930130823663045,0.006604237568666882,0.050748231890061474,0.0296353341571836,0.04146286570464071,0.015585634560413737,0.0177840692502264
0.0628269,0.002628024813243574,0.003954388107434863,0.006607021606367858,0.05098744195423852,0.029761879212748577,0.041653325025827685,0.015551685540200241,0.017856401016801776
0.0633462,0.002679403840068986,0.003978064271605516,0.006609101787915235,0.05122518558245173,0.029887105773829088,0.041840515130309716,0.01551639067831211,0.017928503596432523
0.0638654,0.002731386766585161,0.004001161191692731,0.006610491001311435,0.05146144790989506,0.030011025261441938,0.04202441272390522,0.015479771332141148,0.018000378425599994
0.0643846,0.0027839817253119447,0.004023680848628596,0.006611202268074899,0.05169621434010903,0.030133649502903984,0.042204995145918515,0.01544184904734229,0.018072026973769927
0.0649038,0.0028371968024229004,0.004045625328130295,0.006611248738345659,0.05192947054375959,0.03025499072636712,0.04238224037456082,0.01540264555014841,0.018143450740538747
0.0654231,0.002891040035136287,0.0040669968200587525,0.006610643685967435,0.05216120245729634,0.03037506155520655,0.04255612703217371,0.015362182739696131,0.01821465125275536
0.0659423,0.002945519409114945,0.004087797617765379,0.006609400503548252,0.05239139628149451,0.03049387500226463,0.0427266343902511,0.015320482680364919,0.018285630061620987
0.0664615,0.003000642855875923,0.0041080301174271005,0.006607532697501516,0.052620038479885355,0.030611444463952718,0.042893742374255854,0.015277567594131803,0.018356388739769445
0.0669808,0.0030564182502106903,0.004127696817369907,0.006605053883069463,0.05284711577707947,0.030727783714213308,0.04305743156822709,0.015233459852943994,0.018426928878330542
0.0675,0.003112853407616735,0.004146800317381137,0.006601977779330837,0.053072615156986615,0.030842906898344933,0.043217683219175275,0.015188181971111622,0.018497252083979072
0.0680192,0.0031699560817413674,0.0041653433180107655,0.006598318204194633,0.053296523860936196,0.03095682852669251,0.04337447924126253,0.01514175659772282,0.01856735997597211
0.0685385,0.003227733961838491,0.004183328619861962,0.006594089069381761,0.05351882938570218,0.031069563468206135,0.043527802219767486,0.015094206509083257,0.01863725418317708
0.0690577,0.0032861946702391165,0.004200759122871172,0.006589304375396424,0.05373951948143625,0.031181126943871516,0.04367763541483503,0.015045554601182147,0.018706936341093227
0.0695769,0.003345345759836365,0.004217637825577975,0.006583978206489084,0.053958582149513316,0.031291534520015624,0.043823962765012436,0.01499582388218671,0.018776408088868966
0.0700962,0.003405194711585669,0.004233967824384959,0.006578124725612855,0.054176005640293935,0.03140080210149106,0.0439667688905737,0.014945037464966905,0.01884567106631757
0.0706154,0.00346574893202089,0.00424975231280781,0.006571758169375202,0.05439177845080822,0.03150894592474293,0.04410603909663402,0.014893218559652279,0.018914726910933714
0.0711346,0.003527015750787016,0.004264994580715837,0.006564892842986828,0.054605889322366555,0.03161598255076254,0.04424175937605677,0.014840390466222686,0.01898357725491324
0.0716538,0.0035890024181901184,0.004279698013563077,0.006557543115209572,0.05481832723810269,0.031721928857932215,0.044373916412154504,0.014786576567134667,0.019052223722178456
0.0721731,0.0036517161027651837,0.00429386609161015,0.006549723413305163,0.0550290814204551,0.03182680203476638,0.04450249758118572,0.014731800319985357,0.019120667925411124
0.0726923,0.0037151638888624377,0.004307502389136979,0.0065414482179866,0.05523814132859293,0.031930619572553956,0.0446274909546486,0.014676085250215744,0.019188911463095284
0.0732115,0.003779352774252744,0.0043206105736465,0.006532732058373914,0.0554454966557931,0.03203339925790737,0.0447488853013731,0.014619454943855118,0.019256955916571866
0.0737308,0.00384428966775263,0.004333194405059494,0.006523589506956034,0.05565113732677521,0.032135159165223394,0.0448666700894123,0.01456193304030858,0.01932480284710709
0.07425,0.003909981386869478,0.00434525773490064,0.00651403517456047,0.055855053495000945,0.032235917649061065,0.0449808354877339,0.014503543225189349,0.019392453792976584
0.0747692,0.003976434655467405,0.004356804505475932,0.006504083705332463,0.05605723553994503,0.03233569333644193,0.04509137236771254,0.014444309223197657,0.019459910266567165
0.0752885,0.004043656101454329,0.004367838749041597,0.006493749771725321,0.056257674064344544,0.03243450511907737,0.045198272304423595,0.014384254791047935,0.019527173751498237
0.0758077,0.004111652254490721,0.004378364586964648,0.006483048069503591,0.05645635989143363,0.032532372145527996,0.0453015275777389,0.014323403710445923,0.01959424569976475
0.0763269,0.004180429543720536,0.00438838622887525,0.006471993312760797,0.05665328406217059,0.03262931381329954,0.045401131173225036,0.014261779781117225,0.019661127528903713
0.0768462,0.004249994295524789,0.0043979079718110626,0.006460600228953395,0.0568484378324645,0.032725349760879666,0.045497076782844655,0.014199406813888805,0.019727820619186376
0.0773654,0.0043203527312982715,0.00440693419935375,0.00644888355395267,0.05704181267040813,0.0328204998597199,0.04558935880546095,0.014136308623824725,0.019794326310838176
0.0778846,0.0043915109652498605,0.004415469380757823,0.006436858027116227,0.05723340025352384,0.03291478420616665,0.045677972347145566,0.014072509023417399,0.01986064590128866
0.0784038,0.004463475002226871,0.004423518070071987,0.006424538386380695,0.057423192466028755,0.03300822311334513,0.045762913221289725,0.014008031815835488,0.019926780642453564
0.0789231,0.0045362507355639105,0.004431084905253126,0.006411939363377241,0.057611181396125366,0.03310083710299996,0.04584417794851843,0.013942900788229481,0.019992731738051103
0.0794423,0.004609843944956631,0.004438174607273027,0.006399075678571397,0.057797359333323,0.03319264689729564,0.04592176375640747,0.013877139705095895,0.02005850034095463
0.0799615,0.0046842602943607875,0.004444791979217927,0.006385962036428698,0.05798171876579575,0.03328367341058027,0.045995668579003106,0.013810772301700986,0.0201240875505836
0.0804808,0.004759505329916966,0.004450941905380943,0.00637261312060757,0.05816425237778192,0.0333739377411154,0.04606589105614442,0.013743822277564755,0.020189494410334793
0.081,0.0048355844779013205,0.004456629350347399,0.0063590435891808525,0.05834495304702973,0.033463461162774925,0.04613243053258829,0.013676313290005985,0.020254721905055645
0.0815192,0.004912503042702628,0.004461859358073059,0.0063452680698873375,0.058523813842293486,0.0335522651167158,0.046195287056937276,0.013608268947749037,0.020319770958561394
0.0820385,0.004990266204825963,0.004466637050955241,0.006331301155414684,0.05870082802088418,0.03364037120302296,0.04625446138037059,0.013539712804593066,0.020384642431197728
0.0825577,0.005068879018923283,0.004470967628896754,0.0063171573987150535,0.058875989026277845,0.033727801172330964,0.04630995495517825,0.013470668353144347,0.02044933711745042
0.0830769,0.005148346411851235,0.004474856368362601,0.006302851308354804,0.059049290485784715,0.033814576917424434,0.04636176993309887,0.013401159018612389,0.02051385574360347
0.0835962,0.005228673180756497,0.004478308621429306,0.006288397343899559,0.05922072620828183,0.033900720464819595,0.046409909163461424,0.013331208152670557,0.020578198965447186
0.0841154,0.005309863991189037,0.004481329814826774,0.006273809911335923,0.05939029018201146,0.033986253966328935,0.04645437619113114,0.013260839027381816,0.02064236736603747
0.0846346,0.005391923375243671,0.004483925448972544,0.00625910335853109,0.05955797657244756,0.03407119969061136,0.04649517525426,0.013190074829190193,0.02070636145350769
0.0851538,0.005474855729730369,0.004486101096998302,0.006244291970731521,0.05972377972023227,0.03415558001471039,0.04653231128184203,0.013118938652978486,0.02077018165893434
0.0856731,0.005558665314373772,0.004487862403768535,0.006229389966101884,0.05988769413918438,0.034239417415583256,0.04656578989107315,0.01304745349619271,0.020833828334257756
0.0861923,0.005643356250042418,0.004489215084891183,0.0062144114913053475,0.0600497145143815,0.034322734461624003,0.0465956173845155,0.012975642253033813,0.020897301750259074
0.0867115,0.00572893251700818,0.0044901649257201425,0.006199370617126367,0.06020983570031729,0.034405553804183725,0.04662180074706558,0.012903527708717107,0.020960602094594584
0.0872308,0.00581539795323643,0.004490717780349433,0.006184281334137026,0.06036805271913489,0.03448789816909124,0.04664434764272569,0.012831132533799937,0.021023729469888508
0.08775,0.005902756252707445,0.004490879570598873,0.006169157548407945,0.06052436075893731,0.03456979034817722,0.04666326641117836,0.012758479278578132,0.021086683891885165
0.0882692,0.005991010963769591,0.004490656284991094,0.006154013077264803,0.06067875517217494,0.03465125319080502,0.04667856606416332,0.012685590367551835,0.021149465287661342
0.0887885,0.006080165487524838,0.004490053977719737,0.006138861645091388,0.06083123147411017,0.0347323095954113,0.04669025628165685,0.01261248809396133,0.02121207349389973
0.0893077,0.0061702230762472245,0.00448907876760877,0.00612371687918012,0.06098178534135844,0.03481298250105964,0.046698347407853606,0.012539194614393503,0.02127450825522412
0.0898269,0.006261186831834892,0.004487736837062871,0.006108592305630935,0.06113041261050497,0.03489329487901027,0.046702850446950786,0.01246573194345951,0.0213367692225972
0.0903462,0.006353059704296386,0.004486034431008916,0.006093501345299361,0.0612771092767959,0.03497326972430901,0.04670377705873497,0.012392121948544233,0.021398855951781832
0.0908654,0.006445844490271869,0.004483977855828644,0.006078457309794625,0.06142187149290249,0.03505293004739819,0.046701139553972246,0.012318386344628122,0.02146076790186684
0.0913846,0.006539543831589935,0.004481573478282654,0.00606347339752864,0.061564695567756615,0.03513229886575238,0.04669495088960244,0.012244546689181983,0.021522504433858464
0.0919038,0.006634160213860694,0.004478827724425884,0.006048562689816685,0.06170557796545559,0.03521139919554123,0.046685224663738686,0.012170624377135422,0.02158406480933865
0.0924231,0.006729695965105712,0.004475747078514777,0.006033738147030631,0.06184451530423427,0.03529025404332178,0.046671975110473586,0.012096640635919633,0.021645448189191497
0.0929423,0.00682615325442542,0.004472338081906299,0.006019012604805544,0.061981504355501926,0.03536888639776205,0.04665521709449304,0.012022616520585321,0.021706653632398952
0.0934615,0.0069235340907044945,0.004468607331949021,0.006004398770300487,0.062116542042941154,0.03544731922139788,0.04663496610549871,0.01194857290899646,0.021767680094906792
0.0939808,0.007021840321355755,0.004464561480866419,0.005989909218514346,0.06224962544166649,0.035525575442424594,0.04661123825244003,0.01187453049710068,0.02182852642856178
0.0945,0.0071210736311030165,0.004460207234632579,0.005975556388657472,0.06238075177744003,0.03560367794652512,0.04658405025755632,0.01180050979427693,0.02188919138012073
0.0950192,0.007221235540803393,0.004455551351840476,0.005961352580579929,0.06250991842594178,0.03568164956873585,0.046553419450229366,0.011726531118761114,0.02194967359033197
0.0955385,0.007322327406309473,0.00445060064256303,0.005947309951257108,0.06263712291209252,0.03575951308535144,0.04651936376064775,0.011652614593150252,0.022009971593089695
0.0960577,0.0074243504173718234,0.004445361967207139,0.0059334405113334225,0.06276236290942713,0.03583729120586952,0.046481901713284056,0.011578780139985773,0.02207008381466135
0.0965769,0.007527305596582241,0.00443984223536089,0.005919756121724815,0.06288563623951697,0.03591500656497614,0.04644105242018738,0.011505047477416435,0.022130008572988316
0.0970962,0.007631193798358201,0.004434048404634179,0.005906268490280737,0.0630069408714393,0.03599268171457264,0.04639683557409404,0.011431436114941353,0.02218974407705999
0.0976154,0.007736015707968941,0.004427987479492968,0.005892989168506267,0.0631262749212924,0.036070339115844376,0.04634927144136044,0.01135796534923352,0.022249288426361324
0.0981346,0.007841771840603638,0.004421666510087435,0.005879929548344998,0.063243636651755,0.036148001131371545,0.04629838085472193,0.01128465426004428,0.022308639610393692
0.0986538,0.007948462540482194,0.004415092591074295,0.005867100859023305,0.06335902447168795,0.036225690017282236,0.046244185205882304,0.011211521706189104,0.022367795508268992
0.0991731,0.008056087980009147,0.0044082728604335885,0.005854514163956554,0.06347243693577646,0.03630342791544746,0.04618670643793875,0.01113858632161501,0.022426753888376703
0.0996923,0.008164648158971262,0.004401214498280264,0.005842180357717793,0.06358387274421054,0.03638123684571804,0.04612596703764794,0.011065866511549973,0.022485512408123624
0.1002115,0.008274142903779359,0.004393924725670857,0.0058301101630694055,0.06369333074240163,0.03645913869820308,0.0460619900275397,0.010993380448734573,0.022544068613746027
0.1007308,0.00838457186675494,0.004386410803405583,0.005818314128058203,0.06380080992073311,0.03653715522558962,0.04599479895788556,0.010921146069736157,0.02260241994019391
0.10125,0.008495934525462195,0.004378680030826143,0.005806802623174349,0.06390630941434274,0.03661530803550303,0.04592441789853016,0.010849181071345726,0.022660563711087333
0.1017692,0.008608230182085865,0.004370739744609546,0.005795585838574529,0.0640098285029354,0.03669361858290753,0.0458508714305937,0.010777502907057706,0.0227184971387447
0.1022885,0.008721457962855495,0.004362597317558205,0.00578467378136971,0.0641113666106249,0.0367721081625461,0.04577418463805382,0.0107061287836328,0.02277621732428314
0.1028077,0.008835616817516427,0.004354260157386555,0.005774076272977862,0.06421092330580312,0.03685079790141907,0.04569438309921506,0.010635075657743999,0.02283372125779115
0.1033269,0.008950705518847964,0.004345735705504425,0.005763802946541999,0.06430849830103566,0.03692970875130076,0.045611492878073735,0.010564360232705971,0.022891005818573836
0.1038462,0.00906672266222897,0.004337031435797362,0.005753863244413889,0.06440409145298254,0.037008861481293814,0.04552554051558591,0.010493998955287916,0.022948067775470888
0.1043654,0.00918366666525118,0.004328154853404099,0.005744266415703833,0.06449770276234257,0.03708827667042136,0.0454365530208456,0.010424008012610056,0.023004903787247687
0.1048846,0.009301535767380461,0.004319113493491338,0.005735021513896901,0.06458933237382011,0.037167974700258254,0.045344557862179925,0.010354403329123876,0.02306151040305954
0.1054038,0.009420328029666164,0.004309914920025968,0.005726137394536051,0.06467898057611242,0.03724797574760311,0.045249582958167715,0.010285200563676284,0.02311788406298922
0.1059231,0.00954004133449877,0.004300566724544842,0.005717622712972566,0.06476664780191584,0.0373282997771937,0.045151656668587906,0.010216415106657863,0.023174021098657918
0.1064423,0.009660673385415916,0.004291076524922209,0.005709485922184225,0.06485233462794865,0.037408966534468784,0.04505080778530314,0.010148062077235469,0.023229917733909755
0.1069615,0.009782221706956898,0.0042814519641348634,0.005701735270661659,0.06493604177498821,0.03748999553837959,0.044947065523084334,0.010080156320669453,0.023285570085570046
0.1074808,0.009904683644565633,0.0042717007090250815,0.005694378800363289,0.06501777010791995,0.03757140607425465,0.044840459510381375,0.010012712405715723,0.023340974164277425
0.108,0.010028056364542027,0.004261830449061345,0.005687424344739228,0.06509752063579546,0.03765321718672204,0.04473101978004479,0.009945744622112963,0.023396125875389934
0.1085192,0.010152336854041613,0.004251848895096916,0.005680879526824486,0.06517529451189721,0.037735447672693226,0.044618776760003365,0.009879266978155164,0.023451021019965056
0.1090385,0.010277521921123233,0.004241763778126288,0.0056747517574017884,0.06525109303380733,0.03781811607441311,0.04450376126390227,0.00981329319834966,0.023505655295813686
0.1095577,0.010403608194844547,0.004231582848039559,0.005669048233234253,0.06532491764347795,0.03790124067258101,0.04438600448170637,0.009747836721160766,0.02356002429862798
0.1100769,0.01053059212540504,0.00422131387237477,0.005663775935368143,0.06539676992730102,0.037984839479547096,0.044265537970273376,0.009682910696839167,0.023614123523183088
0.1105962,0.010658469984336148,0.004210964635068257,0.005658941627505899,0.06546665161617507,0.038068930232589,0.04414239364390153,0.009618527985337183,0.02366794836461289
0.1111154,0.010787237864738114,0.004200542935203046,0.0056545518544495734,0.06553456458556647,0.03815353038727269,0.044016603764855965,0.009554701154310069,0.02372149411975965
0.1116346,0.010916891681563175,0.004190056585755309,0.005650612940614797,0.06560051085556279,0.038238657110902005,0.043888200933878095,0.00949144247720361,0.023774755988597733
0.1121538,0.011047427171944617,0.0041795134123389106,0.005647130988615318,0.06566449259091521,0.03832432727606072,0.043757218080682295,0.009428763931428233,0.023827729075731684
0.1126731,0.011178839895571288,0.004168921251948068,0.00564411187791814,0.0657265121010673,0.03841055745425129,0.04362368845444368,0.00936667719661994,0.023880408391969046
0.1131923,0.011311125235107036,0.004158287951698155,0.005641561263569231,0.065786571840167,0.038497363909634125,0.04348764561428089,0.009305193652988236,0.023932788855968622
0.1137115,0.0114442783966546,0.004147621367564703,0.005639484574989785,0.06584467440705925,0.038584762592871316,0.04334912341973743,0.009244324379751282,0.023984865295964868
0.1142308,0.011578294410263378,0.004136929363120679,0.0056378870148429865,0.06590082254525655,0.03867276913507836,0.04320815602126512,0.009184080153658318,0.024036632451569125
0.11475,0.011713168130480489,0.004126219808272141,0.0056367735579712554,0.06595501914288453,0.03876139884188743,0.043064777850712846,0.009124471447599428,0.024088084975648395
0.1152692,0.011848894236944529,0.004115500577992439,0.005636148950403933,0.06600726723260028,0.0388506666876253,0.04291902361182395,0.009065508429302623,0.02413921743628219
0.1157885,0.011985467235021337,0.004104779551055139,0.005636017708435397,0.06605756999148035,0.038940587309609045,0.04277092827074545,0.009007200960118136,0.024190024318797784
0.1163077,0.012122881456481112,0.0040940646087659,0.005636384117773576,0.06610593074087515,0.03903117500256209,0.04262052704655219,0.008949558593889798,0.02424050002788418
0.1168269,0.01226113106021609,0.004083363633693536,0.00563725223275884,0.06615235294622619,0.03912244371315369,0.04246785540178915,0.008892590575913321,0.024290638889784725
0.1173462,0.012400210032997976,0.004072684508400518,0.005638625875653238,0.06619684021684234,0.03921440703466429,0.042312949033034716,0.008836305841981255,0.02434043515456834
0.1178654,0.012540112190274297,0.004062035114173143,0.005640508636000049,0.0662393963056308,0.03930707820177929,0.042155843861488365,0.008780713017514345,0.024389882998479002
0.1183846,0.012680831177002843,0.004051423329751589,0.005642903870053607,0.06628002510877856,0.03940047008551343,0.041996576023586064,0.00872582041677898,0.02443897652636299
0.1189038,0.012822360468523267,0.0040408570300600995,0.005645814700279339,0.06631873066537997,0.03949459518826805,0.04183518186164692,0.008671636042190378,0.024487709774173343
0.1194231,0.012964693371465056,0.004030344084937481,0.005649244014923963,0.06635551715700609,0.03958946563902293,0.041671697914554544,0.008618167583701106,0.024536076711550645
0.1199423,0.013107823024691006,0.0040198923578681715,0.005653194467655741,0.06639038890721181,0.039685093188664596,0.04150616090847644,0.00856542241827445,0.02458407124447924
0.1204615,0.013251742400275398,0.004009509704714102,0.005657668477274649,0.06642335038097655,0.0397814892054527,0.041338607747624226,0.00851340760944211,0.02463168721801786
0.1209808,0.013396444304516041,0.003999203972447606,0.005662668227492296,0.06645440618407505,0.03987866467062595,0.041169075505057384,0.008462129906945653,0.024678918419103493
0.1215,0.013541921378979357,0.003988982997885648,0.005668195666781368,0.06648356106237516,0.039976630174149104,0.04099760141353283,0.008411595746461062,0.024725758579427246
0.1220192,0.013688166101577665,0.0039788546064256315,0.005674252508294334,0.06651081990105963,0.04007539591060216,0.04082422285640238,0.008361811249405694,0.024772201378380737
0.1225385,0.01383517078767768,0.003968826610783058,0.005680840229851107,0.06653618772377015,0.04017497167521311,0.04064897735856026,0.008312782222826847,0.024818240446071598
0.1230577,0.013982927591239239,0.00395890680973129,0.005687960073995336,0.06655966969167142,0.04027536686003513,0.04047190257744257,0.008264514159371173,0.024863869366406516
0.1235769,0.014131428505983118,0.003949102986843664,0.005695613048118942,0.06658127110243425,0.04037659045026904,0.0402930362940807,0.008217012237334093,0.024909081680240093
0.1240962,0.014280665366586807,0.003939422909238165,0.0057037999246545455,0.06660099738913666,0.04047865102073141,0.04011241640421072,0.008170281320788302,0.024953870888587755
0.1246154,0.01443062984990701,0.003929874326324855,0.005712521241335368,0.06661885411908242,0.04058155673246884,0.039930080909440516,0.008124325959790474,0.024998230455900747
0.1251346,0.014581313476227643,0.003920464968556249,0.005721777301522277,0.06663484699253665,0.040685315329518384,0.03974606790847655,0.00807915039066517,0.02504215381340125
0.1256538,0.014732707610532175,0.0039112025461807915,0.0057315681745975745,0.06664898184137856,0.04078993413581413,0.03956041558841168,0.008034758536364933,0.0250856343624754
0.1261731,0.014884803463799166,0.003902094747999581,0.0057418936964251654,0.06666126462767166,0.04089542005223983,0.03937316221607573,0.0079911540069055,0.025128665478122033
0.1266923,0.015037592094320047,0.003893149240126476,0.005752753469876735,0.06667170144215213,0.041001779553827326,0.03918434612945004,0.007948340099874999,0.02517124051245482
0.1272115,0.01519106440903834,0.0038843736647516777,0.005764146865423534,0.06668029850263622,0.04110901868710049,0.03899400572914751,0.007906319801015926,0.02521335279825527
0.1277308,0.015345211164909639,0.0038757756389088908,0.005776073021793363,0.06668706215234797,0.0412171430675642,0.03880217946995909,0.007865095784878711,0.025254995652574087
0.12825,0.015500022970281857,0.003867362753246145,0.0057885308466923135,0.06669199885816897,0.041326157877337684,0.038608905852467956,0.00782467041554553,0.025296162380378146
0.1287692,0.015655490286295357,0.0038591425708003916,0.0058015190175907914,0.06669511520881152,0.041436067862931414,0.03841422341473184,0.0077850457474230765,0.025336846278240382
0.1292885,0.01581160342830252,0.0038511226257759855,0.005815035982573314,0.06669641791291703,0.041546877333166685,0.03821817072403422,0.007746223526102923,0.02537704063806982
0.1298077,0.015968352567306346,0.0038433104223271914,0.005829079961251586,0.06669591379708069,0.04165859015723712,0.03802078636870442,0.007708205189288118,0.02541673875087887
0.1303269,0.016125727731417565,0.003835713433344885,0.005843648945740317,0.06669360980380408,0.0417712097629113,0.03782210895000688,0.007670991867784651,0.025455933910584937
0.1308462,0.016283718807329678,0.0038283390992476262,0.005858740701695204,0.06668951298937623,0.04188473913487608,0.03762217707409931,0.007634584386556498,0.025494619417843378
0.1313654,0.0164423155418113,0.0038211948267772924,0.005874352769412545,0.06668363052168388,0.04199918081322027,0.03742102934405968,0.007598983265843012,0.025532788583908825
0.1318846,0.016601507543215103,0.003814287987799467,0.00589048246498986,0.0666759696779513,0.042114536892059094,0.03721870435198157,0.007564188722337515,0.02557043473452186
0.1324038,0.016761284283002695,0.00380762591810877,0.005907126881546914,0.06666653784240963,0.04223080901830022,0.03701524067113738,0.007530200670426068,0.025607551213817942
0.1329231,0.016921635097284705,0.0038012159162393094,0.005924282890506519,0.06665534250389647,0.04234799839055307,0.036810676848208906,0.007497018723485505,0.025644131388255498
0.1334423,0.01708254918837539,0.00379506524228044,0.005941947142934491,0.06664239125338585,0.04246610575818354,0.03660505139558466,0.007464642195239938,0.025680168650559866
0.1339615,0.017244015626361114,0.0037891811166979833,0.005960116070938157,0.06662769178144963,0.042585131420516655,0.03639840278372389,0.007433070101175069,0.025715656423679657
0.1344808,0.017406023350681973,0.0037835707191610905,0.005978785889122769,0.06661125187565195,0.04270507522618969,0.0361907694335873,0.007402301160009677,0.02575058816475205
0.135,0.017568561171725894,0.003778241187374896,0.005997952596105248,0.06659307941787854,0.04282593657265848,0.035982189709134985,0.007372333795223742,0.025784957369073217
0.1355192,0.01773161777243441,0.003773199615919109,0.006017611976084636,0.0665731823816036,0.0429477144058597,0.03577270190989187,0.0073431661366426615,0.025818757574070202
0.1360385,0.017895181709919286,0.003768453055092704,0.006037759600468652,0.06655156882909792,0.04307040722003222,0.0355623442635813,0.00731479602207709,0.02585198236327035
0.1365577,0.018059241417089207,0.003764008509764869,0.006058390829555737,0.06652824690858201,0.04319401305770096,0.03535115491882691,0.0072872209990179826,0.025884625370264397
0.1370769,0.018223785204285796,0.0037598729382324033,0.006079500814271975,0.06650322485132905,0.043318529509826655,0.03513917193792285,0.007260438326386574,0.025916680282659213
0.1375962,0.01838880126092829,0.003756053251083742,0.006101084497962285,0.06647651096872241,0.0434439537161251,0.03492643328967207,0.007234444976339114,0.02594814084601628
0.1381154,0.018554277657166225,0.0037525563100698034,0.006123136618235199,0.0664481136492733,0.04357028236555889,0.03471297684229252,0.0072092376361262665,0.025979000867772033
0.1386346,0.018720202345539488,0.0037493889269818535,0.00614565170886058,0.0664180413556038,0.04369751169700471,0.034498840356390385,0.007184812710007161,0.026009254221136376
0.1391538,0.01888656316264502,0.0037465578625365545,0.006168624101719538,0.06638630262140069,0.043825637500098456,0.03428406147799983,0.00716116632121812,0.026038894848965658
0.1396731,0.01905334783080948,0.0037440698252683684,0.006192047928805824,0.0663529060483458,0.04395465511626056,0.034068677731688375,0.007138294313996098,0.02606791676760659
0.1401923,0.019220543959767106,0.0037419314704294536,0.0062159171242778715,0.06631786030302757,0.04408455943990347,0.033852726513727234,0.007116192255656892,0.026096314070707463
0.1407115,0.019388139048342058,0.003740149398897161,0.006240225426560668,0.06628117411383858,0.04421534491982294,0.03363624508532604,0.007094855438728125,0.026124080932992965
0.1412308,0.01955612048613432,0.0037387301560892158,0.006264966380496568,0.06624285626786337,0.044347005560774214,0.03341927056593144,0.0070742788831370295,0.02615121161399863
0.14175,0.01972447555520839,0.003737680230886637,0.006290133339544133,0.06620291560776015,0.04447953492523423,0.033201839926589025,0.007054457338453024,0.026177700461760885
0.1422692,0.019893191431783818,0.0037370060545644135,0.006315719468024088,0.06616136102863954,0.044612926135350395,0.03298398998336795,0.007035385286185076,0.02620354191645847
0.1427885,0.020062255187926648,0.0037367139997299464,0.006341717743411416,0.06611820147494381,0.04474717187507637,0.03276575739084765,0.00701705694213383,0.026228730514000934
0.1433077,0.020231653793240795,0.003736810379269222,0.006368120958672615,0.06607344593732885,0.04488226439249486,0.032547178635666245,0.006999466258798518,0.026253260889560016
0.1438269,0.02040137411655836,0.003737301445300677,0.006394921724647101,0.0660271034495516,0.045018195502327274,0.03232829003013011,0.00698260692783863,0.0262771277810395
0.1443462,0.02057140292762786,0.003738193388136685,0.006422112472471733,0.06597918308536486,0.045154956588629586,0.03210912770588464,0.006966472382590296,0.026300326032479254
0.1448654,0.020741726898799384,0.0037394923352525675,0.006449685456047425,0.0659296939554214,0.045292538607673724,0.031889727607646266,0.0069510558006373535,0.026322850597389043
0.1453846,0.02091233260670577,0.0037412043502630067,0.006477632754546792,0.06587864520418867,0.04543093209101353,0.03167012548699609,0.006936350106437035,0.026344696542007724
0.1459038,0.021083206533938914,0.003743335431905685,0.00650594627496181,0.06582604600687507,0.04557012714873367,0.03145035689623554,0.006922347974000207,0.026365859048483306
0.1464231,0.02125433507072043,0.0037458915130319727,0.006534617754690402,0.06577190556636862,0.04571011347288012,0.031230457182304612,0.0069090418296260895,0.026386333417969615
0.1469423,0.02142570451656595,0.0037488784596044437,0.006563638764160924,0.06571623311018804,0.04585088034107024,0.031010461480762995,0.006896423854691401,0.026406115073635782
0.1474615,0.02159730108194237,0.003752302069700976,0.0065930007094935,0.06565903788744584,0.04599241662028039,0.03079040470983446,0.006884485988493799,0.02642519956358533
0.1479808,0.02176911088991735,0.00375616807252518,0.006622694835197222,0.0656003291658231,0.0461347107708086,0.03057032156451464,0.006873219931149553,0.02644358256368256
0.1485,0.021941119977800478,0.003760482127422882,0.006652712226902246,0.06554011622855446,0.0462777508504097,0.030350246510742602,0.0068626171465452955,0.02646125988028461
0.1490192,0.0221133142987752,0.003765249822904376,0.00668304381412588,0.06547840837142226,0.0464215245186001,0.030130213779636313,0.0068526688653437464,0.026478227452878235
0.1495385,0.02228567972352072,0.003770476675672163,0.006713680373071771,0.06541521489975788,0.046566019041128906,0.02991025736179256,0.006843366088043285,0.0264944813566206
0.1500577,0.022458202041822813,0.0037761681296538756,0.006744612529461374,0.06535054512544827,0.04671122129461234,0.02969041100165177,0.006834699588091251,0.026510017804783546
0.1505769,0.022630866964172353,0.003782329555040104,0.0067758307613969004,0.06528440836394564,0.04685711777132801,0.029470708191928444,0.006826659915050838,0.02652483315110093
0.1510962,0.02280366012335033,0.0037889662473268105,0.006807325402254972,0.06521681393127818,0.047003694584166374,0.029251182168107927,0.006819237397821437,0.026538923892018486
0.1516154,0.022976567075997864,0.0037960834263620416,0.006839086643610274,0.06514777114105998,0.047150937471736605,0.02903186590301,0.0068124221479122105,0.026552286668845775
0.1521346,0.023149573304169765,0.0038036862353966142,0.006871104538188518,0.06507728930149864,0.047298831803624514,0.02881279210142005,0.006806204062768693,0.02656491826980982
0.1526538,0.023322664216870296,0.0038117797401384817,0.006903369002848032,0.06500537771239913,0.047447362585800464,0.02859399319478844,0.0068005728291521544,0.026576815632009837
0.1531731,0.023495825151569862,0.0038203689278104636,0.006935869821589312,0.0649320456621626,0.04759651446617503,0.028375501335998924,0.00679551792657146,0.026587975843272584
0.1536923,0.0236690413757015,0.0038294587062110415,0.006968596648591868,0.06485730242477938,0.04774627174029979,0.02815734839420714,0.0067910286307671245,0.026598396143907823
0.1542115,0.02384229808813648,0.003839053902777922,0.00700153901127767,0.06478115725681494,0.04789661835721052,0.027939565949750274,0.006787094017247298,0.02660807392836346
0.1547308,0.02401558042063846,0.003849159263654099,0.007034686313400453,0.0647036193943883,0.0480475379254098,0.027722185289129175,0.006783702964875408,0.02661700674677986
0.15525,0.02418887343929604,0.003859779452756139,0.007068027838160104,0.06462469805014256,0.04819901371898595,0.027505237400064244,0.006780844159509256,0.026625192306442776
0.1557692,0.024362162145933976,0.0038709190508444584,0.007101552751341326,0.06454440241020733,0.04835102868386504,0.02728875296662632,0.006778506097691397,0.026632628473134343
0.1562885,0.02453543147950372,0.0038825825545953517,0.007135250104475763,0.06446274163115363,0.04850356544419238,0.027072762364443826,0.00677667709039067,0.026639313272381403
0.1568077,0.02470866631745438,0.0038947743756745615,0.007169108838026769,0.06437972483694207,0.048656606308840444,0.02685729565598734,0.006775345266794781,0.026645244890600692
0.1573269,0.024881851477085375,0.003907498839812177,0.007203117784596014,0.06429536111586517,0.048810133278039486,0.026642382585932916,0.006774498578153833,0.026650421676140557
0.1578462,0.02505497171688239,0.0039207601858786655,0.007237265672151183,0.06420965951748565,0.04896412805012818,0.026428052576605514,0.006774124801674665,0.026654842140219046
0.1583654,0.02522801173783828,0.003934562564961835,0.007271541127274059,0.06412262904957207,0.04911857202842129,0.026214334723504037,0.00677421154446581,0.026658504957758573
0.1588846,0.02540095618476047,0.00394891003944454,0.007305932678428429,0.0640342786750339,0.04927344632819171,0.026001257790909442,0.006774746247532858,0.026661408968117636
0.1594038,0.025573789647566333,0.00396380658208295,0.007340428759247307,0.06394461730885793,0.049428731783764196,0.025788850207577495,0.00677571618982397,0.026663553175720292
0.1599231,0.02574649666256798,0.003979256075085225,0.007375017711839094,0.06385365381504766,0.04958440895571802,0.025577140062517628,0.006777108492325243,0.02666493675058413
0.1604423,0.025919061713747728,0.003995262309190434,0.007409687790112452,0.06376139700356713,0.049740458138195186,0.025366155100859423,0.006778910122205593,0.02666555902874754
0.1609615,0.026091469234025583,0.004011828982747569,0.007444427163119774,0.06366785562729019,0.049896859366311025,0.02515592271980843,0.006781107897010822,0.02666541951259699
0.1614808,0.026263703606520136,0.004028959700794522,0.0074792239184192704,0.063573038378956,0.050053592423663605,0.024946469964693144,0.006783688488906414,0.02666451787109487
0.162,0.02643574916580454,0.004046657974136869,0.007514066065455816,0.06347695388813109,0.05021063684993798,0.024737823525105215,0.006786638428968646,0.02666285393990838
0.1625192,0.026607590199159533,0.004064927218426343,0.007548941538960828,0.06337961071817834,0.050367971948600945,0.02453000973113503,0.00678994411152353,0.026660427721439697
0.1630385,0.02677921094782558,0.004083770753238821,0.0075838382023715395,0.0632810173632336,0.05052557679468173,0.02432305454970469,0.0067935917985330945,0.026657239384757798
0.1635577,0.02695059560825672,0.0041031918011517135,0.007618743851270036,0.06318118224519058,0.05068343024263355,0.024116983581000343,0.0067975676240285545,0.026653289265432284
0.1640769,0.02712172833337869,0.004123193486820663,0.007653646216842486,0.06308011371069551,0.05084151093427103,0.023911822055005545,0.006801857598589822,0.026648577865269415
0.1645962,0.027292593233854037,0.004143778836055505,0.007688532969358951,0.06297782002815358,0.05099979730677835,0.023707594828137456,0.006806447613870845,0.026643105851950635
0.1651154,0.027463174379356966,0.004164950774895537,0.007723391721674224,0.06287430938474953,0.05115826760078305,0.023504326379987502,0.006811323447170224,0.026636874058573633
0.1656346,0.027633455799860717,0.004186712128684165,0.007758210032750123,0.06276958988348547,0.05131689986849109,0.023302040810168057,0.006816470766046572,0.026629883483096084
0.1661538,0.027803421486940084,0.004209065621143066,0.0077929754111996895,0.06266366954023947,0.05147567198187868,0.023100761835266905,0.006821875132978075,0.02662213528768188
0.1666731,0.02797305539509163,0.004232013873446019,0.007827675318853786,0.06255655628084895,0.05163456164093676,0.022900512785911077,0.0068275220100657875,0.02661363079794972
0.1671923,0.02814234144307402,0.004255559403292584,0.00786229717435056,0.06244825793822322,0.051793546381964234,0.02270131660394158,0.006833396763780222,0.026604371502123737
0.1677115,0.028311263515270715,0.004279704623981807,0.007896828356748316,0.062338782249489993,0.051952603585906046,0.022503195839700264,0.006839484669750892,0.026594359050085604
0.1682308,0.02847980546307705,0.004304451843486175,0.007931256209162296,0.06222813685318079,0.05211171048673194,0.02230617264943012,0.006845770917598506,0.026583595252327463
0.16875,0.02864795110631355,0.004329803263526073,0.007965568042425946,0.0621163292864606,0.05227084417985227,0.022110268792790135,0.006852240615809529,0.026572082078804873
0.1692692,0.0288156842346672,0.004355760978645033,0.007999751138777166,0.062003366982407083,0.052429981630567495,0.021915505630485686,0.00685887879665287,0.02655982165768869
0.1697885,0.0289829886091622,0.004382326975286137,0.00803379275557012,0.061889257267345135,0.052589099682547984,0.02172190412201561,0.006865670421138406,0.026546816274014694
0.1703077,0.02914984796366151,0.004409503130869934,0.008067680129013132,0.06177400735824243,0.05274817506634104,0.021529484823536827,0.006872600384017019,0.0265330683682296
0.1708269,0.02931624600640031,0.0044372912128742975,0.008101400477933252,0.061657624360171776,0.052907184407901715,0.021338267885847667,0.006879653518821796,0.026518580534631936
0.1713462,0.029482166421552332,0.004465692877916628,0.00813494100756804,0.061540115263846104,0.05306610423714387,0.021148273052490743,0.0068868146029499935,0.02650335551970616
0.1718654,0.029647592870829777,0.004494709670838855,0.00816828891338513,0.06142148694323143,0.05322491099650747,0.020959519657976284,0.006894068362785372,0.02648739622034849
0.1723846,0.029812508995117518,0.004524343023795698,0.00820143138493014,0.061301746153243,0.05338358104953814,0.02077202662612672,0.006901399478860471,0.026470705681983148
0.1729038,0.029976898416142313,0.0045545942553466496,0.00823435560970347,0.06118089952752977,0.05354209068947456,0.02058581246854318,0.0069087925910584005,0.026453287096568107
0.1734231,0.030140744738177662,0.004585464569552188,0.008267048777066521,0.06105895357635212,0.053700416147839734,0.020400895283194467,0.00691623230385369,0.026435143800489943
0.1739423,0.030304031549785004,0.00461695505507472,0.008299498082177816,0.06093591468455789,0.053858533603031805,0.02021729275312908,0.006923703191591718,0.026416279272347847
0.1744615,0.030466742425591956,0.004649066684284751,0.008331690729959491,0.060811789109661715,0.05401641918891036,0.020035022145310815,0.006931189803806213,0.02639669713062718
0.1749808,0.030628860928108067,0.004681800312372849,0.008363613939094537,0.0606865829800328,0.05417404900337379,0.019854100309578373,0.006938676670574319,0.026376401131263265
0.1755,0.030790370609578753,0.004715156676467943,0.008395254946055135,0.06056030229319605,0.054331399116923175,0.019674543677729424,0.006946148307908672,0.026355395165096357
0.1760192,0.030951255013877743,0.004749136394762567,0.008426601009162368,0.06043295291425168,0.05448844558120797,0.019496368262729425,0.006953589223185883,0.02633368325521914
0.1765385,0.03111149767843847,0.004783739965645671,0.008457639412677498,0.060304540574418065,0.05464516443754794,0.01931958965804544,0.006960983920610774,0.026311269554218822
0.1770577,0.03127108213622454,0.004818967766843646,0.008488357470924983,0.06017507086970273,0.0548015317254262,0.019144223037105047,0.006968316906715696,0.026288158341316523
0.1775769,0.03142999191773955,0.004854820054570242,0.008518742532447344,0.06004454925970634,0.054957523490947714,0.01897028315288054,0.006975572695894192,0.026264354019407635
0.1780962,0.03158821055307681,0.004891296962685989,0.008548781984191919,0.05991298106656431,0.05511311579525795,0.01879778433759838,0.006982735815968285,0.02623986111200741
0.1786154,0.031745721574009705,0.004928398501867787,0.008578463255729543,0.05978037147403058,0.05526828472291643,0.018626740502574114,0.006989790813788632,0.02621468426010673
0.1791346,0.0319025085161236,0.004966124558789264,0.008607773823505157,0.05964672552670803,0.055423006390220214,0.01845716513817275,0.006996722260866809,0.026188828218943357
0.1796538,0.03205855492099079,0.00500447489531254,0.008636701215120293,0.05951204812942967,0.05557725695347248,0.018289071313894806,0.007003514759038949,0.0261622978546942
0.1801731,0.032213844338389946,0.005043449147692095,0.008665233013647388,0.059376344046794476,0.0557310126171916,0.0181224716785881,0.007010152946159944,0.02613509814109421
0.1806923,0.032368360328571794,0.0050830468257914265,0.008693356861975846,0.05923961790286142,0.05588424964225627,0.017957378460785257,0.007016621501827408,0.026107234155987518
0.1812115,0.03252208646457273,0.005123267312313281,0.00872106046718975,0.05910187418100488,0.05603694435398282,0.017793803469166963,0.007022905153134486,0.02607871107781613
0.1817308,0.03267500633457833,0.005164109862044255,0.008748331604977115,0.058963117223934304,0.05618907315013097,0.017631758093150884,0.00702898868045065,0.02604953418205153
0.18225,0.03282710354433853,0.005205573601114618,0.008775158124070552,0.0588233512338806,0.056340612508834674,0.017471253303606146,0.0070348569232295275,0.026019708837574186
0.1827692,0.03297836171963636,0.0052476575262742405,0.008801527950719189,0.058682580272951694,0.05649153899645436,0.017312299653693155,0.007040494785842803,0.025989240503005957
0.1832885,0.033128764508811866,0.005290360504185548,0.008827429093191678,0.05854080826365909,0.0566418292753472,0.017154907279828494,0.007045887243439179,0.02595813472300005
0.1838077,0.03327829558534281,0.005333681270734494,0.008852849646310088,0.05839803898961685,0.05679146011155184,0.016999085902774557,0.00705101934782736,0.02592639712449309
0.1843269,0.033426938650483656,0.005377618430360579,0.008877777796014459,0.05825427609641438,0.05694040838238452,0.016844844828853463,0.007055876233381946,0.02589403341292371
0.1848462,0.0335746774359644,0.005422170455407033,0.008902201823957722,0.05810952309266358,0.057088651083944064,0.01669219295128466,0.007060443122971114,0.02586104936842173
0.1853654,0.03372149570675068,0.005467335685492294,0.008926110112130656,0.057963783351220904,0.057236165338523506,0.016541138751645645,0.0070647053339049,0.025827450841972084
0.1858846,0.033867377263866516,0.0055131123269039715,0.008949491147516515,0.057817060110584254,0.057382928401926735,0.01639169030145506,0.007068648283902849,0.0257932437515572
0.1864038,0.03401230594728091,0.0055594984520164975,0.008972333526774859,0.057669356476464845,0.05752891767068898,0.01624385526387737,0.007072257497079756,0.02575843407828139
0.1869231,0.03415626563885937,0.005606491998733664,0.0089946259609541,0.05752067542353361,0.05767411068920013,0.016097640895548264,0.00707551860994819,0.025723027862480763
0.1874423,0.034299240265381045,0.005654090769957175,0.009016357280232187,0.05737101979734196,0.057818485156729944,0.01595305404851977,0.007078417377436406,0.025687031199821887
0.1879615,0.034441213801622,0.005702292433082342,0.009037516438684784,0.05722039231641619,0.057962018934354834,0.015810101172324058,0.00708093967892024,0.025650450237392246
0.1884808,0.034582170273504916,0.0057510945195220105,0.009058092519080251,0.05706879557452438,0.05810469005178601,0.015668788316154814,0.007083071524267522,0.025613291169785515
0.189,0.034722093761315145,0.005800494424259714,0.009078074737700687,0.056916232043114634,0.0582464767140993,0.015529121131165021,0.0070847990598934645,0.025575560235184536
0.1895192,0.03486096840298329,0.005850489405433066,0.009097452449188236,0.05676270407392281,0.0583873573083668,0.01539110487287999,0.007086108574825502,0.02553726371144474
0.1900385,0.03499877839743399,0.005901076583948319,0.009116215151415825,0.05660821390174769,0.058527310410190374,0.01525474440372426,0.007086986506775928,0.025498407912180786
0.1905577,0.03513550800800086,0.005952252943127027,0.009134352490381496,0.05645276364739131,0.05866631479013706,0.01512004419566104,0.007087419448220719,0.025458999182858953
0.1910769,0.03527114156590746,0.006004015328385709,0.009151854265125454,0.056296355320762194,0.05880434942007576,0.014987008332942621,0.007087394152482864,0.025419043896897697
0.1915962,0.03540566347381384,0.006056360446949378,0.009168710432668956,0.05613899082413892,0.05894139347941465,0.014855640514970129,0.007086897539818496,0.025378548451778702
0.1921154,0.03553905820942841,0.006109284867599767,0.00918491111297412,0.05598067195559167,0.05907742636123836,0.014725944059260863,0.007085916703504189,0.025337519265170604
0.1926346,0.0356713103291845,0.006162785020459047,0.009200446593923748,0.055821400412559286,0.05921242767834385,0.014597921904521364,0.007084438915923766,0.025295962771067455
0.1931538,0.035802404471981075,0.006216857196809801,0.009215307336320224,0.05566117779557936,0.05934637726917424,0.014471576613824274,0.007082451634653008,0.025253885415943908
0.1936731,0.03593232536298702,0.00627149754895194,0.009229483978902529,0.05550000561216898,0.05947925520364989,0.014346910377886936,0.0070799425085406745,0.025211293654929096
0.1941923,0.03606105781750793,0.006326702090097241,0.00924296734338039,0.055337885280853184,0.05961104178889628,0.01422392501844956,0.0070768993837842485,0.025168193948001332
0.1947115,0.03618858674491446,0.006382466694302109,0.009255748439484571,0.05517481813533813,0.05974171757486811,0.014102621991750752,0.007073310309998855,0.025124592756205686
0.1952308,0.03631489715263095,0.0064387870964391315,0.009267818470032283,0.0550108054288256,0.059871263359869295,0.01398300239209803,0.007069163546277715,0.025080496537896957
0.19575,0.0364399741501827,0.006495658892207956,0.009279168836006655,0.0548458483384652,0.059999660195968106,0.013865066955530995,0.00706444756724253,0.025035911745010634
0.1962692,0.03656380295330039,0.006553077538185931,0.00928979114164922,0.05467994796994026,0.060126889394307284,0.013748816063574693,0.007059151069082132,0.024990844819364897
0.1967885,0.03668636888807979,0.006611038351918959,0.009299677199564295,0.05451310536218373,0.0602529325303088,0.013634249747080652,0.007053262975577701,0.02494530218899675
0.1973077,0.03680765739519484,0.006669536512052905,0.00930881903583415,0.05434532149222017,0.06037777144877364,0.013521367690153044,0.007046772444112871,0.024899290264535575
0.1978269,0.0369276540341623,0.006728567058505879,0.009317208895143769,0.054176597280130315,0.06050138826887693,0.013410169234157322,0.007039668871666997,0.024852815435617258
0.1983462,0.03704634448765581,0.00678812489268169,0.009324839245913968,0.05400693359413495,0.06062376538905861,0.013300653381808669,0.007031941900789849,0.024805884067342042
0.1988654,0.037163714565867596,0.0068482047777247,0.009331702785441588,0.05383633125579496,0.06074488549180975,0.013192818801337443,0.0070235814255559595,0.024758502496778946
0.1993846,0.03727975021091582,0.006908801338816333,0.009337792445045432,0.0536647910453246,0.06086473154835459,0.01308666383072881,0.0070145775974968195,0.0247106770295196
0.1999038,0.037394437501295855,0.0069699090635134235,0.009343101395216519,0.05349231370701482,0.06098328682322747,0.012982186482033779,0.007004920831509051,0.024662413936284072
0.2004231,0.03750776265637338,0.007031522302128638,0.009347623050771163,0.05331889995476353,0.06110053487874392,0.012879384445748751,0.00699460181173664,0.02461371944958107
0.2009423,0.03761971204091738,0.007093635268153143,0.009351351076005349,0.05314455047770937,0.061216459579364474,0.012778255095260769,0.006983611497425262,0.024564599760424764
0.2014615,0.037730272169670925,0.007156242038721686,0.009354279389848761,0.05296926594596555,0.06133104509594943,0.012678795491355489,0.006971941128746699,0.024515061015110307
0.2019808,0.037839429711957646,0.007219336555120245,0.009356402171016744,0.052793047016450045,0.061444275909902334,0.012581002386784935,0.00695958223259131,0.02446510931204994
0.2025,0.03794717149632174,0.0072829126233363226,0.009357713863158453,0.05261589433880862,0.061556136817199555,0.012484872230891989,0.006946526628326512,0.02441475069867158
0.2030192,0.0380534845151996,0.007346963914651961,0.009358209179999334,0.05243780856142726,0.061666612932303126,0.012390401174288529,0.006932766433519187,0.024363991168381553
0.2035385,0.03815835592962076,0.007411483966279479,0.009357883110476027,0.052258790337530545,0.061775689691953746,0.01229758507358408,0.0069182940696199185,0.024312836657593175
0.2040577,0.03826177307393607,0.0074764661820399085,0.009356730923861759,0.052078840331362494,0.06188335285884099,0.012206419496161839,0.006903102267606921,0.02426129304282283
0.2045769,0.03836372346057057,0.0075419038330840115,0.009354748174880223,0.051897959224446316,0.06198958852514743,0.012116899724998914,0.006887184073587487,0.0242093661378551
0.2050962,0.038464194784798546,0.007607790058655739,0.00935193070880594,0.05171614772191928,0.062094383115963166,0.012029020763527585,0.006870532854354759,0.024157061690978497
0.2056154,0.038563174929538056,0.0076741178668979695,0.00934827466654912,0.051533406558939,0.062197723392567385,0.011942777340534455,0.006853142302897563,0.024104385382293272
0.2061346,0.03866065197016198,0.007740880135700314,0.00934377648972298,0.05134973650715701,0.06229959645557378,0.011858163915094424,0.006835006443861026,0.0240513428210926
0.2066538,0.038756614179322614,0.00780806961358878,0.009338432925691522,0.051165138381255644,0.06239998974793651,0.011775174681536429,0.006816119638955735,0.023997939543318574
0.2071731,0.03885105003178658,0.007875678920657096,0.009332241032595709,0.05097961304554422,0.06249889105781418,0.011693803574437988,0.006796476592313174,0.023944181009094213
0.2076923,0.038943948209276914,0.00794370054953952,0.009325198184355957,0.050793161420610015,0.06259628852128934,0.011614044273645666,0.006776072355785224,0.023890072600332823
0.2082115,0.03903529760531917,0.008012126866424997,0.009317302075648836,0.05060578449001947,0.06269217062494128,0.011535890209318651,0.006754902334185535,0.023835619618426004
0.2087308,0.03912508733008834,0.008080950112112573,0.009308550726855791,0.050417483307064505,0.06278652620827026,0.011459334566992666,0.006732962290470588,0.023780827282011606
0.20925,0.039213306715253526,0.008150162403108,0.009298942488981709,0.050228259001548405,0.06287934446597188,0.011384370292661535,0.006710248350858253,0.02372570072482299
0.2097692,0.039299945318817364,0.008219755732761602,0.009288476048540993,0.050038112786605596,0.06297061495006101,0.01131099009787381,0.006686757009881648,0.023670244993620942
0.2102885,0.03938499292994714,0.008289721972447378,0.00927715043240885,0.04984704596554929,0.06306032757184475,0.011239186464841849,0.006662485135376075,0.023614465046209746
0.2108077,0.03946843957379449,0.008360052872783448,0.009264965012635327,0.04965505993874066,0.06314847260374454,0.011168951651560781,0.006637429973396775,0.023558365749538963
0.2113269,0.03955027551630049,0.00843074006489387,0.009251919511219632,0.049462156210473056,0.06323504068096723,0.011100277696934766,0.006611589153065191,0.023501951877892724
0.2118462,0.039630491268982854,0.008501775061711844,0.009238014004842149,0.04926833639586459,0.06332002280302533,0.011033156425907924,0.006584960691341391,0.023445228111168313
0.2123654,0.03970907759370204,0.008573149259324252,0.009223248929551535,0.04907360222775224,0.06340341033510645,0.010967579454597325,0.006557542997720281,0.02338819903324583
0.2128846,0.03978602550740301,0.008644853938357459,0.009207625085404193,0.04887795556358024,0.06348519500929269,0.010903538195425479,0.006529334878849231,0.023330869130450703
0.2134038,0.03986132628682965,0.008716880265404224,0.009191143641053345,0.0486813983922755,0.06356536892563042,0.010841023862249879,0.00650033554306471,0.023273242790110817
0.2139231,0.039934971473209055,0.00878921929449158,0.009173806138284847,0.0484839328411027,0.06364392455305122,0.010780027475487373,0.006470544604845516,0.02321532429921004
0.2144423,0.040006952876903035,0.00886186196858955,0.009155614496496893,0.048285561182491527,0.06372085473014431,0.010720539867231278,0.006439962089180155,0.023157117843139834
0.2149615,0.04007726258202451,0.008934799121160544,0.009136571017120669,0.04808628584082853,0.06379615266578118,0.010662551686359416,0.006408588435845899,0.02309862750455063
0.2154808,0.04014589295101659,0.009008021477749373,0.009116678387979022,0.04788610939920593,0.0638698119395925,0.010606053403631278,0.006376424503597032,0.023039857262304498
0.216,0.040212836629192575,0.009081519657613776,0.009095939687580143,0.04768503460611924,0.06394182650229784,0.010551035316772582,0.0063434715742597455,0.022980810990530485
0.2165192,0.04027808654923494,0.00915528417539542,0.009074358389343257,0.04748306438210561,0.06401219067588833,0.010497487555545455,0.006309731356731182,0.022921492457783944
0.2170385,0.040341635935651904,0.009229305442831267,0.009051938365753229,0.04728020182631463,0.064080899153663,0.010445400086802406,0.00627520599088007,0.022861905326310973
0.2175577,0.040403478309190125,0.009303573770505155,0.009028683892440941,0.047076450223003004,0.06414794700011925,0.010394762719522235,0.006239898051346504,0.022802053151418894
0.2180769,0.040463607491202064,0.009378079369639419,0.009004599652186232,0.04687181304794484,0.06421332965069765,0.010345565109825986,0.0062038105512384,0.02274193938095361
0.2185962,0.04052201760796669,0.009452812353926247,0.008979690738840094,0.046666293974749154,0.06427704291138076,0.010297796765971071,0.0061669469457221885,0.022681567354884555
0.2191154,0.04057870309496195,0.009527762741398505,0.008953962661162796,0.04645989688107664,0.06433908295814583,0.010251447053321715,0.006129311135505328,0.022620940304997627
0.2196346,0.040633658701087316,0.009602920456339602,0.00892742134657453,0.04625262585474798,0.06439944633627014,0.010206505199293938,0.006090907470208219,0.022560061354696424
0.2201538,0.04068687949283449,0.009678275331231981,0.008900073144815118,0.04604448519973565,0.06445812995948756,0.010162960298273386,0.006051740751623116,0.022498933518911888
0.2206731,0.040738360858404044,0.009753817108743689,0.008871924831509287,0.04583547944203129,0.06451513110899466,0.010120801316504457,0.00601181623685771,0.022437559704120206
0.2211923,0.040788098511765646,0.00982953544375249,0.008842983611633961,0.04562561333538025,0.06457044743230365,0.010080017096949254,0.005971139641361143,0.022375942708468814
0.2217115,0.04083608849665934,0.009905419905406884,0.008813257122883989,0.04541489186687478,0.06462407694193964,0.01004059636411492,0.005929717141830276,0.022314085222010012
0.2222308,0.040882327190535125,0.009981459979223416,0.008782753438932702,0.045203320262397303,0.06467601801397899,0.010002527728847958,0.0058875553789941625,0.02225198982704177
0.22275,0.040926811308428346,0.010057645069219596,0.008751481072583679,0.04499090399190491,0.0647262693864256,0.009965799693094256,0.005844661460274812,0.02218965899855521
0.2232692,0.040969537906768196,0.010133964500081725,0.008719448978810098,0.04477764877454703,0.06477483015742179,0.009930400654623596,0.005801042962322419,0.02212709510478819
0.2237885,0.041010504387116925,0.010210407519366863,0.008686666557678089,0.04456356058360875,0.06482169978329104,0.009896318911717609,0.0057567079334234685,0.022064300407884378
0.2243077,0.04104970849983734,0.01028696329973817,0.00865314365715049,0.044348645651272965,0.06486687807641091,0.00986354266782027,0.005711664895780261,0.022001277064657203
0.2248269,0.04108714834768621,0.010363620941232794,0.008618890575767514,0.04413291047319512,0.06491036520291472,0.009832060036150067,0.00566592284766055,0.02193802712745784
0.2253462,0.04112282238933133,0.010440369473561532,0.008583918065200775,0.04391636181288499,0.06495216168022185,0.00980185904427305,0.005619491265416142,0.021874552545146544
0.2258654,0.04115672944279017,0.010517197858439567,0.008548237332677311,0.04369900670589005,0.06499226837439691,0.009772927638635917,0.005572380105369366,0.021810855164166483
0.2263846,0.041188868688788204,0.010594094991947668,0.008511860043270206,0.0434808524637748,0.06503068649733923,0.009745253689058368,0.0055245998055663305,0.021746936729719255
0.2269038,0.04121923967403535,0.010671049706923397,0.008474798322052566,0.04326190667788998,0.0650674176038048,0.009718824993183973,0.005476161287395926,0.021682798887041166
0.2274231,0.04124784231441911,0.010748050775381934,0.008437064756111636,0.04304217722292594,0.06510246358826428,0.009693629280888974,0.005427075957073533,0.02161844318277941
0.2279423,0.041274676898113156,0.010825086910966307,0.008398672396419955,0.04282167226024327,0.06513582668160188,0.009669654218648542,0.00537735570698845,0.021553871066467025
0.2284615,0.041299744088600224,0.010902146771426837,0.008359634759560475,0.04260040024097428,0.06516750944766,0.009646887413860147,0.005327012916914106,0.021489083892095445
0.2289808,0.04132304492760784,0.010979218961129654,0.00831996582930268,0.04237836990888843,0.06519751477963487,0.009625316419123729,0.005276060455080155,0.021424082919783365
0.2295,0.04134458083795565,0.01105629203359413,0.008279680058026737,0.042155590303014835,0.0652258458963282,0.00960492873647836,0.005224511679105607,0.02135886931754051
0.2300192,0.041364353626312494,0.011133354494058965,0.008238792367992721,0.041932070760015074,0.06525250633825987,0.009585711821595162,0.005172380436792142,0.021293444163124817
0.2305385,0.04138236548586148,0.011210394802076654,0.00819731815245203,0.04170782091629987,0.06527749996364637,0.009567653087926186,0.0051196810667767535,0.021227808445991456
0.2310577,0.04139861899887072,0.011287401374135904,0.008155273276598006,0.041482850709883716,0.06530083094424977,0.009550739910809054,0.005066428399042886,0.021161963069331997
0.2315769,0.04141311713916739,0.011364362586311658,0.008112674078352877,0.04125717038197214,0.0653225037611016,0.009534959631527208,0.005012637755289237,0.021095908852201903
0.2320962,0.041425863274512274,0.011441266776942181,0.00806953736898816,0.04103079047827706,0.06534252320010629,0.00952029956132557,0.004958324949155408,0.021029646531734402
0.2326154,0.04143686116887161,0.01151810224933268,0.008025880433575754,0.04080372185005657,0.06536089434752859,0.009506746985381415,0.004903506286303625,0.02096317676543872
0.2331346,0.04144611498458298,0.011594857274484947,0.007981721031267054,0.04057597565487629,0.06537762258536979,0.009494289166730192,0.004848198564355787,0.020896500133580367
0.2336538,0.04145362928441151,0.011671520093852437,0.007937077395397488,0.04034756335709035,0.06539271358663738,0.009482913350146005,0.004792419072685135,0.020829617141641204
0.2341731,0.04145940903349268,0.011748078922120247,0.007891968233414025,0.040118496728040846,0.06540617331051295,0.009472606765976372,0.0047361855920618826,0.02076252822285675
0.2346923,0.041463459601157715,0.011824521950009392,0.007846412726623304,0.03988878784597584,0.0654180079974229,0.009463356633930805,0.004679516394152175,0.020695233740828167
0.2352115,0.04146578676263731,0.011900837347104887,0.0078004305297581485,0.0396584490956868,0.06542822416401663,0.009455150166822777,0.004622430240869796,0.02062773399220612
0.2357308,0.04146639670063934,0.01197701326470704,0.007754041770360334,0.03942749316786733,0.06543682859805686,0.009447974574264639,0.004564946383580063,0.020560029209443737
0.23625,0.04146529600679617,0.01205303783870533,0.007707267047977602,0.03919593305819589,0.06544382835322705,0.009441817066315033,0.004507084562155403,0.02049211956361578
0.2367692,0.041462491682977096,0.012128899192474292,0.007660127433173032,0.038963782066145515,0.06544923074386104,0.009436664857078477,0.004448865003882086,0.0204240051673011
0.2372885,0.041457991142461535,0.01220458543979059,0.007612644466344986,0.038731053793524095,0.06545304333959999,0.009432505168256698,0.004390308422217682,0.020355686077525217
0.2378077,0.04145180221096918,0.012280084687770566,0.007564840156355958,0.03849776214274832,0.06545527395998177,0.00942932523265137,0.004331436015398769,0.02028716229875992
0.2383269,0.041443933127543194,0.01235538503982732,0.0075167369789687875,0.038263921314854565,0.0654559306689676,0.009427112297617857,0.004272269464898489,0.020218433785976493
0.2388462,0.041434392545283645,0.01243047459864637,0.0074683578750887785,0.03802954580724974,0.06545502176941013,0.009425853628469571,0.004212830933733497,0.020149500447749148
0.2393654,0.04142318953192852,0.012505341469178945,0.007419726248810426,0.03779465041120496,0.06545255579746746,0.0094255365118325,0.004153143064619915,0.020080362149405062
0.2398846,0.041410333570280004,0.012579973761651791,0.007370865965267499,0.03755925020909497,0.0654485415169666,0.009426148258949505,0.004093228977977857,0.02001101871621735
0.2404038,0.04139583455847403,0.012654359594592431,0.007321801348285334,0.037323360571386056,0.06544298791372051,0.009427676208933894,0.004033112269784074,0.019941469936637216
0.2409231,0.04137970281009112,0.012728487097868744,0.007272557177834281,0.037086997153375593,0.06543590418980225,0.009430107731971815,0.003972817009272288,0.01987171556556149
0.2414423,0.04136194905410636,0.012802344415741719,0.0072231586872832845,0.03685017589168649,0.06542729975777986,0.009433430232472954,0.0039123677364807105,0.01980175532763193
0.2419615,0.04134258443467636,0.012875919709930121,0.007173631560452658,0.03661291300052007,0.06541718423491619,0.009437631152168991,0.0038517894596462646,0.019731588920562572
0.2424808,0.04132162051076061,0.012949201162685829,0.007124001928465161,0.03637522496767165,0.06540556743733736,0.009442697973159265,0.0037911076524449598,0.019661216018491773
0.243,0.04129906925557483,0.01302217697987854,0.007074296366394496,0.03613712855031333,0.065392459374175,0.009448618220903005,0.0037303482510778786,0.019590636275355396
0.2435192,0.04127494305587362,0.013094835394088514,0.00702454188971037,0.035898640770549335,0.06537787024168636,0.009455379467157495,0.0036695376512021695,0.01951984932827786
0.2440385,0.041249254711060133,0.013167164667706078,0.006974765950519308,0.03565977891074999,0.06536181041735743,0.009462969332861414,0.0036087027047064808,0.019448854800977633
0.2445577,0.041222017432120506,0.013239153096036743,0.006924996433600396,0.035420560508670616,0.06534429045399298,0.00947137549096261,0.003547870716330257,0.019377652307183812
0.2450769,0.04119324484038115,0.013310789010410957,0.006875261652235185,0.03518100335236245,0.06532532107379757,0.009480585669189509,0.00348706944012639,0.01930624145406041
0.2455962,0.041162950966087616,0.01338206078129763,0.006825590343831119,0.034941125474882866,0.06530491316245103,0.009490587652765337,0.0034263270757667933,0.019234621845635187
0.2461154,0.04113115024680416,0.013452956821420815,0.006776011665337943,0.03470094514881238,0.06528307776318129,0.009501369287064364,0.0033656722646905122,0.019162793086229833
0.2466346,0.04109785752563399,0.013523465588878984,0.006726555188456732,0.03446048088058595,0.0652598260708373,0.009512918480209376,0.0033051340860940264,0.019090754783888494
0.2471538,0.04106308804926078,0.01359357559026635,0.006677250894641335,0.03421975140464607,0.06523516942596469,0.009525223205609596,0.0032447420527634305,0.019018506553801707
0.2476731,0.04102685746581241,0.013663275383795675,0.006628129169892178,0.03397877567742518,0.06520911930888691,0.00953827150443829,0.0031845261067481824,0.018946048021722648
0.2481923,0.040989181822548376,0.013732553582421987,0.006579220799342569,0.03373757287116491,0.06518168733379463,0.009552051488049336,0.0031245166148761265,0.018873378827372635
0.2487115,0.04095007756337218,0.013801398856966548,0.006530556961637805,0.03349616236757948,0.06515288524284658,0.00956655134033202,0.0030647443641095046,0.018800498627832642
0.2492308,0.040909561526169785,0.013869799939240412,0.0064821692231075674,0.03325456375137054,0.06512272490028488,0.009581759320003401,0.0030052405567416564,0.018727407100917526
0.24975,0.04086765093997543,0.013937745625166935,0.00643408953173225,0.03301279680360093,0.0650912182865682,0.00959766376283758,0.0029460368054341243,0.018654103948529552
0.2502692,0.04082436342196575,0.014005224777902605,0.006386350210904042,0.03277088149493417,0.06505837749252585,0.009614253083831405,0.0028871651280938312,0.018580588899987732
0.2507885,0.04077971697428384,0.014072226330955574,0.006338983952983717,0.03252883797874707,0.065024214713536,0.009631515779306151,0.002828657942590015,0.018506861715329406
0.2513077,0.04073372998069488,0.014138739291301302,0.006292023812654228,0.032286686584122495,0.06498874224373193,0.00964944042894497,0.0027705480613106005,0.018432922188580603
0.2518269,0.04068642120307591,0.014204752742494692,0.0062455032000723375,0.03204444780872961,0.06495197247023989,0.00966801569776592,0.00271286868555769,0.018358770150991754
0.2523462,0.040637809777742735,0.014270255847778086,0.00619945587381961,0.03180214231159888,0.06491391786745294,0.009687230338030529,0.0026556533997818986,0.018284405474235457
0.2528654,0.04058791521161749,0.014335237853184468,0.0061539159336541395,0.03155979090579921,0.06487459099134499,0.009707073191087873,0.0025989361656552877,0.018209828073563132
0.2533846,0.04053675737824056,0.014399688090635127,0.0061089178130645,0.03131741455102428,0.06483400447382918,0.00972753318915411,0.0025427513159826803,0.01813503791091744
0.2539038,0.040484356513630505,0.014463595981031014,0.006064496271627374,0.031075034346095213,0.06479217101716538,0.00974859935702741,0.002487133548451181,0.018060034997997545
0.2544231,0.0404307332119958,0.014526951037336948,0.006020686387170391,0.03083267152138658,0.06474910338842081,0.009770260813738153,0.002432117919217722,0.017984819399274363
0.2549423,0.04037590842130153,0.014589742867657806,0.005977523547741662,0.03059034743118215,0.06470481441398877,0.009792506774134261,0.002377739836334462,0.017909391234952787
0.2554615,0.040319903438694356,0.014651961178305759,0.005935043443387587,0.030348083545967016,0.06465931697416993,0.009815326550401456,0.002324035053011873,0.01783375068387806
0.2559808,0.04026273990578863,0.0147135957768575,0.0058932820577404545,0.030105901444662155,0.06461262399782092,0.009838709553518236,0.0022710396607193584,0.017757897986383303
0.2565,0.04020443980381665,0.014774636575200357,0.005852275659417398,0.02986382280680758,0.06456474845707504,0.009862645294645407,0.002218790082123302,0.0176818334470752
0.2570192,0.040145025448645705,0.014835073592566065,0.005812060793232298,0.029621869404699935,0.06451570336213927,0.009887123386450054,0.0021673230638625065,0.01760555743755496
0.2575385,0.04008451948566439,0.014894896958550848,0.0057726742712222575,0.029380063095490495,0.06446550175617143,0.009912133544363865,0.002116675669161073,0.0175290703990717
0.2580577,0.0400229448845404,0.014954096916120376,0.005734153163490292,0.029138425813249273,0.06441415671024112,0.009937665587775821,0.00206688527027886,0.017452372845105722
0.2585769,0.03996032493385189,0.015012663824598068,0.0056965347888659566,0.028896979561000978,0.0643616813183776,0.009963709441159221,0.002017989540799732,0.01737546536387921
0.2590962,0.03989668323559441,0.01507058816263519,0.005659856705385719,0.028655746402738422,0.06430808869270685,0.00999025513513299,0.0019700264477578873,0.0172983486207922
0.2596154,0.03983204369956515,0.015127860531161134,0.00562415670059503,0.028414748455418734,0.06425339195868009,0.010017292807457239,0.0019230342436026204,0.01722102336078174
0.2601346,0.03976643053762687,0.015184471656312265,0.0055894727816741645,0.02817400788094762,0.06419760425039543,0.010044812703963018,0.001877051458001902,0.01714349041060227
0.2606538,0.039699868257853564,0.015240412392337655,0.005555843165390054,0.027933546878156593,0.06414073870601376,0.010072805179416304,0.0018321168894852048,0.01706575068102522
0.2611731,0.03963238165856066,0.015295673724479989,0.005523306267876448,0.027693387674777987,0.06408280846326997,0.010101260698316359,0.001788269596926011,0.016987805168955997
0.2616923,0.03956399582222243,0.015350246771829883,0.00549190069424492,0.027453552519422462,0.06402382665507989,0.010130169835628896,0.0017455488908644785,0.016909654959466287
0.2622115,0.03949473610927979,0.015404122790151851,0.005461665228029288,0.02721406367356363,0.06396380640524296,0.010159523277454674,0.0017039943246707806,0.016831301227739875
0.2627308,0.03942462815184189,0.015457293174680128,0.005432638820466197,0.026974943403534127,0.06390276082424041,0.010189311821634482,0.0016636456855497028,0.016752745240930268
0.26325,0.039353697847285,0.015509749462882675,0.005404860579614714,0.02673621397253753,0.06384070300512862,0.01021952637829165,0.001624542985387149,0.016673988359928747
0.2637692,0.03928197135175244,0.015561483337191753,0.005378369759317889,0.026497897632680276,0.06377764601952682,0.010250157970313423,0.00158672645143931,0.01659503204104177
0.2642885,0.03920947507355887,0.01561248662769964,0.005353205748009319,0.02626001661702781,0.06371360291369814,0.010281197733772646,0.0015502365168653296,0.016515877837577103
0.2648077,0.03913623566650227,0.0156627513148181,0.005329408057367851,0.026022593131689264,0.06364858670472254,0.010312636918291141,0.0015151138111044013,0.016436527401338122
0.2653269,0.03906228002308653,0.015712269531900348,0.005307016310823642,0.02578564934793468,0.06358261037675983,0.01034446688734622,0.0014813991500983227,0.01635698248402601
0.2658462,0.03898763526765747,0.01576103356782427,0.0052860702319188655,0.02554920739434916,0.06351568687740064,0.01037667911852168,0.0014491335263606014,0.01627724493854955
0.2663654,0.03891232874945475,0.01580903586953573,0.005266609632526375,0.025313289349028083,0.06344782911410297,0.01040926520370468,0.0014183580988932963,0.016197316720242126
0.2668846,0.03883638803558206,0.015856269044550692,0.005248674400929755,0.02507791723181774,0.0633790499507122,0.010442216849229783,0.0013891141829528346,0.016117199887985566
0.2674038,0.038759840903897974,0.01590272586341497,0.0052323044897681775,0.02484311299660563,0.0633093622040625,0.010475525875971534,0.001361443239666107,0.016036896605240467
0.2679231,0.03868271533582985,0.015948399262120255,0.005217539903849568,0.02460889852366462,0.06323877864065813,0.01050918421938686,0.0013353868654981925,0.015956409140982668
0.2684423,0.03860503950911292,0.015993282344475078,0.005204420687835581,0.024375295612055054,0.06316731197343309,0.010543183929508529,0.001310986781573111,0.015875739870545733
0.2689615,0.03852684179045734,0.01603736838442933,0.005192986913801963,0.024142325972088742,0.06309497485858767,0.010577517170890902,0.001288284822849041,0.015794891276369467
0.2694808,0.03844815072814564,0.01608065082835091,0.005183278668677874,0.023910011217858657,0.06302177989250146,0.01061217622250912,0.0012673229271494971,0.01571386594865488
0.27,0.03836899504456353,0.01612312329725309,0.00517533604156779,0.023678372859837864,0.06294773960872234,0.010647153477612767,0.0012481431240519995,0.01563266658592637
0.2705192,0.03828940362866706,0.016164779588971043,0.005169199110959641,0.023447432297551075,0.06287286647503242,0.010682441443535024,0.0012307875236357922,0.015551295995502227
0.2710385,0.03820940552838932,0.016205613680286116,0.00516490793182287,0.023217210812322208,0.06279717289059196,0.010718032741458198,0.001215298305090193,0.015469757093875046
0.2715577,0.03812902994298944,0.01624561972899638,0.005162502522600102,0.02298772956010107,0.06272067118316298,0.010753920106136489,0.0012017177051851734,0.01538805290700373
0.2720769,0.038048306215347126,0.01628479207593214,0.005162022852096152,0.022759009564372306,0.06264337360641388,0.010790096385576787,0.001190088006605777,0.015306186570519109
0.2725962,0.03796726382420528,0.016323125246915288,0.005163508826268132,0.02253107170914973,0.0625652923373063,0.010826554540678258,0.0011804515261519919,0.015224161329845113
0.2731154,0.03788593237636356,0.016360613954661405,0.005167000274920457,0.0223039367320591,0.062486439473564956,0.010863287644831458,0.0011728506028056967,0.015141980540237519
0.2736346,0.037804341598825224,0.016397253100623548,0.005172536938308569,0.02207762521751226,0.06240682703123104,0.010900288883477627,0.0011673275856663216,0.015059647666742174
0.2741538,0.0377225213308996,0.016433037776776807,0.005180158453655228,0.02185215758997567,0.06232646694229947,0.010937551553628824,0.0011639248217568876,0.014977166284074677
0.2746731,0.03764050151626225,0.016467963267342574,0.005189904341583219,0.021627554107336126,0.0622453710524404,0.010975069063349515,0.001162684643702133,0.014894540076423431
0.2751923,0.03755831219497471,0.0165020250504515,0.00520181399246832,0.0214038348543666,0.0621635511188054,0.011012834931200281,0.0011636493572804653,0.014811772837177972
0.2757115,0.03747598349546585,0.01653521879974413,0.005215926652716389,0.021181019736294722,0.062081018807919025,0.011050842785644268,0.0011668612288515234,0.014728868468584488
0.2762308,0.0373935456264764,0.016567540385908124,0.005232281410968437,0.020959128472476666,0.061997785693656035,0.011089086364417168,0.0011723624726611985,0.01464583098133045
0.27675,0.03731102886896863,0.016598985878151073,0.005250917184237565,0.020738180590178804,0.061913863255304534,0.011127559513861435,0.001180195238026044,0.014562664494060308
0.2772692,0.03722846356800279,0.01662955154560768,0.0052718727039816875,0.020518195418469505,0.061829262875714934,0.011166256188225504,0.0011904015963990987,0.014479373232824154
0.2777885,0.03714588012458184,0.016659233858680105,0.005295186502116009,0.02029919208222326,0.06174399583953416,0.011205170448928731,0.0012030235283192671,0.014395961530461224
0.2783077,0.037063308987466195,0.016688029490310168,0.005320896896969258,0.020081189496239143,0.06165807333152391,0.011244296463792727,0.0012181029102465166,0.01431243382592007
0.2788269,0.036980780644959986,0.016715935317182105,0.005349041979187775,0.019864206359475625,0.06157150643496173,0.01128362850623971,0.001235681501285297,0.014228794663517128
0.2793462,0.03689832561667042,0.016742948420854466,0.0053796595975915745,0.019648261149403528,0.0614843061301227,0.011323160954458419,0.0012558009297987279,0.01414504869213538
0.2798654,0.03681597444524207,0.016769066088819843,0.005412787344986573,0.019433372116478834,0.06139648329283939,0.011362888290538149,0.0012785026799162456,0.014061200664364736
0.2803846,0.03673375768806767,0.01679428581549108,0.005448462543937211,0.019219557278737004,0.061308048693137204,0.01140280509957138,0.001303828077937537,0.013977255435585697
0.2809038,0.03665170590897733,0.016818605303112726,0.005486722232503718,0.019006834416510365,0.06121901299394189,0.011442906068725485,0.00133181827863569,0.013893217962997747
0.2814231,0.03656984966990767,0.016842022462596463,0.005527603149948287,0.01879522106727003,0.06112938674985546,0.011483185986283933,0.0013625142514625808,0.013809093304593918
0.2819423,0.03648821952255262,0.016864535414279267,0.005571141722414396,0.018584734520593785,0.061039180405996346,0.011523639740657336,0.0013959567666595681,0.013724886618082755
0.2824615,0.03640684599999721,0.01688614248860313,0.00561737404858347,0.01837539181326115,0.060948404296899315,0.011564262319364561,0.0014321863812766223,0.01364060315975893
0.2829808,0.0363257596083359,0.016906842226715256,0.005666335885313107,0.018167209724476833,0.06085706864547012,0.011605048807984084,0.0014712434251030744,0.013556248283323618
0.2835,0.03624499081827653,0.01692663338098784,0.005718062633261007,0.01796020477122366,0.0607651835619895,0.011645994389075673,0.0015131679865132588,0.013471827438655782
0.2840192,0.03616457005673134,0.016945514915456837,0.005772589322498778,0.01775439320374592,0.06067275904316097,0.011687094341072422,0.0015579998982304148,0.013387346170535407
0.2845385,0.036084527698396644,0.016963486006179255,0.0058299505981197625,0.01754979100116406,0.060579804971196576,0.011728344037143103,0.0016057787230123264,0.0133028101173198
0.2850577,0.03600489405732263,0.016980546041508754,0.005890180705845024,0.017346413867221567,0.06048633111293478,0.011769738944024796,0.0016565437392622865,0.013218225009574045
0.2855769,0.03592569937847532,0.01699669462228941,0.0059533134776316166,0.01714427722616481,0.060392347118984974,0.011811274620825884,0.001710333926569073,0.013133596668656667
0.2860962,0.0358469738292925,0.017011931561967616,0.006019382317287226,0.016943396218756606,0.06029786252289349,0.011852946717799455,0.0017671879511797085,0.013048931005261614
0.2866154,0.035768747491235334,0.017026256886622168,0.006088420186095277,0.01674378569842417,0.060202886740326284,0.011894750975087277,0.001827144151408842,0.01296423401791754
0.2871346,0.03569105035133741,0.017039670834912663,0.006160459588454541,0.016545460227542046,0.06010742906826406,0.011936683221434504,0.0018902405229886397,0.012879511791445395
0.2876538,0.03561391229375248,0.017052173857946475,0.006235532557537317,0.01634843407385056,0.06001149868420575,0.011978739372875228,0.00195651470436309,0.012794770495375184
0.2881731,0.03553736309130223,0.017063766619064637,0.006313670640970205,0.016152721207010137,0.05991510464537612,0.012020915431388973,0.0020260039619306625,0.012710016382322841
0.2886923,0.03546143239702525,0.017074449993547017,0.006394904886541554,0.01595833529529174,0.059818255887933845,0.01206320748352817,0.0020987451752392835,0.01262525578632801
0.2892115,0.03538614973572823,0.017084225068237185,0.006479265827939615,0.01576528970240358,0.059720961226177385,0.012105611699016658,0.0021747748221376505,0.012540495121153655
0.2897308,0.03531154449554079,0.017093093141087264,0.006566783470525502,0.015573597484454148,0.059623229351746576,0.01214812432931933,0.0022541289638869826,0.012455740878548437
0.29025,0.03523764591947533,0.01710105572062314,0.0066574872771450605,0.015383271387051402,0.05952506883281951,0.012190741706183178,0.00233684323023741,0.012370999626472758
0.2907692,0.03516448309699345,0.01710811452533011,0.006751406153983777,0.015194323842538009,0.05942648811330493,0.012233460240150092,0.002422952804473296,0.012286278007289438
0.2912885,0.035092084955580985,0.017114271482959083,0.0068485684364689315,0.015006766967362296,0.05932749551203088,0.012276276419042019,0.0025124924084318828,0.012201582735919857
0.2918077,0.03502048025233328,0.017119528729753475,0.006949001875223186,0.014820612559584615,0.05922809922193055,0.012319186806419082,0.0026054962874997364,0.012116920597966483
0.2923269,0.03494969756555284,0.017123888609596676,0.007052733622073826,0.014635872096518815,0.05912830730922622,0.01236218804001137,0.002701998195591521,0.012032298447802552
0.2928462,0.03487976528636095,0.017127353673080024,0.007159790216121901,0.014452556732508478,0.059028127712611705,0.012405276830125104,0.0028020313801156833,0.011947723206629696
0.2933654,0.03481071161032476,0.01712992667649106,0.007270197569875492,0.014270677296837566,0.05892756824243389,0.01244844995802387,0.002905628566931658,0.011863201860504307
0.2938846,0.034742564529101315,0.017131610580721747,0.007383980955451301,0.0140902442917752,0.05882663657987366,0.012491704274285725,0.0030128219453032165,0.01177874145833337
0.2944038,0.034675351822099736,0.01713240855009616,0.007501164990848756,0.0139112678907543,0.0587253402761266,0.012535036697137042,0.0031236431528526187,0.011694349109840456
0.2949231,0.034609101048162685,0.017132323951117332,0.007621773626300791,0.013733757936683848,0.0586236867515841,0.012578444210764055,0.003238123260520244,0.011610031983502505
0.2954423,0.03454383953726854,0.01713136035113273,0.0077458301307054295,0.01355772394039461,0.05852168329501501,0.012621923863603163,0.003356292757534409,0.011525797304458086
0.2959615,0.03447959438225547,0.017129521516918145,0.007873357078142308,0.013383175079218263,0.05841933706274844,0.012665472766611036,0.003478181536396145,0.011441652352387826
0.2964808,0.034416392430569195,0.017126811413179857,0.008004376334478296,0.01321012019569985,0.05831665507785799,0.012709088091515535,0.003603818877883722,0.01135760445936775
0.297,0.03435426027603636,0.017123234200975085,0.00813890904406641,0.013038567796443606,0.05821364422934788,0.01275276706904844,0.0037332334360817908,0.011273661007696374
0.2975192,0.034293224250665943,0.017118794236051,0.00827697561654223,0.012868526051092177,0.05811031127134156,0.012796506987160982,0.00386645322344006,0.011189829427696361
0.2980385,0.03423331041648146,0.017113496067102604,0.008418595713722148,0.01270000279143921,0.058006662822274166,0.012840305189223123,0.004003505595866537,0.011106117195491635
0.2985577,0.03417454455738704,0.01710734443394989,0.008563788236607769,0.012533005510675212,0.057902705364090666,0.012884159072207552,0.004144417237860486,0.01102253183076074
0.2990769,0.034116952171070886,0.017100344265634834,0.008712571312500868,0.012367541362766552,0.05779844524145195,0.012928066084859252,0.004289214147690392,0.01093908089446721
0.2995962,0.034060558460949686,0.01709250067843862,0.008864962282233416,0.012203617161967419,0.05769388866095208,0.012972023725851484,0.004437921622622346,0.010855771986567767
0.3001154,0.03400538832815766,0.017083818973819758,0.009020977687517251,0.01204123938246449,0.05758904169034987,0.013016029541928981,0.0045905642442043496,0.010772612743699141
0.3006346,0.03395146636358405,0.017074304636273786,0.009180633258418048,0.011880414158154027,0.05748391025781856,0.013060081126039152,0.004747165863612168,0.010689610836844447
0.3011538,0.03389881683996269,0.01706396333111553,0.009343943900958412,0.011721147282551012,0.05737850015121715,0.013104176115452155,0.004907749587062407,0.010606773968980117
0.3016731,0.03384746370401734,0.017052800902185004,0.009510923684854974,0.011563444208829859,0.05727281701738708,0.013148312189870729,0.005072337761298568,0.010524109872704473
0.3021923,0.033797430568666596,0.01704082336947837,0.009681585831394559,0.01140731004999616,0.0571668663614778,0.013192487069530795,0.005240951959155898,0.010441626307849129
0.3027115,0.033748740705292164,0.017028036926705507,0.009855942701454495,0.01125274957918883,0.0570606535463048,0.01323669851329389,0.005413612965210886,0.01035933105907441
0.3032308,0.03370141703607463,0.017014447938775837,0.010034005783672317,0.011099767230111869,0.05695418379174353,0.013280944316732464,0.005590340761521329,0.010277231933450119
0.30375,0.03365548212640086,0.017000062939214203,0.010215785682770108,0.010948367097594927,0.05684746217416246,0.013325222310209115,0.00577115451346285,0.01019533675802293
0.3042692,0.03361095817734713,0.016984888627508507,0.010401292108038805,0.010798552938281681,0.05674049362589848,0.013369530356950775,0.005956072555667828,0.010113653377371742
0.3047885,0.03356786701824209,0.01696893186639095,0.010590533861987815,0.010650328171444992,0.05663328293477762,0.013413866351118986,0.006145112378072695,0.010032189651152306
0.3053077,0.03352623009931357,0.016952199679054928,0.010783518829165306,0.010503695879927718,0.056525834743683605,0.013458228215877407,0.0063382906120796,0.009950953451632443
0.3058269,0.03348606848442286,0.016934699246309772,0.010980253965154521,0.010358658811207908,0.05641815355017687,0.013502613901457742,0.006535623016838455,0.009869952661219171
0.3063462,0.03344740284388988,0.01691643790367564,0.011180745285751463,0.010215219378587135,0.05631024370616625,0.013547021383225284,0.006737124465655386,0.009789195169979099
0.3068654,0.03341025344741273,0.016897423138420894,0.011384997856329302,0.010073379662500524,0.056202109417635204,0.013591448659745277,0.006942808932533622,0.009708688873153444
0.3073846,0.033374640157084474,0.0168776625865444,0.01159301578139472,0.009933141411947085,0.05609375474442427,0.013635893750851199,0.007152689478852833,0.00962844166866906
0.3079038,0.03334058242051024,0.016857164029705128,0.011804802194341518,0.009794506046038874,0.05598518360007128,0.013680354695716051,0.007366778240192904,0.009548461454646835
0.3084231,0.03330809926402703,0.016835935392101244,0.012020359247406662,0.009657474655667396,0.05587639975171044,0.013724829550927735,0.007585086413308119,0.009468756126908673
0.3089423,0.03327720928602872,0.016813984737301012,0.012239688101833892,0.009522048005285694,0.055767406820031104,0.013769316388569484,0.007807624243257674,0.009389333576484351
0.3094615,0.03324793065039819,0.016791320265027682,0.012462788918250003,0.009388226534804374,0.0556582082792967,0.013813813294306395,0.008034401010698484,0.009310201687119398
0.3099808,0.033220281080048715,0.01676795030790052,0.012689660847258795,0.009256010361599835,0.05554880745742424,0.013858318365479062,0.008265425019346177,0.009231368332785173
0.3105,0.03319427785057615,0.016743883328134087,0.01292030202025769,0.009125399282632861,0.055439207536124635,0.013902829709205462,0.008500703583610197,0.00915284137519228
0.3110192,0.03316993778402385,0.016719127914197853,0.013154709540481915,0.008996392776675669,0.05532941155110423,0.0139473454404923,0.008740243016408883,0.00907462866130848
0.3115385,0.033147277242761855,0.016693692777438266,0.013392879474281196,0.008868990006645464,0.05521942239232823,0.013991863680357153,0.008984048617170495,0.008996738020882208
0.3120577,0.033126312123481966,0.016667586748665347,0.013634806842633898,0.008743189822042445,0.05510924280434664,0.01403638255396284,0.009232124660026103,0.008919177263972821
0.3125769,0.033107057851310226,0.016640818774705787,0.013880485612903611,0.008618990761490178,0.05499887538668327,0.014080900188765563,0.009484474382200328,0.008841954178488579
0.3130962,0.033089529374038175,0.016613397914924517,0.014129908690843173,0.008496391055376171,0.05488832259428852,0.014125414712678369,0.009741099972605886,0.008765076527733411
0.3136154,0.03307374115647447,0.016585333337716644,0.014383067912851178,0.00837538862859045,0.054777586738056244,0.01416992425225152,0.01000200256064787,0.008688552047963465
0.3141346,0.033059707174918275,0.016556634316971595,0.014639954038486136,0.008255981103359884,0.05466666998540552,0.014214426930871375,0.010267182205243705,0.008612388445954362
0.3146538,0.03304744091175587,0.016527310228511307,0.014900556743243407,0.008138165802175964,0.054555574360927936,0.01425892086697934,0.010536637884064667,0.008536593396580108
0.3151731,0.03303695535018173,0.016497370546504384,0.015164864611600189,0.008021939750813684,0.05444430174710148,0.014303404172312453,0.010810367483004834,0.00846117454040452
0.3156923,0.03302826296904538,0.01646682483985833,0.01543286513033391,0.00790729968143915,0.054332853885072016,0.014347874950167067,0.011088367785883433,0.008386139481286019
0.3162115,0.033021375737824966,0.016435682768592072,0.015704544682119362,0.00779424203580347,0.05422123237550309,0.014392331293687126,0.011370634464386551,0.008311495783996528
0.3167308,0.033016305111728594,0.01640395408019111,0.015979888539410066,0.007682762968520494,0.05410943867949465,0.014436771284178489,0.01165716206825432,0.008237250971855202
0.31725,0.03301306202692414,0.016371648605947763,0.016258880858609364,0.00757285835042587,0.05399747411957101,0.014481192989450825,0.011947944015719771,0.008163412524377665
0.3177692,0.03301165689589824,0.016338776257289113,0.01654150467453671,0.007464523772014875,0.05388533988073806,0.014525594462188592,0.012242972584205595,0.008089987874941421
0.3182885,0.03301209960294504,0.016305347022095178,0.016827741895194794,0.00735775454695641,0.053773037011609695,0.014569973738352605,0.012542238901285007,0.008016984408468089
0.3188077,0.033014399499785095,0.016271370961010043,0.01711757329684298,0.007252545715680491,0.05366056642560268,0.014614328835613737,0.012845732935912941,0.007944409459123062
0.3193269,0.03301856540131452,0.016236858203748542,0.017410978519382673,0.007148892049036518,0.053547928902199594,0.014658657751820103,0.01315344348993367,0.007872270308033221
0.3198462,0.03302460558148429,0.016201818945401143,0.017707936062060087,0.007046788052019535,0.053435125088278815,0.014702958463499055,0.013465358189870885,0.007800574181023283
0.3203654,0.03303252776930939,0.016166263442739647,0.018008423279491984,0.006946227967561665,0.05332215549951068,0.014747228924395266,0.01378146347900614,0.0077293282463713605
0.3208846,0.033042339145007274,0.016130202010526274,0.018312416378019718,0.006847205780385848,0.05320902052181894,0.014791467064046005,0.014101744609751507,0.007658539612584251
0.3214038,0.03305404633626462,0.016093645017828513,0.018619890412397002,0.0067497152209190095,0.05309572041290659,0.014835670786394712,0.014426185636322175,0.007588215326193025
0.3219231,0.0330676554146314,0.01605660288434218,0.01893081928281674,0.006653749769261697,0.052982255303845475,0.014879837968443875,0.014754769407714648,0.0075183623695693706
0.3224423,0.033083171892041095,0.016019086076724885,0.019245175732282127,0.006559302659211272,0.05286862520072944,0.014923966458948147,0.015087477560996163,0.007448987658763208
0.3229615,0.03310060071745565,0.0159811051049422,0.019562931344327263,0.006466366882335696,0.05275482998639112,0.014968054077148503,0.01542429051491091,0.007380098041362016
0.3234808,0.033119946273633724,0.01594267051862849,0.019884056541092345,0.00637493519209494,0.05264086942218238,0.015012098611548234,0.015765187463808533,0.007311700294372268
0.324,0.033141212374020894,0.015903792903464463,0.02020852058175849,0.006285000108007021,0.052526743149818596,0.01505609781873138,0.016110146371900336,0.007243801122123365
0.3245192,0.03316440225976029,0.015864482877573253,0.02053629156134706,0.006196553919855681,0.052412450693286455,0.015100049422224253,0.016459143967848523,0.0071764071541944585
0.3250385,0.03318951859682192,0.015824751087936812,0.02086733640988831,0.006109588691936704,0.052297991460815194,0.015143951111400546,0.016812155739693687,0.007109524943364492
0.3255577,0.03321656347324909,0.015784608206834343,0.02120162089196404,0.0060240962673398755,0.05218336474691089,0.015187800540430613,0.017169155930125576,0.007043160963585813
0.3260769,0.03324553839652026,0.01574406492830445,0.02153910960662889,0.005940068272263577,0.052068569734453625,0.015231595327275457,0.01753011753210211,0.00697732160798167
0.3265962,0.03327644429102467,0.015703131964632678,0.021879765987714808,0.005857496120359056,0.05195360549685713,0.015275333052726004,0.01789501228482149,0.006912013186867897
0.3271154,0.03330928149565045,0.01566182004286619,0.02222355230452329,0.005776371017101429,0.05183847100029086,0.01531901125948822,0.018263810670052078,0.0068472419257990845
0.3276346,0.03334404976148389,0.015620139901357216,0.02257042966290976,0.005696683964184531,0.05172316510596411,0.015362627451314644,0.01863648190882467,0.006783013963639496
0.3281538,0.03338074824961918,0.015578102286336907,0.0229203580067646,0.005618425763936833,0.051607686572471834,0.015406179092182828,0.019012993958491806,0.006719335350659032
0.3286731,0.03341937552907774,0.015535717948521053,0.02327329611989521,0.005541587023755723,0.05149203405820202,0.015449663605521056,0.019393313510158678,0.006656212046654544
0.3291923,0.0334599295748366,0.015492997639749099,0.023629201628313428,0.005466158160557545,0.05137620612380415,0.015493078373481716,0.019777405986490464,0.006593649919096849
0.3297115,0.03350240776596533,0.01544995210965778,0.02398803100293245,0.005392129405240889,0.05126020123471876,0.015536420736262522,0.020165235539900916,0.006531654741303844
0.3302308,0.03354680688387082,0.015406592102390627,0.024349739562677438,0.005319490807160664,0.051144017763767494,0.015579687991475681,0.020556765051127194,0.006470232190640153
0.33075,0.0335931231106494,0.015362928353344721,0.024714281478013755,0.005248232238610548,0.05102765399380333,0.015622877393565073,0.020951956128195958,0.006409387846743787
0.3312692,0.033641352027545604,0.015318971585956076,0.02508160977489678,0.005178343399311402,0.05091110812042039,0.015665986153271323,0.02135076910578572,0.006349127189780333
0.3317885,0.03369148861351719,0.015274732508525164,0.025451676339146908,0.0051098138209033014,0.050794378254722904,0.015709011437144548,0.021753163044990514,0.0062894555987251495
0.3323077,0.03374352724390636,0.01523022181108427,0.025824431921253325,0.0050426328714388334,0.05067746242615269,0.015751950367104472,0.022159095733489766,0.006230378349674034
0.3328269,0.03379746168921755,0.01518545016230836,0.02619982614160987,0.004976789759875371,0.05056035858537471,0.015794800020047454,0.022568523686129185,0.00617190061418281
0.3333462,0.033853285114002714,0.015140428206471235,0.02657780749618611,0.004912273540564056,0.050443064607219985,0.015837557427499947,0.02298140214591738,0.006114027457636247
0.3338654,0.033910990075855726,0.015095166560448642,0.026958323362636566,0.004849073117733273,0.050325578293685315,0.015880219575317774,0.02339768508544276,0.0060567638376467095
0.3343846,0.033970568524517915,0.015049675810770097,0.02734132000685074,0.004787177249964456,0.05020789737698931,0.01592278340343057,0.0238173252087151,0.006000114602482986
0.3349038,0.034032011801097405,0.015003966510720905,0.02772674258994652,0.004726574554658157,0.050090019522684215,0.01596524580563073,0.02424027395343611,0.005944084489529778
0.3354231,0.03409531063740564,0.014958049177495965,0.028114535175709172,0.0046672535124883865,0.04997194233282331,0.016007603629406182,0.02466648149370302,0.005888678123778384
0.3359423,0.03416045515541469,0.014911934289406762,0.028504640738478047,0.004609202471843301,0.04985366334918346,0.01604985367581625,0.025095896743149104,0.0058339000163491125
0.3364615,0.034227434866839775,0.014865632283142853,0.028897001171482892,0.004552409653250355,0.049735180056542365,0.016091992699409915,0.02552846735852501,0.005779754563045996
0.3369808,0.03429623867285143,0.014819153551089054,0.029291557295631508,0.004496863153784063,0.04961648988600981,0.016134017408185573,0.025964139743724367,0.005726246042944353
0.3375,0.034366854863922054,0.01477250843869946,0.029688248868750176,0.004442550951454543,0.049497590218412095,0.016175924463591524,0.026402859054257276,0.005673378617011733
0.3380192,0.034439271119811724,0.014725707241929242,0.03008701459527821,0.004389460909575065,0.04937847838772862,0.016217710480566416,0.026844569202174914,0.005621156326762754
0.3385385,0.03451347450969777,0.014678760204725147,0.03048779213641772,0.004337580781106926,0.049259151684579804,0.01625937202761891,0.027289212861448496,0.005569583092948355
0.3390577,0.034589451492452836,0.014631677516575514,0.030890518120739435,0.004286898212980122,0.04913960735976561,0.01630090562694611,0.027736731473805506,0.005518662714279967
0.3395769,0.034667187917075445,0.014584469310120477,0.03129512815524541,0.004237400750388514,0.049019842627853936,0.01634230775459017,0.0281870652550262,0.005468398866189109
0.3400962,0.034746669023277436,0.01453714565882299,0.03170155683688923,0.0041890758410584135,0.04889985467081804,0.016383574840632662,0.028640153201703097,0.005418795099622847
0.3406154,0.03482787944223212,0.014489716574701147,0.03210973776455413,0.004141910839489736,0.048779640641722126,0.01642470326942621,0.02909593309846607,0.0053698548398755565
0.3411346,0.034910803197487184,0.014442192006122253,0.03251960355148941,0.004095893011169087,0.04865919766845408,0.016465689379862834,0.029554341525675643,0.005321581385457357
0.3416538,0.034995423706046275,0.014394581835659016,0.03293108583820515,0.004051009536754326,0.04853852285750391,0.016506529465678484,0.03001531386758689,0.0052739779069995545
0.3421731,0.035081723779623146,0.014346895878008166,0.033344115305825,0.004007247516230269,0.04841761329778655,0.01654721977579313,0.030478784320986423,0.005227047446197387
0.3426923,0.03516968562607248,0.014299143877971744,0.03375862168989671,0.003964593973035302,0.04829646606450738,0.016587756514685886,0.030944685904304894,0.005180792914790301
0.3432115,0.03525929085100116,0.014251335508501238,0.03417453379465964,0.003923035858158758,0.048175078223068955,0.016628135842804637,0.031412950467207344,0.0051352170935800015
0.3437308,0.03535052045956396,0.014203480368804639,0.03459177950776821,0.0038825600542089045,0.048053446833016926,0.01666835387700963,0.03188350870066381,0.005090322631486462
0.34425,0.03544335485844726,0.014155587982516362,0.03501028581547026,0.0038431533794514674,0.04793156895202303,0.016708406691050563,0.032356290147502485,0.0050461120446421035
0.3447692,0.03553777385804442,0.014107667795929892,0.03542997881823867,0.0038048025918185338,0.04780944163990299,0.016748290316076678,0.0328312232134477,0.005002587715524374
0.3452885,0.03563375667482613,0.014059729176292885,0.03585078374685477,0.003767494392887717,0.047687061962667074,0.016788000741179355,0.033308235178644834,0.004959751892126967
0.3458077,0.0357312819339088,0.014011781410164374,0.03627262497894159,0.0037312154318313983,0.047564426996601086,0.01682753391396682,0.033787252209674344,0.004917606687169958
0.3463269,0.035830327671823904,0.013963833701833588,0.036695426055945043,0.003695952309335873,0.047441533832375975,0.01686688574117048,0.03426819937205673,0.0048761540773491485
0.3468462,0.035930871339490904,0.01391589517179984,0.037119109700560704,0.003661691581490187,0.047318379579184125,0.016906052089282312,0.03475100064325023,0.004835395902624891
0.3473654,0.03603288980539641,0.013867974855312807,0.037543597834603946,0.0036284197636444675,0.0471949613689006,0.01694502878522278,0.035235578926142826,0.004795333865550682
0.3478846,0.03613635935898175,0.013820081700972537,0.03796881159732092,0.0035961233342375405,0.04707127636026755,0.01698381161703861,0.03572185606304015,0.004755969530641795
0.3484038,0.03624125571424109,0.013772224569388467,0.03839467136413774,0.0035647887385936274,0.04694732174309995,0.0170223963346299,0.03620975285015051,0.004717304323784196
0.3489231,0.036347554013531985,0.013724412231896705,0.03882109676584514,0.00353440239268792,0.04682309474251066,0.01706077865050597,0.03669918905256817,0.004679339531683985
0.3494423,0.03645522883160021,0.013676653369334843,0.03924800670821568,0.0035049506868808596,0.04669859262315273,0.01709895424056953,0.037190083419755965,0.004642076301357576
0.3499615,0.03656425417982064,0.013628956570873485,0.03967531939205052,0.0034764199896209474,0.04657381269347668,0.017136918744928738,0.0376823537015279,0.004605515639662802
0.3504808,0.03667460351065585,0.0135813303329037,0.040102952333652575,0.0034487966511159126,0.04644875231000039,0.01717466776873692,0.03817591666453251,0.004569658412871114
0.351,0.03678624972233427,0.013533783057979618,0.04053082238572301,0.003422067006972072,0.04632340888158903,0.01721219688305984,0.03867068810923735,0.004534505346281018
0.3515192,0.036899165163749525,0.013486323053815405,0.04095884575867744,0.0033962173818016957,0.0461977798737423,0.01724950162577061,0.039166582887414786,0.004500057023872888
0.3520385,0.037013321639582694,0.013438958532335815,0.04138693804237858,0.0033712340927981744,0.046071862812886444,0.017286577502472294,0.03966351492012905,0.004466313888005234
0.3525577,0.03712869041564891,0.013391697608779509,0.041815014228281606,0.003347103453278788,0.04594565529066788,0.017323419987448282,0.04016139721622424,0.004433276239152506
0.3530769,0.03724524222446992,0.013344548300854272,0.04224298873198856,0.0033238117761948322,0.04581915496824573,0.017360024524640454,0.04066014189131243,0.004400944235684459
0.3535962,0.03736294727107382,0.013297518527943267,0.04267077541620764,0.0033013453776088737,0.04569235958058018,0.017396386528655078,0.04115966018726096,0.004369317893687073
