Time,Rectus Femoris right,Rectus Femoris left,Hamstrings right,Hamstrings left,TibilaisÂ Anterior right,TibilaisÂ Anterior left,Gastrocnemius right,Gastrocnemius left
0.0,0.006803164869293247,-0.0009898968981153049,0.006685276550737198,-0.0018234521492763863,0.018236457361500084,0.02137507811379582,-0.01167798117551666,-0.00624169609321915
0.0004655,0.007341289575329136,-0.0008253876108458193,0.007407002841251489,-0.0018000996569998162,0.019151978535918057,0.021681635807470602,-0.011422160757149651,-0.00591667774345975
0.000931,0.00788769285929448,-0.0006605831985481087,0.008126977602213583,-0.001775889041812686,0.020069948428384613,0.021987962049335622,-0.011165632282774817,-0.005593082156364001
0.0013966,0.008442396182838173,-0.0004955051304531858,0.008845093724069148,-0.0017508007494096028,0.020990262161127916,0.02229401264134049,-0.010908415754764986,-0.0052709615928007115
0.0018621,0.009005419778452026,-0.0003301750040286058,0.009561244476637589,-0.0017248150503468927,0.02191281423183455,0.02259974346438028,-0.010650531205755895,-0.0049503679167603384
0.0023276,0.009576782636134219,-0.00016461453994110503,0.010275323544365523,-0.001697912042668738,0.02283749854131826,0.022905110494835176,-0.010391998693590858,-0.004631352574724318
0.0027931,0.01015650249021616,1.1544230212071727e-06,0.010987225061446755,-0.001670071654642499,0.023764208421333595,0.023210069821082795,-0.010132838296337663,-0.004313966575249808
0.0032586,0.010744595806353629,0.00016710993306514346,0.011696843646785528,-0.0016412736476044997,0.024692836662513575,0.02351457765996593,-0.009873070107382191,-0.003998260468795401
0.0037241,0.011341077768683202,0.0003332299305452702,0.012404074438779963,-0.0016114976189175391,0.025623275542411148,0.023818590373198965,-0.009612714230603019,-0.0036842843278111943
0.0041897,0.011945962267145161,0.0004994922531513391,0.01310881312990278,-0.0015807230050413417,0.026555416853625155,0.0241220644836966,-0.00935179077563105,-0.0033720877271143823
0.0046552,0.012559261884974271,0.0006658746411283946,0.013810956001056572,-0.0015489290847171399,0.027489151931992306,0.02442495669180878,-0.009090319853198008,-0.0030617197245695342
0.0051207,0.013180987886360199,0.0008323547425276546,0.014510399955681158,-0.001516094982267522,0.02842437168482722,0.024727223891446368,-0.00882832157057736,-0.0027532288420909997
0.0055862,0.013811150204279653,0.0009989101184862937,0.015207042553590929,-0.0014821996710125986,0.029360966619193483,0.025028823186082537,-0.008565816027120983,-0.0024466630469835147
0.0060517,0.01444975742850277,0.001165518248534308,0.01590078204452059,-0.0014472219768034255,0.03029882687018915,0.025329711904616248,-0.008302823309894746,-0.00214206973363577
0.0065172,0.015096816793776544,0.0013321565359267072,0.016591517401358325,-0.0014111405816734956,0.031237842229230737,0.025629847617085127,-0.008039363489415937,-0.0018394957055802047
0.0069828,0.01575233416818842,0.001498802312999351,0.01727914835304606,-0.0013739340276089772,0.03217790217232053,0.025929188150216585,-0.0077754566154952815,-0.0015389871579305383
0.0074483,0.01641631404171326,0.0016654328465468449,0.01796357541712733,-0.0013355807204382603,0.033118895888282845,0.026227691602806958,-0.007511122713186058,-0.0012405896602067949
0.0079138,0.017088759514946893,0.0018320253432210069,0.018644699931924056,-0.0012960589338412497,0.034060712306955586,0.026525316360919166,-0.007246381778842512,-0.0009443481395560792
0.0083793,0.017769672288029618,0.0019985569549485324,0.01932242408832414,-0.001255346813478764,0.03500324012732389,0.026822021112889734,-0.006981253776289429,-0.0006503068643763278
0.0088448,0.018459052649762744,0.0021650047843665863,0.019996650961162533,-0.001213422381242307,0.035946367845583097,0.027117764864136126,-0.006715758633104449,-0.00035850942834965676
0.0093103,0.01915689946692143,0.0023313458902751547,0.020667284540178826,-0.0011702635396243935,0.0368899837831181,0.027412506951755528,-0.0064499162370143795,-6.899873489158795e-05
0.0097759,0.0198632101737671,0.002497557293105083,0.021334229760535405,-0.0011258480762095444,0.03783397611438684,0.027706207058906647,-0.006183746432406627,0.00021818301797782802
0.0102414,0.020577980761762774,0.0026636159804007916,0.0219973925328809,-0.0010801536682859918,0.03877823289469555,0.027998825228966587,-0.0059172690169566325,0.0005029943523352765
0.0107069,0.021301205769494767,0.002829498912316725,0.02265667977294504,-0.0010331578875780777,0.03972264208785389,0.028290321879455495,-0.0056505037383721085,0.0007853945246224794
0.0111724,0.022032878272804455,0.0029951830271266184,0.023311999430652413,-0.00098483820509929,0.040667091593698496,0.028580657815722332,-0.005383470291254744,0.0010653435394765878
0.0116379,0.022772989875133858,0.0031606452467446886,0.023963260518744128,-0.0009351719961258442,0.04161146927547392,0.02886979424438554,-0.00511618831407987,0.001342802163118192
0.0121034,0.023521530698089124,0.0033258624822578623,0.024610373140898024,-0.0008841365452906983,0.042555662987060365,0.029157692786522704,-0.004848677386294496,0.0016177319362929864
0.012569,0.024278489372226177,0.003490811639468143,0.02525324851933953,-0.0008317090517978707,0.043499560600037755,0.02944431549060364,-0.004580957025533923,0.0018900951867636526
0.0130345,0.025043853028063133,0.0036554696244442127,0.02589179902193672,-0.0007778666347569059,0.044443050030575804,0.02972962484516145,-0.004313046684957076,0.0021598550413490184
0.0135,0.02581760728732434,0.00381981334908136,0.026525938188774294,-0.0007225863386373254,0.04538601926613962,0.030013583791196133,-0.004044965750700528,0.002426975437508022
0.0139655,0.026599736254421316,0.003983819736668824,0.02715558075820223,-0.0006658451388428744,0.046328356392000225,0.03029615573430543,-0.0037767335394510615,0.002691421134466475
0.014431,0.02739022250817607,0.004147465727463612,0.027780642692355566,-0.0006076199474053507,0.047269949617539435,0.030577304556537725,-0.003508369296136564,0.0029531577238850184
0.0148966,0.02818904709379273,0.004310728284269882,0.028401041202142454,-0.0005478876187977698,0.04821068730233807,0.03085699462796193,-0.0032398921917349273,0.0032121516400669486
0.0153621,0.02899618951508359,0.0044735843980228856,0.02901669477169799,-0.00048662495586656484,0.04915045798203674,0.031135190817949448,-0.0029713213212006037,0.0034683701697047773
0.0158276,0.029811627726956183,0.004636011093376533,0.029627523182301767,-0.0004238087158824531,0.050089150393958136,0.0314118585061634,-0.0027026757015084,0.003721781461164523
0.0162931,0.03063533812816805,0.004797985434293529,0.030233447535757147,-0.0003594156167095072,0.0510266535024797,0.03168696359325076,-0.0024339742698140615,0.003972354533306902
0.0167586,0.03146729555435626,0.004959484529637085,0.03083439027723016,-0.00029342234309185896,0.05196285652414553,0.031960472511233455,-0.00216523588173112,0.004220059283844794
0.0172241,0.032307473271348794,0.005120485538763147,0.031430275217546044,-0.00022580555305733307,0.05289764895250676,0.032232352233595045,-0.0018964793097234257,0.004464866497236554
0.0176897,0.03315584296876517,0.005280965677112112,0.032021027554941316,-0.00015654188443716592,0.05383092058268036,0.03250257028506046,-0.0016277232416127244,0.004706747852114926
0.0181552,0.034012374753913666,0.005440902221798999,0.03260657389626901,-8.56079615008125e-05,0.054762561535616795,0.03277109475106668,-0.0013589862792005654,0.004945675928251509
0.0186207,0.03487703714599252,0.0056002725172010805,0.03318684227765501,-1.2980401704693963e-05,0.05569246228206834,0.033037894286922734,-0.0010902869370037595,0.005181624213056849
0.0190862,0.03574979707060257,0.005759053980542052,0.03376176218460316,6.1364177446405e-05,0.05662051366625028,0.03330293812665763,-0.0008216436411025646,0.005414567107616488
0.0195517,0.03663061985457836,0.005917224107471822,0.034331264571547004,0.00013744915142671317,0.057546606929189004,0.03356619609155502,-0.000553074728100727,0.00564447993226353
0.0200172,0.037519469221144866,0.006074760477641042,0.034895281880845994,0.00021529788160716773,0.058470633731752104,0.03382763859837329,-0.0002845984441964449,0.005871338931688711
0.0204828,0.03841630728540652,0.006231640760269499,0.03545374806122391,0.00029493370806507716,0.059392486177357096,0.03408723666725034,-1.62329443632539e-05,0.006095121279589389
0.0209483,0.039321094550175226,0.006387842719707444,0.036006598585647226,0.0003763799422874988,0.0603120568343563,0.03434496192929222,0.00025200370836025245,0.006315805082859315
0.0214138,0.04023378990214365,0.006543344220988926,0.03655377046864107,0.0004596598597701664,0.06122923875809691,0.034600786633845824,0.0005200935434730429,0.006533369385321383
0.0218793,0.041154350608410196,0.006698123235376123,0.03709520228304014,0.0005447966925138891,0.06214392551265648,0.034854683655456305,0.0007880186835078621,0.006747794171005793
0.0223448,0.04208273231336185,0.0068521578458936305,0.037630834176171954,0.0006318136214204213,0.06305601119225566,0.035106626500511266,0.0010557613444223569,0.006959060366976194
0.0228103,0.043018889035921236,0.0070054262528516315,0.03816060788546946,0.0007207337685898766,0.06396539044235135,0.03535658931357432,0.0013233038358865044,0.007167149845706437
0.0232759,0.043962773167164036,0.00715790677935687,0.03868446675350986,0.0008115801895218172,0.06487195848041387,0.03560454688341124,0.0015906285614678188,0.007372045427010631
0.0237414,0.04491433546831295,0.007309577876810288,0.03920235574247637,0.0009043758652221932,0.06577561111639266,0.03585047464871221,0.001857718018715935,0.0075737308795292575
0.0242069,0.04587352506911451,0.007460418130390195,0.039714221448039336,0.0009991436942183355,0.06667624477287393,0.036094348703513884,0.0021245547991483203,0.007772190921774254
0.0246724,0.04684028946660485,0.00761040626451986,0.04022001211265284,0.0010959064844842214,0.06757375650493425,0.0363361458023252,0.0023911215881390036,0.007967411222736137
0.0251379,0.0478145745242706,0.007759521148318429,0.040719677638263306,0.0011946869452782386,0.06846804401969307,0.03657584336496083,0.0026574011647123377,0.0081593784020564
0.0256034,0.04879632447161098,0.007907741801034054,0.04121316959842633,0.001295507678895678,0.0693590056955675,0.03681341948108634,0.0029233764012438815,0.008348080029768489
0.026069,0.04978548190410741,0.008055047397458192,0.041700441249828385,0.0013983911723381922,0.07024654060123167,0.03704885291447918,0.003189030263070543,0.00853350462561081
0.0265345,0.05078198778360676,0.00820141727331998,0.042181447543210335,0.0015033597889024543,0.07113054851428334,0.03728212310700973,0.0034543458080121426,0.0087156416579153
0.027,0.051785781439124684,0.008346830930659617,0.042656145133689684,0.0016104357596902457,0.07201092993961915,0.03751321018234668,0.003719306185806588,0.00889448154207527
0.0274655,0.05279680056807526,0.008491268043179635,0.043124492390478726,0.0017196411750422032,0.07288758612752055,0.037742094949391576,0.00398389463746088,0.009070015638596567
0.027931,0.05381498123793356,0.008634708461572925,0.04358644940599555,0.0018309979758974451,0.07376041909145173,0.03796875890544733,0.0042480944945202225,0.009242236250736382
0.0283966,0.05484025788833733,0.008777132218826299,0.04404197800436469,0.0019445279450812892,0.07462933162557045,0.038193184239126,0.0045118891782575474,0.009411136621734444
0.0288621,0.05587256333363398,0.008918519535498345,0.04449104174930437,0.0020602526985232664,0.07549422732195317,0.038415353833001285,0.004775262198785855,0.00957671093164167
0.0293276,0.05691182876587875,0.009058850824970297,0.04493360595139753,0.0021781936764076245,0.0763550105875349,0.038635251266011514,0.005038197154095809,0.009738954293751623
0.0297931,0.05795798375828983,0.009198106698668537,0.04536963767474439,0.002298372134258513,0.0772115866607641,0.038852860815618694,0.005300677729021105,0.00989786275064048
0.0302586,0.05901095626916565,0.009336267971257355,0.04579910574299501,0.002420809133962042,0.07806386162797291,0.03906816745972928,0.005562687694134119,0.010053433269821463
0.0307241,0.06007067264626947,0.0094733156658006,0.04622198074476085,0.002545525534727441,0.0789117424394624,0.039281156878382184,0.005824210904574433,0.010205663739020035
0.0311897,0.06113705763168687,0.00960923101889087,0.0466382350384055,0.0026725419839895843,0.0797551369253024,0.03949181545520934,0.006085231298812792,0.010354552961076546
0.0316552,0.062210034367161667,0.009743995485744995,0.04704784275621513,0.002801878908255188,0.08059395381084467,0.039700130278674216,0.0063457328973531325,0.01050010064848324
0.0321207,0.0632895243999164,0.00987759074526465,0.04745077980794987,0.002933556503895036,0.08142810273194825,0.039906089143093106,0.006605699801375346,0.010642307417562776
0.0325862,0.06437544768896433,0.010009998705061104,0.047847023883777984,0.0030675947278846504,0.08225749424991528,0.0401096805494443,0.0068651161913215126,0.010781174782295589
0.0330517,0.06546772261191935,0.010141201506443183,0.04823655445659474,0.0032040132884958495,0.08308203986613526,0.04031089370596968,0.007123966325428372,0.010916705147803536
0.0335172,0.06656626597231119,0.010271181529367696,0.04861935278372834,0.003342831635941692,0.0839016520364361,0.0405097185285734,0.007382234538208863,0.011048901803497577
0.0339828,0.0676709930074125,0.010399921397351627,0.04899540190803453,0.003484068952977364,0.08471624418513996,0.040706145641021915,0.007639905238885548,0.01117776891589746
0.0344483,0.06878181739658433,0.010527403982345515,0.04936468665838178,0.003627744145459632,0.08552573071882212,0.04090016637494955,0.007896962909778746,0.011303311521131652
0.0349138,0.06989865127014608,0.010653612409567454,0.049727193649528274,0.00377387583286758,0.08633002703977095,0.04109177276967353,0.008153392104652215,0.011425535517125955
0.0353793,0.07102140521877556,0.010778530062297197,0.050082911281392195,0.003922482338787451,0.08712904955914696,0.04128095757182231,0.0084091774470192,0.011544447655489435
0.0358448,0.07214998830344439,0.010902140586629824,0.050431829737716,0.00407358168136459,0.08792271570983881,0.041467714234781176,0.008664303628411689,0.01166005553310634
0.0363103,0.07328430806589341,0.011024427896188458,0.05077394098412593,0.004227191563725651,0.08871094395901374,0.04165203691795913,0.008918755406615691,0.011772367583442805
0.0367759,0.07442427053965231,0.011145376176795447,0.05110923876558789,0.004383329364374402,0.08949365382035995,0.04183392048588131,0.009172517603875349,0.01188139306757705
0.0372414,0.07556978026160716,0.011264969891101444,0.05143771860326093,0.004542012127564638,0.0902707658660173,0.04201336050711141,0.009425575105068657,0.01198714206496173
0.0377069,0.07672074028411904,0.011383193783171798,0.05175937779074986,0.0047032565536538375,0.09104220173819248,0.042190353253008954,0.009677912855857519,0.012089625463927112
0.0381724,0.07787705218769664,0.011500032883029527,0.052074215389758705,0.004867078989441292,0.09180788416045396,0.04236489569632653,0.009929515860814904,0.012188854951933618
0.0386379,0.07903861609422447,0.011615472511154298,0.0523822322251462,0.005033495418494511,0.09256773694870105,0.04253698550965211,0.010180369181531803,0.012284843005582207
0.0391034,0.08020533068074895,0.011729498282936585,0.05268343087938503,0.005202521451467728,0.09332168502180112,0.042706621063702,0.010430457934706733,0.012377602880391058
0.039569,0.08137709319382293,0.011842096113086195,0.052977815686426254,0.005374172316416367,0.09406965441188823,0.04287380142547012,0.010679767290220488,0.012467148600346978
0.0400345,0.08255379946440941,0.011953252219994295,0.0532653927249706,0.005548462849111333,0.0948115722743155,0.043038526356239754,0.010928282469198837,0.012553494947239764
0.0405,0.08373534392334477,0.012062953130047982,0.053546169811148445,0.005725407483356944,0.09554736689725356,0.04320079630946408,0.011175988742065763,0.012636657449787864
0.0409655,0.08492161961736114,0.012171185681896369,0.053820156490610914,0.005905020241316328,0.09627696771092696,0.04336061242852226,0.011422871426589855,0.012716652372563558
0.041431,0.0861125182256678,0.0122779370306671,0.05408736403003494,0.006087314723848061,0.09700030529647986,0.043517976544357774,0.011668915885926338,0.012793496704725833
0.0418966,0.08730793007709085,0.012383194652132178,0.05434780540804596,0.00627230410085781,0.09771731139446231,0.043672891173005705,0.01191410752665716,0.012867208148569086
0.0423621,0.08850774416777053,0.012486946346821778,0.0546014953055625,0.00646000110166869,0.09842791891292756,0.04382535951301586,0.012158431796831515,0.012937805107895767
0.0428276,0.08971184817941535,0.012589180244084779,0.05484845009556812,0.006650418005414095,0.0991320619351311,0.04397538544277829,0.012401874184009003,0.01300530667622092
0.0432931,0.0909201284981118,0.012689884806094575,0.05508868783231647,0.006843566631456781,0.0998296757268222,0.0441229735177581,0.012644420213307736,0.013069732624816586
0.0437586,0.09213247023368808,0.012789048831798721,0.05532222823997643,0.007039458329838039,0.10052069674311934,0.044268128967646224,0.012886055445459442,0.01313110339060388
0.0442241,0.09334875723963029,0.01288666146081091,0.05554909270072455,0.007238103971760977,0.10120506263496193,0.044410857693432816,0.013126765474873714,0.013189440063900494
0.0446897,0.0945688721335491,0.012982712177243729,0.05576930424229245,0.007439513940112041,0.10188271225513201,0.04455116626440995,0.013366535927713419,0.013244764376031217
0.0451552,0.09579269631819387,0.013077190813480641,0.05598288752497689,0.007643698120025133,0.10255358566384029,0.04468906191510992,0.013605352459983296,0.013297098686808997
0.0456207,0.09702011000301133,0.013170087553885605,0.05618986882812085,0.007850665889492809,0.10321762413387227,0.04482455254218544,0.013843200755633795,0.013346465971893947
0.0460862,0.09825099222624457,0.013261392938448758,0.05639027603607442,0.008060426110029226,0.10387477015529178,0.04495764670123757,0.014080066524682255,0.013392889810037594
0.0465517,0.09948522087756773,0.013351097866366572,0.056584138623645225,0.00827298711738962,0.10452496743970051,0.04508835360359707,0.014315935501353566,0.013436394370219581
0.0470172,0.10072267272125143,0.013439193599554856,0.05677148764104898,0.008488356712351153,0.10516816092405318,0.04521668311306455,0.014550793442242539,0.013477004398683927
0.0474828,0.10196322341985285,0.013525671766092973,0.05695235569837132,0.008706542151560056,0.10580429677402878,0.04534264574261463,0.014784626124500131,0.013514745205881935
0.0479483,0.10320674755842428,0.013610524363597555,0.057126776949552725,0.008927550138449994,0.10643332238695734,0.045466252651069204,0.015017419344045746,0.013549642653328725
0.0484138,0.10445311866923337,0.013693743762524037,0.05729478707590799,0.009151386814236622,0.10705518639430196,0.045587515639744544,0.01524915891380768,0.013581723140380373
0.0488793,0.10570220925698762,0.013775322709394203,0.05745642326919254,0.009378057748993241,0.1076698386636955,0.045706447149076915,0.01547983066199381,0.01361101359093854
0.0493448,0.10695389082455554,0.013855254329947888,0.0576117242142277,0.00960756793281251,0.10827723030053167,0.04582306025523118,0.015709420430394576,0.013637541440089355
0.0498103,0.10820803389917642,0.013933532132216897,0.0577607300710975,0.0098399217670591,0.10887731364910996,0.045937368666696614,0.015937914072720303,0.013661334620683283
0.0502759,0.10946450805914969,0.014010150009519117,0.05790348245692993,0.010075123055718139,0.10947004229333544,0.04604938672087399,0.016165297452974965,0.013682421549862558
0.0507414,0.11072318196099497,0.014085102243370675,0.05804002442727541,0.010313174996844242,0.11005537105697424,0.04615912938065785,0.016391556443868496,0.01370083111554271
0.0512069,0.1119839233670727,0.014158383506313982,0.05817040045709586,0.010554080174115858,0.11063325600346655,0.04626661223101765,0.01661667692526973,0.01371659266285455
0.0516724,0.11324659917365439,0.01422998886465932,0.05829465642137829,0.010797840548499544,0.11120365443529902,0.04637185147558103,0.016840644782702054,0.013729735980553045
0.0521379,0.11451107543943095,0.014299913781137633,0.05841283957538721,0.011044457450028772,0.1117665248929396,0.04647486393322265,0.017063445905883913,0.013740291287399226
0.0526034,0.11577721741444685,0.014368154117462074,0.058524998534570674,0.011293931569701755,0.11232182715333985,0.04657566703466092,0.017285066187316258,0.013748289218521401
0.053069,0.11704488956944635,0.014434706136795808,0.058631183254135015,0.011546262951502727,0.11286952222801197,0.04667427881906548,0.017505491520919198,0.013753760811761745
0.0535345,0.11831395562561763,0.014499566506123468,0.05873144500830366,0.011801450984551069,0.1134095723606894,0.04677071793067728,0.017724707800720163,0.013756737494014331
0.054,0.11958427858471994,0.014562732298523624,0.05882583636927486,0.012059494395382652,0.1139419410245818,0.046865003615443206,0.017942700919595832,0.013757251067560605
0.0544655,0.12085572075957828,0.01462420099533954,0.05891441118589354,0.012320391240367622,0.11446659291923646,0.04695715571766659,0.01815945676807017,0.013755333696408155
0.054931,0.12212814380492946,0.014683970488245433,0.05899722456205182,0.012584138898268928,0.11498349396701926,0.047047194676674564,0.01837496123317077,0.013751017892638663
0.0553966,0.12340140874860368,0.014742039081205374,0.0590743328348328,0.012850734062945797,0.11549261130923026,0.047135141523502865,0.018589200197345702,0.013744336502770708
0.0558621,0.1246753760230247,0.01479840549232193,0.05914579355241147,0.013120172736206314,0.11599391330186865,0.04722101787759842,0.018802159537443103,0.01373532269414308
0.0563276,0.1259499054970123,0.014853068855571569,0.05921166545172669,0.013392450220813283,0.11648736951106275,0.047304845943539495,0.019013825123755775,0.013724009941324137
0.0567931,0.12722485650786994,0.014906028722423846,0.05927200843593723,0.013667561113647402,0.11697295070817962,0.0473866485077727,0.019224182819133212,0.013710432012552577
0.0572586,0.12850008789374012,0.014957285063341355,0.05932688355167476,0.013945499299031829,0.11745062886462886,0.0474664489353662,0.019433218478163594,0.013694622956214915
0.0577241,0.1297754580262094,0.01500683826915754,0.05937635296610599,0.014226257942222096,0.11792037714637561,0.04754427116677776,0.019640917946428384,0.013676617087364824
0.0581897,0.1310508248431451,0.015054689152329428,0.059420479943816266,0.014509829483065215,0.11838216990817692,0.04762013971463618,0.019847267059832308,0.01365644897428938
0.0586552,0.1323260458817445,0.015100838948062613,0.05945932882352634,0.014796205629831789,0.1188359826875555,0.04769407966053456,0.0200522516440115,0.013634153425127164
0.0591207,0.13360097831177772,0.01514528931530594,0.059492964994654084,0.015085377353224842,0.11928179219852461,0.047766116651833154,0.020255857513822723,0.013609765474543045
0.0595862,0.13487547896900468,0.015188042337613603,0.05952145487373325,0.015377334880568964,0.1197195763250761,0.04783627689847008,0.020458070472916298,0.013583320370464344
0.0600517,0.13614940438874612,0.015229100523872628,0.05954486588070137,0.01567206769018332,0.12014931411444373,0.047904587169777,0.020658876313395632,0.013554853560883016
0.0605172,0.1374226108395897,0.015268466808894043,0.059563266415069135,0.015969564505941985,0.12057098577015246,0.04797107479129765,0.020858260815565854,0.013524400680728348
0.0609828,0.13869495435721066,0.015306144553866306,0.05957672583198375,0.01626981329202495,0.12098457264486413,0.0480357676416061,0.02105620974777407,0.013491997538814611
0.0614483,0.13996629077828715,0.015342137546669778,0.059585314418198504,0.016572801247863204,0.1213900572330289,0.048098694149122,0.021252708866343586,0.013457680104868005
0.0619138,0.1412364757744903,0.015376450002051394,0.05958910336796087,0.016878514803281116,0.12178742316335177,0.048159883288919285,0.021447743915604344,0.013421484496637097
0.0623793,0.1425053648865276,0.01540908656165881,0.05958816475883091,0.01718693961383941,0.12217665519108291,0.04821936457952542,0.021641300628021696,0.013383446967090899
0.0628448,0.14377281355821894,0.015440052293933536,0.05958257152744179,0.017498060556381825,0.12255773919013994,0.04827716807970759,0.021833364724425437,0.013343603891708555
0.0633103,0.14503867717058408,0.015469352693862667,0.059572397445213664,0.017811861724788488,0.1229306621450702,0.048333324385242536,0.022023921914341008,0.013301991755864571
0.0637759,0.14630281107591916,0.015496993682588918,0.059557717094031834,0.018128326425938996,0.1232954121428601,0.0483878646256668,0.022212957896424558,0.013258647142313352
0.0642414,0.1475650706318408,0.015522981606878589,0.05953860584189995,0.018447437175887982,0.1236519783645986,0.04844082046100341,0.022400458359003495,0.013213606718776713
0.0647069,0.1488253112352759,0.015547323238447095,0.05951513981857871,0.018769175696255812,0.12400035107700169,0.04849222407846124,0.022586408980724105,0.013166907225637944
0.0651724,0.15008338835637616,0.01557002577314161,0.05948739589122042,0.019093522910837084,0.12434052162380471,0.04854210818910283,0.02277079543130783,0.013118585463745893
0.0656379,0.1513391575723365,0.015591096829980213,0.05945545164000968,0.019420458942429424,0.1246724824170285,0.04859050602447683,0.022953603372417922,0.01306867828233241
0.0661034,0.1525924746010976,0.015610544450046901,0.05941938533382085,0.019749963109885166,0.12499622692812634,0.04863745133321088,0.023134818458638226,0.013017222567046474
0.066569,0.1538431953349125,0.01562837709524164,0.059379275905902806,0.020082013925388397,0.12531174967901834,0.04868297837756177,0.023314426338566088,0.012964255228108169
0.0670345,0.15509117587375848,0.015644603646884626,0.059335202929601615,0.020416589091959966,0.12561904623302092,0.0487271219299194,0.023492412656021564,0.012909813188585638
0.0675,0.15633627255857427,0.015659233404173786,0.059287246594132134,0.020753665501193116,0.12591811318568,0.048769917269261505,0.023668763051375157,0.012853933372798016
0.0679655,0.15757834200430582,0.01567227608249449,0.05923548768040928,0.02109321923122249,0.12620894815551606,0.04881140017755595,0.023843463162996535,0.012796652694847274
0.068431,0.15881724113274487,0.015683741811580276,0.059180007536949894,0.02143522554492918,0.12649154977468985,0.048851606936107066,0.024016498628826606,0.012738008047281816
0.0688966,0.16005282720514824,0.01569364113352347,0.05912088805585584,0.02177965888838473,0.12676591767959716,0.04889057432184244,0.024187855088075454,0.012678036289894577
0.0693621,0.16128495785462924,0.01570198500063437,0.05905821164888903,0.022126492889536786,0.12703205250140076,0.048928339603535785,0.024357518183048595,0.012616774238658273
0.0698276,0.16251349111831648,0.015708784773147765,0.058992061223648515,0.02247570035713917,0.12728995585650757,0.048964940537961514,0.02452547356110401,0.012554258654800369
0.0702931,0.16373828546927952,0.015714052216775604,0.05892252015985949,0.022827253279929065,0.12753963033699972,0.049000415365976026,0.024691706876742357,0.012490526234020255
0.0707586,0.1649591998482224,0.01571779950010462,0.058849672285784145,0.023181122826053883,0.12778107950102793,0.04903480280852046,0.024856203793832615,0.012425613595851029
0.0712241,0.1661760936949498,0.015720039191837877,0.05877360185476341,0.02353727934275035,0.12801430786317602,0.049068142062539385,0.025018949987975277,0.012359557273168207
0.0716897,0.16738882697961047,0.015720784257879296,0.05869439352189857,0.023895692356278277,0.12823932088480577,0.049100472796809666,0.025179931149005224,0.012292393701847582
0.0721552,0.16859726023372465,0.015720048058260307,0.05861213232088108,0.02425633057211147,0.12845612496439004,0.04913183514767372,0.025339132983636284,0.012224159210574351
0.0726207,0.16980125458100045,0.01571784434390797,0.05852690364097839,0.02461916187538807,0.12866472742784157,0.04916226971467094,0.02549654121824939,0.012154890010805563
0.0730862,0.1710006717679452,0.015714187253254092,0.05843879320418344,0.024984153331622513,0.1288651365188449,0.049191817556061036,0.025652141601826293,0.012084622186887783
0.0735517,0.17219537419427638,0.015709091308685023,0.05834788704253482,0.025351271187681185,0.12905736138919793,0.049220520184232425,0.025805919909030774,0.012013391686331814
0.0740172,0.173385224943135,0.015702571412832166,0.058254271475614176,0.025720480873023893,0.12924141208916948,0.049248419560988986,0.025957861943439135,0.011941234310246162
0.0744828,0.1745700878111039,0.015694642844703344,0.05815803308822732,0.02609174700121283,0.1294172995578785,0.049275558092707866,0.02610795354092193,0.011868185703930894
0.0749483,0.17574982733803252,0.01568532125565549,0.0580592587082749,0.026465033371690656,0.12958503561370133,0.049301978625361044,0.026256180573178693,0.011794281347633377
0.0754138,0.17692430883666718,0.015674622665209324,0.0579580353848183,0.026840302971829173,0.12974463294471217,0.04932772443939287,0.02640252895142739,0.011719556547467282
0.0758793,0.17809339842208652,0.015662563456706958,0.05785445036634584,0.02721751797925004,0.12989610509916372,0.049352839244446126,0.02654698463025014,0.011644046426496173
0.0763448,0.17925696304093955,0.01564916037281359,0.05774859107924392,0.027596639764418767,0.13003946647601353,0.049377367173928405,0.026689533611596584,0.011567785915982913
0.0768103,0.18041487050048452,0.015634430510864834,0.057640545106477536,0.027977628893513254,0.13017473231550358,0.049401352779410754,0.02683016194894626,0.011490809746805952
0.0772759,0.1815669894974248,0.015618391318061347,0.05753040016648371,0.028360445131568175,0.13030191868980084,0.04942484102485001,0.026968855751630952,0.011413152441043531
0.0777414,0.18271318964653785,0.015601060586512824,0.05741824409228118,0.028745047445896545,0.13042104249370792,0.049447877280626475,0.027105601189318068,0.011334848303726712
0.0782069,0.1838533415090918,0.015582456448133594,0.05730416481079927,0.02913139400978984,0.13053212143545329,0.049470507317388585,0.027240384496655914,0.011255931414762055
0.0786724,0.1849873166210449,0.015562597369392273,0.05718825032242836,0.029519442206498096,0.13063517402756988,0.04949277729969672,0.027373191978081506,0.011176435621024695
0.0791379,0.1861149875210203,0.015541502145918143,0.057070588680794204,0.029909148633491412,0.13073021957787104,0.049514733779458746,0.027504010012791652,0.011096394528622466
0.0796034,0.18723622777804924,0.015519189896966948,0.05695126797275824,0.03030046910700443,0.13081727818053104,0.04953642368915026,0.027632825059877852,0.01101584149533164
0.080069,0.18835091201907472,0.015495680059748978,0.05683037629864533,0.030693358666865345,0.13089637070727786,0.049557894334813356,0.02775962366362571,0.010934809623204792
0.0805345,0.18945891595620637,0.01547099238362231,0.05670800175270068,0.03108777158161111,0.1309675187987044,0.0495791933888281,0.0278843924589796,0.01085333175135119
0.081,0.19056011641371684,0.015445146924154123,0.05658423240377694,0.031483661353890594,0.13103074485570468,0.049600368882451354,0.02800711817717337,0.010771440448890073
0.0814655,0.19165439135477016,0.015418164037052992,0.056459156276252455,0.031880980726157464,0.13108607203104053,0.049621469198118114,0.028127787651527954,0.01068916800807703
0.081931,0.19274161990787128,0.015390064371975052,0.05633286133118137,0.03227968168665471,0.1311335242210447,0.0496425430615009,0.028246387823416593,0.010606546437603675
0.0823966,0.19382168239302608,0.015360868866206854,0.05620543544767596,0.03267971547569278,0.13117312605746476,0.049663639533322396,0.028362905748398486,0.010523607456070762
0.0828621,0.19489446034760202,0.015330598738227674,0.05607696640452137,0.03308103259222328,0.13120490289945236,0.04968480800091684,0.028477328602521185,0.01044038248563474
0.0833276,0.19595983655187882,0.01529927548115387,0.05594754186202336,0.033483582800710315,0.13122888082570228,0.049706098169536084,0.028589643688792143,0.010356902645827734
0.0837931,0.1970176950542797,0.015266920856067904,0.055817249344089374,0.033887315138301385,0.1312450866267444,0.04972756005339656,0.02869983844381948,0.010273198747550864
0.0842586,0.19806792119627412,0.01523355688523448,0.05568617622054345,0.034292177922299695,0.13125354779739223,0.04974924396646422,0.02880790044462188,0.010189301287240791
0.0847241,0.1991104016369429,0.01519920584520623,0.05555440968967554,0.03469811875793941,0.13125429252935014,0.04977120051297552,0.028913817415607446,0.010105240441209336
0.0851897,0.20014502437719897,0.015163890259821407,0.055422036761025445,0.03510508454646544,0.1312473497039808,0.04979348057769352,0.02901757723572115,0.010021046060155987
0.0856552,0.20117167878365694,0.015127632893095974,0.05528914423840148,0.0355130214935188,0.1312327488852339,0.049816135315899054,0.029119167945760333,0.009936747663853128
0.0861207,0.20219025561214543,0.015090456742012568,0.05515581870313355,0.03592187511782888,0.13121052031273575,0.04983921614311766,0.029218577755857768,0.009852374436003753
0.0865862,0.20320064703085658,0.0150523850292088,0.05502214649756031,0.03633159026021324,0.13118069489503908,0.04986277472458391,0.02931579505313159,0.009767955219271424
0.0870517,0.20420274664312735,0.015013441195567507,0.054888213708749925,0.03674211109288611,0.1311433042030318,0.049886862964445215,0.02941080840950123,0.009683518510482178
0.0875172,0.20519644950984706,0.014973648892711631,0.05475410615245377,0.03715338112907614,0.13109838046350392,0.04991153299470778,0.029503606589668406,0.009599092455998028
0.0879828,0.20618165217148351,0.014933031975406524,0.05461990935729307,0.037565343232954206,0.13104595655287163,0.04993683716392818,0.029594178559262004,0.009514704847261694
0.0884483,0.20715825266972077,0.01489161449387261,0.054485708549178086,0.03797793962987206,0.1309860659910582,0.049962828025654105,0.02968251349314545,0.009430383116512175
0.0889138,0.20812615056870032,0.014849420686011468,0.054351588635959985,0.03839111191691241,0.13091874293553094,0.0499895583266186,0.029768600783885008,0.009346154332670754
0.0893793,0.2090852469758569,0.014806474969548556,0.054217634192315775,0.03880480107375126,0.13084402217549293,0.05001708099469218,0.029852430050377174,0.009262045197396991
0.0898448,0.2100354445623395,0.014762801934095897,0.05408392944486688,0.03921894747383336,0.1307619391262277,0.050045449126598154,0.029933991146633008,0.009178082041314234
0.0903103,0.2109766475830074,0.014718426333138301,0.053950558257531894,0.03963349089586135,0.13067252982359415,0.05007471597539617,0.030013274170717173,0.009094290820404105
0.0907759,0.21190876189599006,0.014673373075946718,0.05381760411711403,0.0400483705355994,0.13057583091866765,0.05010493493773971,0.03009026947383908,0.00901069711256933
0.0912414,0.21283169498179746,0.014627667219422498,0.05368515011912392,0.040463525017991636,0.13047187967252283,0.050136159540912696,0.030164967669593357,0.008927326114364212
0.0917069,0.21374535596196753,0.014581333959876416,0.053553278953837886,0.040878892409595795,0.1303607139511524,0.05016844342965059,0.030237359643346826,0.008844202637892006
0.0921724,0.21464965561723545,0.014534398624746318,0.053422072892591495,0.04129441023133168,0.1302423722205153,0.05020184035275054,0.030307436561768892,0.008761351107868354
0.0926379,0.2155445064052083,0.014486886664257364,0.0532916137743078,0.041710015471544126,0.13011689354170705,0.05023640414947513,0.030375189882502266,0.008678795558849919
0.0931034,0.2164298224775284,0.014438823643028826,0.0531619829922594,0.0421256445993796,0.12998431756624393,0.05027218873575411,0.0304406113639706,0.008596559632627288
0.093569,0.21730551969650683,0.014390235231631424,0.05303326148106309,0.042541233578475245,0.12984468453145184,0.050309248090188115,0.030503693075319596,0.008514666575781172
0.0940345,0.21817151565120893,0.014341147198099237,0.0529055297039059,0.042956717880958804,0.1296980352559504,0.050347636239858655,0.030564427406487883,0.008433139237400914
0.0945,0.21902772967297376,0.014291585399400283,0.05277886764000143,0.04337203250175756,0.12954441113522133,0.05038740724594887,0.030622807078403785,0.008352000066964222
0.0949655,0.21987408285035012,0.014241575772869787,0.05265335477227554,0.04378711197321392,0.1293838541372503,0.050428615189179876,0.030678825153303904,0.00827127111237706
0.095431,0.22071049804343493,0.014191144327610206,0.05252907007528115,0.044201890380005326,0.12921640679822957,0.05047131415506785,0.030732475045169086,0.008190974018172554
0.0958966,0.22153689989760111,0.014140317135862097,0.052406092003341995,0.04461630137436535,0.12904211221830975,0.05051555821900696,0.030783750530273307,0.008111130023867779
0.0963621,0.22235321485660586,0.01408912032434986,0.052284498478925676,0.045030278191603136,0.12886101405738765,0.05056140143118342,0.030832645757840733,0.00803175996247721
0.0968276,0.22315937117507043,0.014037580065606304,0.05216436688124634,0.04544375366591752,0.12867315653091785,0.05060889780132527,0.03087915526080603,0.007952884259181602
0.0972931,0.22395529893032548,0.01398572256928007,0.052045774035097324,0.045856660246502035,0.1284785844057352,0.050658101283292394,0.03092327396667284,0.007874522930151003
0.0977586,0.2247409300336174,0.013933574073429838,0.05192879619991395,0.046268930013937046,0.12827734299587662,0.05070906575951114,0.030964997208465267,0.00779669558152054
0.0982241,0.22551619824067312,0.013881160835809264,0.051813509059066655,0.04668049469686448,0.12806947815839073,0.05076184502525762,0.031004320735767248,0.007719421408517507
0.0986897,0.22628103916162182,0.013828509125146602,0.051699987709384124,0.04709128568894074,0.12785503628912565,0.050816492772793834,0.031041240725844535,0.007642719194738315
0.0991552,0.22703539027027345,0.013775645212422926,0.05158830665090651,0.04750123406606326,0.12763406431848692,0.05087306257536086,0.031075753794844226,0.00756660731157372
0.0996207,0.22777919091275525,0.013722595362152869,0.05147853977686831,0.0479102706038656,0.12740660970716006,0.05093160787103334,0.03110785700906664,0.007491103717780752
0.1000862,0.22851238231550766,0.013669385823671823,0.05137076036391084,0.048318325795476236,0.1271727204417925,0.05099218194643935,0.031137547896304362,0.007416225959199728
0.1005517,0.22923490759264142,0.013616042822433417,0.05126504106252453,0.048725329869535615,0.12693244503063164,0.05105483792034952,0.031164824457243057,0.007341991168614691
0.1010172,0.229946711752657,0.013562592551321124,0.05116145388772144,0.04913121280846581,0.126685832499116,0.05111962872713917,0.031189685176918627,0.007268416065755591
0.1014828,0.2306477417045272,0.013509061161977726,0.051060070209938836,0.04953590436698672,0.12643293238541878,0.051186607100126985,0.0312121290362252,0.007195516957440463
0.1019483,0.23133794626314244,0.01345547475615632,0.05096096074617499,0.04993933409087269,0.1261737947359436,0.051255825554793924,0.03123215552346819,0.0071233097378558385
0.1024138,0.232017276154116,0.013401859377096415,0.05086419555135858,0.05034143133594289,0.12590847010077305,0.051327336371885884,0.031249764645956888,0.007051809888973575
0.1028793,0.23268568401794607,0.01334824100092859,0.05076984400995332,0.05074212528727874,0.1256370095290711,0.05140119158040376,0.0312649569416309,0.006981032481102245
0.1033448,0.23334312441352925,0.013294645528111089,0.050677974827799344,0.051141344978661525,0.12535946456443967,0.05147744294048442,0.031277733490714686,0.006910992173571247
0.1038103,0.2339895538210184,0.013241098774901601,0.05058865602419284,0.05153901931222279,0.12507588724023075,0.05155614192617644,0.03128809592739442,0.006841703215545783
0.1042759,0.2346249306440176,0.013187626464867475,0.05050195492420522,0.051935077078300224,0.12478633007481388,0.051637339708114384,0.03129604645151124,0.006773179446970833
0.1047414,0.2352492152111055,0.013134254220437408,0.05041793815124359,0.05232944697549124,0.12449084606679979,0.05172108713609562,0.03130158784026484,0.006705434299642269
0.1052069,0.23586236977667965,0.01308100755449767,0.05033667161985406,0.052722057630896706,0.12418948869021992,0.051807434721563766,0.03130472345992126,0.006638480798403189
0.1056724,0.2364643585211136,0.01302791186203586,0.05025822052877028,0.05311283762054704,0.12388231188966266,0.05189643262000326,0.03130545727751856,0.006572331562463526
0.1061379,0.23705514755022114,0.012974992411835083,0.05018264935420924,0.053501715490002766,0.12356937007536713,0.05198813061325019,0.03130379387256406,0.006506998806840954
0.1066034,0.23763470489402133,0.01292227433822142,0.050110021843416765,0.05388861977512142,0.1232507181182769,0.052082578091725534,0.03129973844871658,0.006442494343921024
0.107069,0.23820300050480034,0.012869782632867558,0.05004040100846452,0.05427347902298259,0.12292641134505622,0.052179824036598176,0.031293296845447134,0.006378829585134479
0.1075345,0.23876000625446792,0.012817542136655341,0.04997384912030066,0.0546562218129624,0.12259650553307176,0.05227991700188599,0.03128447554967139,0.006316015542749625
0.108,0.23930569593120787,0.01276557753160008,0.049910427703055635,0.055036776777948555,0.12226105690534343,0.05238290509650431,0.03127328170734704,0.006254062831777574
0.1084655,0.23984004523542388,0.012713913332839376,0.049850197528604465,0.055415072625686644,0.12192012212546818,0.05248883596627167,0.03125972313502931,0.006192981671988203
0.108931,0.2403630317749839,0.012662573880689275,0.04979321861138653,0.05579103816024781,0.12157375829252197,0.05259775677588292,0.031243808331377833,0.006132781890034585
0.1093966,0.24087463505976864,0.012611583332770591,0.04973955020348343,0.056164602303607716,0.12122202293594528,0.052709714190860006,0.03122554648860822,0.006073472921683608
0.1098621,0.2413748364955308,0.012560965656208274,0.049689250789955376,0.05653569411732601,0.12086497401041825,0.05282475435949028,0.031204947503881624,0.0060150638141504694
0.1103276,0.24186361937707312,0.012510744619906762,0.04964237808443606,0.056904242824315464,0.12050266989073072,0.05294292289476228,0.031182021990625412,0.005957563228534687
0.1107931,0.242340968880756,0.012460943786904356,0.04959898902498549,0.057270177830689654,0.12013516936665262,0.05306426485630861,0.03115678128977809,0.005900979442355232
0.1112586,0.24280687205634438,0.012411586506809671,0.04955913977019982,0.05763342874767749,0.11976253163780962,0.05318882473236531,0.031129237480951397,0.005845320352182364
0.1117241,0.24326131781820534,0.012362695908323335,0.0495228856955772,0.05799392541359307,0.1193848163085683,0.05331664642175726,0.031099403393502513,0.005790593476363698
0.1121897,0.24370429693586898,0.012314294891848087,0.04949028139013778,0.0583515979158491,0.11900208338293533,0.053447773215919016,0.031067292617509103,0.005736805957842053
0.1126552,0.2441358020239649,0.012266406122190482,0.04946138065329613,0.05870637661300184,0.11861439325947377,0.053582247780960254,0.031032919514640125,0.005683964567062623
0.1131207,0.24455582753154656,0.012219052021357405,0.049436236491983844,0.05905819215681539,0.11822180672623983,0.05372011213978499,0.030996299228915235,0.005632075704966935
0.1135862,0.24496436973081526,0.012172254761450584,0.04941490111801968,0.05940697551433345,0.11782438495574286,0.05386140765427329,0.030957447697345722,0.005581145406071116
0.1140517,0.24536142670525538,0.012126036257662277,0.049397425945724514,0.05975265798994617,0.11742218949993073,0.05400617500753466,0.03091638166044982,0.005531179341625899
0.1145172,0.24574699833719177,0.012080418161375285,0.04938386158977806,0.06009517124743986,0.11701528228520164,0.054154454186241985,0.030873118672635553,0.005482182822855813
0.1149828,0.24612108629477908,0.012035421853370353,0.04937425786331408,0.06043444733201774,0.11660372560744353,0.05430628446305542,0.030827677112444083,0.005434160804274999
0.1154483,0.24648369401843312,0.011991068437143993,0.04936866377625093,0.06077041869227934,0.11618758212710062,0.05446170437914549,0.03078007619264693,0.005387117887077099
0.1159138,0.24683482670671222,0.011947378732339677,0.04936712753385425,0.06110301820214679,0.1157669148642663,0.054620751726825074,0.03073033597019035,0.005341058322596646
0.1163793,0.24717449130165595,0.011904373268295182,0.04936969653552849,0.06143217918272614,0.11534178719380067,0.05478346353229938,0.030678477355980418,0.005295986015839407
0.1168448,0.24750269647358825,0.011862072277708878,0.049376417373834317,0.06175783542409177,0.11491226284047011,0.054949876038543274,0.030624522124502424,0.005251904529079129
0.1173103,0.24781945260538976,0.011820495690427573,0.04938733583372849,0.06207992120698243,0.11447840587410527,0.055120024688314534,0.030568492923268277,0.005208817085518095
0.1177759,0.24812477177624262,0.011779663127358477,0.04940249689202282,0.06239837132439727,0.11404028070477361,0.05529394410731208,0.030510413282085803,0.0051667265730088825
0.1182414,0.24841866774485033,0.011739593894507665,0.049421944717058186,0.06271312110308042,0.11359795207796149,0.05547166808748788,0.030450307622143662,0.005125635547834721
0.1187069,0.24870115593213407,0.011700306977147454,0.049445722668589626,0.06302410642488271,0.11315148506976042,0.055653229570522,0.030388201264905913,0.00508554623854584
0.1191724,0.2489722534034067,0.011661821034114901,0.049473873297877835,0.06333126374798899,0.1127009450820517,0.055838660631470395,0.03032412044081007,0.0050464605498492035
0.1196379,0.2492319788500247,0.0116241543922436,0.04950643834798209,0.06363453012799929,0.11224639783768277,0.05602799246259524,0.0302580922977625,0.0050083800665491115
0.1201034,0.24948035257051862,0.011587325040930838,0.04954345875424911,0.06393384323885204,0.1117879093756284,0.0562212553573877,0.030190144909425065,0.004971306057536168
0.120569,0.2497173964512002,0.011551350626842115,0.04958497464499231,0.06422914139357713,0.11132554604612874,0.05641847869479328,0.030120307283286598,0.004935239479822157
0.1210345,0.24994313394624518,0.011516248448754937,0.049631025342355355,0.06452036356486619,0.11085937450579628,0.05661969092364989,0.030048609368512884,0.004900180982618448
0.1215,0.2501575900572503,0.011482035452543707,0.04968164936335397,0.06480744940544705,0.11038946171268287,0.056824919547349154,0.029975082063568515,0.004866130911455566
0.1219655,0.2503607913122643,0.01144872822630748,0.04973688442108974,0.06509033926824916,0.10991587492129715,0.05703419110873123,0.029899757223603784,0.004833089312341604
0.122431,0.25055276574429475,0.011416342995642243,0.04979676742612976,0.06536897422634631,0.10943868167756289,0.05724753117522361,0.029822667667599678,0.004801055935957191
0.1228966,0.25073354286929556,0.011384895619059305,0.04986133448804662,0.06564329609266338,0.10895794981370754,0.057464964324233744,0.02974384718526375,0.0047700302418847524
0.1233621,0.25090315366364363,0.011354401583551265,0.049930620917113595,0.0659132474394336,0.10847374744307038,0.05768651412880546,0.029663330543669576,0.004740011402869792
0.1238276,0.2510616305411154,0.01132487600030704,0.05000466122615035,0.0661787716173937,0.10798614295481888,0.05791220314354849,0.029581153493632384,0.004710998309112017
0.1242931,0.2512090073293769,0.011296333600577255,0.05008348913251478,0.06643981277470457,0.10749520500856173,0.05814205289085036,0.029497352775813373,0.004682989572584119
0.1247586,0.2513453192460019,0.01126878873169133,0.050167137560237315,0.06669631587558535,0.10700100252884649,0.05837608384737991,0.029411966126545324,0.004655983531376059
0.1252241,0.25147060287403356,0.01124225535322753,0.05025563864229321,0.06694822671865022,0.1065036046995293,0.05861431543089164,0.029325032283372122,0.004629978254062735
0.1256897,0.25158489613710616,0.011216747033337115,0.05034902372300882,0.06719549195493693,0.10600308095800344,0.058856765987340146,0.029236590990294894,0.0046049715440929
0.1261552,0.2516882382741436,0.011192276945223758,0.050447323360597304,0.06743805910561716,0.10549950098927335,0.05910345277831406,0.02914668300271758,0.004580960944197187
0.1266207,0.25178066981365277,0.01116885786377929,0.05055056732981943,0.06767587657937933,0.10499293471985947,0.0593543919687989,0.029055350092085035,0.004557943740813079
0.1270862,0.2518622325476312,0.011146502162376788,0.050658784624765224,0.06790889368947498,0.10448345231151931,0.059609598615278196,0.028962635050207044,0.004535916968524685
0.1275517,0.25193296950511046,0.011125221809821895,0.0507720034617524,0.06813706067042045,0.10397112415476946,0.05986908665418208,0.028868581693261845,0.00451487741451512
0.1280172,0.2519929249253573,0.011105028367463273,0.05089025128233779,0.06836032869434665,0.1034560208621929,0.06013286889069283,0.028773234865473046,0.004494821623029391
0.1284828,0.2520421442307555,0.011085932986462972,0.05101355475643785,0.06857864988698985,0.10293821326151639,0.06040095698791639,0.028676640442454143,0.004475745899845637
0.1289483,0.2520806739993923,0.011067946405227503,0.0511419397855547,0.06879197734331832,0.10241777238844231,0.06067336145642923,0.028578845334215078,0.004457646316752659
0.1294138,0.25210856193737224,0.011051078947000291,0.051275431506103517,0.069000265142789,0.10189476947921995,0.06095009164421027,0.028479897487825773,0.00444051871603165
0.1298793,0.25212585685088057,0.011035340517616229,0.051414054292837325,0.0692034683642298,0.10136927596294151,0.06123115572696745,0.028379845889731824,0.0044243587149401
0.1303448,0.2521326086180181,0.011020740603418953,0.05155783176236513,0.06940154310034291,0.10084136345354824,0.06151656069886864,0.028278740567718254,0.004409161710195864
0.1308103,0.2521288681604256,0.011007288269341475,0.05170678677675893,0.06959444647182444,0.1003111037415332,0.0618063123636866,0.028176632592517546,0.0043949228824594275
0.1312759,0.25211468741471565,0.01099499215715071,0.05186094144724514,0.0697821366410956,0.09977856878532823,0.06210041532636707,0.028073574079058763,0.004381637200812445
0.1317414,0.25209011930372827,0.010983860483856432,0.05202031713797557,0.06996457282563996,0.09924383070236448,0.062398872985029726,0.02796961818735497,0.004369299427230638
0.1322069,0.2520552177076243,0.010973901040285101,0.05218493446987297,0.07014171531094163,0.09870696175979626,0.06270168752341068,0.027864819123026307,0.004357904121049231
0.1326724,0.2520100374348301,0.010965121189818983,0.05235481332454584,0.07031352546301876,0.0981680343648797,0.06300885990375596,0.02775923213745637,0.004347445643419094
0.1331379,0.25195463419284614,0.010957527867300948,0.05252997284826715,0.07047996574054716,0.09762712105499914,0.06332038986017448,0.02765291352757952,0.004337918161751891
0.1336034,0.2518890645589323,0.010951127578105234,0.052710431456011626,0.07064099970656845,0.09708429448733559,0.06363627589245927,0.027545920635296692,0.004329315654152533
0.134069,0.2518133859506816,0.01094592639737444,0.05289620683554616,0.07079659203977821,0.09653962742817425,0.06395651526038496,0.027438311846517356,0.004321631913837378
0.1345345,0.2517276565964958,0.010941929969422937,0.05308731595156803,0.07094670854538909,0.09599319274184964,0.06428110397848937,0.02733014658982503,0.004314860553536613
0.135,0.25163193550597684,0.010939143507306766,0.053283775049885594,0.07109131616556476,0.09544506337932843,0.06461003681134653,0.02722148533476371,0.004308995009879291
0.1354655,0.25152628244024866,0.010937571792560115,0.053485599661636206,0.07123038298942114,0.09489531236643116,0.06494330726933774,0.027112389589742398,0.00430402854775955
0.135931,0.2514107578822269,0.010937219175098259,0.05369280460753615,0.07136387826259126,0.09434401279169587,0.06528090760492701,0.027002921899554624,0.004299954264682492
0.1363966,0.2512854230068538,0.010938089573286798,0.053905404002157334,0.07149177239635152,0.09379123779388833,0.06562282880944652,0.026893145842509677,0.00429676509508837
0.1368621,0.2511503396513181,0.010940186474176945,0.054123411258225534,0.07161403697630714,0.09323706054916628,0.06596906061039719,0.026783126027172102,0.004294453814653728
0.1373276,0.2510055702852779,0.010943512933906493,0.054346839090935094,0.07173064477063568,0.09268155425790679,0.06631959146926934,0.026672928088705812,0.004293013044568301
0.1377931,0.25085117798110657,0.010948071578266067,0.054575699522275,0.07184156973788774,0.09212479213120797,0.06667440857988731,0.02656261868481894,0.004292435255786517
0.1382586,0.25068722638417945,0.010953864603430176,0.05481000388536093,0.07194678703434483,0.09156684737707782,0.06703349786728187,0.026452265491305707,0.00429271277325255
0.1387241,0.2505137796832196,0.010960893776852523,0.055049762828767855,0.072046273020935,0.09100779318632435,0.06739684398709381,0.026341937197181368,0.004293837780097893
0.1391897,0.2503309025807185,0.010969160438325024,0.05529498632085723,0.07214000526970744,0.09044770271816302,0.06776443032551102,0.026231703499406504,0.004295802321810462
0.1396552,0.25013866026344905,0.010978665501199936,0.05554568365409249,0.07222796256986777,0.08988664908555888,0.0681362389997417,0.026121635097197064,0.004298598310374371
0.1401207,0.24993711837308707,0.010989409453774482,0.05580186344933624,0.07231012493337635,0.08932470534032122,0.06851225085902539,0.026011803685916587,0.004302217528379549
0.1405862,0.24972634297695978,0.011001392360837307,0.05606353366012209,0.07238647360011255,0.088761944457969,0.06889244548618378,0.025902281950547352,0.004306651633100487
0.1410517,0.24950640053893994,0.011014613865376048,0.05633070157689403,0.0724569910426079,0.08819843932238532,0.06927680119971252,0.025793143558737058,0.004311892160543399
0.1415172,0.24927735789050623,0.011029073190445288,0.05660337383120603,0.07252166097035184,0.08763426271027915,0.06966529505641555,0.025684463153417905,0.004317930529461146
0.1419828,0.24903928220199087,0.011044769141194141,0.05688155639987423,0.07258046833367332,0.08706948727547217,0.07005790285458291,0.02557631634499499,0.004324758045335265
0.1424483,0.248792240954036,0.0110617001070527,0.05716525460907435,0.0726333993272019,0.08650418553302877,0.07045459913771267,0.025468779703101078,0.004332365904324524
0.1429138,0.24853630190928125,0.011079864064076609,0.057454473138376795,0.07268044139291142,0.08593842984324661,0.07085535719877745,0.025361930747914853,0.00434074519717945
0.1433793,0.24827153308430372,0.011099258577448977,0.05774921602471156,0.07272158322274931,0.0853722923955258,0.07126014908503524,0.02525584794103986,0.0043498869131223415
0.1438448,0.2479980027218309,0.01111988080413888,0.05804948666625556,0.07275681476085409,0.08480584519213416,0.07166894560338377,0.02515061067594127,0.004359781943692317
0.1443103,0.24771577926324692,0.01114172749571565,0.058355287826235155,0.07278612720536372,0.08423916003188564,0.07208171632625716,0.025046299267937642,0.004370421086554966
0.1447759,0.2474249313214109,0.01116479500131815,0.05866662163663717,0.0728095130098172,0.08367230849374907,0.07249842959806325,0.024942994943744703,0.0043817950492761725
0.1452414,0.2471255276538053,0.011189079270778087,0.05898348960182216,0.07282696588415229,0.08310536192040435,0.07291905254215914,0.024840779830568295,0.004393894453059684
0.1457069,0.24681763713603283,0.011214575857896446,0.05930589260203399,0.0728384807953027,0.08253839140176228,0.07334355106836205,0.02473973694474357,0.00440670983644799
0.1461724,0.24650132873568137,0.011241279923872034,0.05963383089679998,0.07284405396739811,0.08197146775846433,0.07377188988099258,0.024639950179917467,0.0044202316589860985
0.1466379,0.24617667148657726,0.011269186240881048,0.059967304128215417,0.07284368288157132,0.08140466152537837,0.07420403248744632,0.024541504294771664,0.004434450304847799
0.1471034,0.24584373446344704,0.011298289195806608,0.06030631132410627,0.07283736627537704,0.08083804293510588,0.07463994120729087,0.024444484900283035,0.004449356086423981
0.147569,0.24550258675700717,0.011328582794117087,0.06065085090106314,0.07282510414182762,0.08027168190151568,0.07507957718188452,0.02434897844651895,0.004464939247872614
0.1480345,0.24515329744950007,0.011360060663892033,0.06100092066733926,0.07280689772805146,0.07970564800331871,0.07552290038451354,0.02425507220896478,0.004481189968630035
0.1485,0.2447959355906937,0.011392716059994486,0.06135651782560513,0.0727827495335806,0.07914001046769804,0.07596986963104466,0.024162854274381595,0.004498098366883169
0.1489655,0.24443057017436084,0.011426541868388318,0.06171763897555254,0.07275266330827433,0.07857483815400722,0.07642044259108932,0.024072413526192906,0.004515654503002407
0.149431,0.24405727011525308,0.01146153061059933,0.062084280116341,0.07271664404988619,0.07801019953755024,0.07687457579967583,0.02398383962940036,0.004533848382934837
0.1498966,0.2436761042265851,0.011497674448318751,0.06245643664888069,0.07267469800128229,0.07744616269345575,0.07733222466942498,0.023897223015029802,0.0045526699615575615
0.1503621,0.24328714119804656,0.011534965188147749,0.06283410337794698,0.0726268326473184,0.07688279528065783,0.07779334350322452,0.02381265486411059,0.004572109145990857
0.1508276,0.2428904495743582,0.011573394286481622,0.06321727451412242,0.07257305671138398,0.0763201645259961,0.0782578855073968,0.023730227091192328,0.004592155798870905
0.1512931,0.24248609773438978,0.011612952854532234,0.06360594367556288,0.07251338015162091,0.0757583372084473,0.07872580280535396,0.023650032327404005,0.004612799741581849
0.1517586,0.24207415387085754,0.011653631663487256,0.06400010388958491,0.07244781415682412,0.07519737964350089,0.07919704645173385,0.0235721639030612,0.004634030757446905
0.1522241,0.24165468597061884,0.01169542114980474,0.06439974759407122,0.0723763711420313,0.07463735766769086,0.07967156644701003,0.023496715829827014,0.004655838594878242
0.1526897,0.24122776179558053,0.011738311420641459,0.06480486663869188,0.0722990647438079,0.07407833662329565,0.08014931175256797,0.023423782782432505,0.004678212970485347
0.1531552,0.24079344886423798,0.011782292259413423,0.06521545228593856,0.0722159098152334,0.07352038134321777,0.08063023030623964,0.02335346007996241,0.004701143572141545
0.1536207,0.24035181443386008,0.0118273531314869,0.06563149521196908,0.07212692242059424,0.07296355613605447,0.08111426903828768,0.023285843666712082,0.004724620062008395
0.1540862,0.23990292548333447,0.011873483189998181,0.06605298550725967,0.07203211982978835,0.07240792477137,0.08160137388782987,0.023221030092621584,0.004748632079517623
0.1545517,0.23944684869668492,0.011920671281800252,0.06647991267706217,0.07193152051244624,0.07185355046518012,0.0820914898196944,0.02315911649329327,0.004773169244310277
0.1550172,0.23898365044727218,0.011968905953534423,0.06691226564166365,0.07182514413177267,0.07130049586565929,0.08258456084169612,0.023100200569599015,0.004798221159132734
0.1554828,0.23851339678268726,0.012018175457824885,0.06735003273644616,0.07171301153811352,0.0707488230390799,0.0830805300223242,0.023044380566883464,0.004823777412689218
0.1559483,0.23803615341034537,0.012068467759594043,0.0677932017117441,0.07159514476225136,0.07019859345599362,0.08357933950883199,0.02299175525376966,0.004849827582450437
0.1564138,0.23755198568378622,0.012119770542496478,0.06824175973249767,0.07147156700843378,0.06964986797766443,0.08408093054572029,0.022942423900573217,0.004876361237417955
0.1568793,0.23706095858968448,0.012172071215469192,0.06869569337770019,0.07134230264713728,0.06910270684276201,0.08458524349360544,0.022896486257331185,0.004903367940843917
0.1573448,0.23656313673557303,0.012225356919395865,0.06915498863963793,0.07120737720756995,0.06855716965432429,0.08509221784846467,0.02285404253145177,0.004930837252905725
0.1578103,0.2360585843382786,0.012279614533882708,0.06961963092292027,0.07106681736991494,0.068013315366997,0.08560179226125052,0.022815193364990934,0.004958758733335304
0.1582759,0.2355473652130686,0.012334830684143453,0.0700896050432985,0.07092065095731673,0.06747120227455795,0.086113904557867,0.022780039811562135,0.004987121944002554
0.1587414,0.23502954276350602,0.01239099174799097,0.07056489522627092,0.07076890692761141,0.06693088799773302,0.08662849175949976,0.022748683312885522,0.005015916451452597
0.1592069,0.23450517997200698,0.012448083862932972,0.07104548510547248,0.07061161536480204,0.06639242947231004,0.08714549010329205,0.022721225674983202,0.005045131829396394
0.1596724,0.23397433939109505,0.012506092933369187,0.07153135772084777,0.07044880747027965,0.06585588293755704,0.08766483506335866,0.02269776904402736,0.005074757661154306
0.1601379,0.23343708313534478,0.012565004637887345,0.07202249551660744,0.07028051555379058,0.06532130392494997,0.0881864613721296,0.022678415881848383,0.005104783542052192
0.1606034,0.23289347287400713,0.012624804436655281,0.07251888033897026,0.0701067730241511,0.0647887472472154,0.08871030304201494,0.022663268941110145,0.0051351990817696406
0.161069,0.23234356982430815,0.012685477578906356,0.0730204934336948,0.0699276143797101,0.06425826698769213,0.08923629338738204,0.022652431240159893,0.005165993906639974
0.1615345,0.23178743474541302,0.01274700911051537,0.07352731544340704,0.06974307519856134,0.06372991649001652,0.08976436504683549,0.022646006037560302,0.005197157661901733
0.162,0.23122512793304667,0.012809383881662069,0.07403932640473158,0.06955319212850626,0.06320374834813441,0.09029445000579035,0.02264409680631114,0.005228680013901382
0.1624655,0.2306567092147615,0.012872586554579237,0.07455650574523498,0.06935800287676876,0.06267981439664314,0.09082647961932773,0.022646807207768172,0.005260550652247018
0.162931,0.23008223794584387,0.012936601611382314,0.07507883228019056,0.06915754619946332,0.062158165701466546,0.09136038463532194,0.02265424106526686,0.005292759291912914
0.1633966,0.22950177300584934,0.013001413361977356,0.07560628420917359,0.06895186189081745,0.06163885255086569,0.091896095217828,0.02266650233745825,0.005325295675294752
0.1638621,0.22891537279575805,0.013067005952044087,0.0761388391124957,0.06874099077214892,0.06112192444678722,0.0924335409707181,0.022683695091364454,0.005358149574215414
0.1643276,0.22832309523574004,0.0131333633710907,0.07667647394748678,0.06852497468059827,0.06060743009655174,0.09297265096155591,0.022705923475160834,0.005391310791881249
0.1647931,0.22772499776352034,0.013200469460577012,0.07721916504463205,0.0683038564576165,0.06009541740488347,0.09351335374569786,0.02273329169069214,0.005424769164788704
0.1652586,0.22712113733333383,0.013268307922102558,0.07776688810357135,0.06807767993720722,0.05958593346628252,0.0940555773906098,0.022765903965729604,0.005458514564581227
0.1657241,0.22651157041546005,0.01333686232565617,0.07831961818896711,0.06784648993392337,0.059079024557740466,0.0945992495003874,0.022803864525976002,0.005492536899856313
0.1661897,0.22589635299632704,0.013406116117923668,0.07887732972624702,0.06761033223061787,0.058574736131799594,0.09514429724046851,0.02284727756682578,0.005526826117922593
0.1666552,0.2252755405791749,0.013476052630650251,0.07943999649722688,0.06736925356594864,0.05807311280995606,0.09569064736252493,0.02289624722488716,0.005561372206506855
0.1671207,0.22464918818526916,0.013546655089054307,0.08000759163561943,0.06712330162163807,0.05757419837640688,0.096238226229521,0.02295087754927337,0.005596165195410915
0.1675862,0.2240173503556546,0.013617906620289286,0.08058008762243421,0.0668725250094882,0.057078035772140545,0.09678695984092683,0.023011272472669816,0.005631195158118238
0.1680517,0.22338008115343916,0.013689790261950415,0.08115745628127433,0.06661697325815295,0.05658466708937081,0.09733677385807339,0.023077535782184178,0.005666452213350248
0.1685172,0.2227374341665971,0.01376228897062297,0.081739668773536,0.06635669679966993,0.0560941335663134,0.09788759362963688,0.023149771089986358,0.005701926526572216
0.1689828,0.22208946251127956,0.013835385630468908,0.08232669559351687,0.06609174695575434,0.055606475582305095,0.09843934421723967,0.023228081803744985,0.00573760831144871
0.1694483,0.2214362188356217,0.01390906306184855,0.08291850656343933,0.06582217592385849,0.05512173265326453,0.09899195042115463,0.02331257109686714,0.005773487831248589
0.1699138,0.2207777553240355,0.013983304029974008,0.0835150708283951,0.06554803676300058,0.05463994342749396,0.09954533680609931,0.02340334187854783,0.005809555400199594
0.1703793,0.2201141237019766,0.014058091253590982,0.08411635685121753,0.06526938337936711,0.054161145681820864,0.10009942772710638,0.023500496763635526,0.0058458013847926035
0.1708448,0.21944537524117408,0.014133407413685458,0.08472233240728777,0.06498627051169327,0.05368537631807823,0.10065414735545755,0.023604138042320102,0.005882216205035654
0.1713103,0.21877156076531304,0.014209235162211726,0.0853329645792814,0.06469875371642654,0.05321267135992178,0.10120941970466671,0.02371436764964946,0.005918790335657852
0.1717759,0.21809273065615867,0.01428555713083806,0.08594821975186158,0.06440688935267841,0.052743065949982376,0.10176516865649918,0.023831287134881467,0.005955514307263312
0.1722414,0.21740893486011142,0.014362355939706344,0.08656806360632498,0.0641107345669698,0.05227659434735145,0.10232131798701326,0.023954997630678165,0.005992378707435368
0.1727069,0.2167202228951826,0.01443961420620182,0.08719246111520687,0.06381034727777567,0.05181328992539728,0.10287779139261038,0.02408559982214987,0.006029374181791317
0.1731724,0.21602664385837939,0.014517314553729056,0.08782137653685247,0.06350578615987433,0.05135318516990918,0.1034345125160793,0.024223193915757397,0.0060664914349880875
0.1736379,0.21532824643348916,0.01459543962049012,0.08845477340996166,0.06319711062850634,0.05089631167756691,0.10399140497261973,0.024367879608081025,0.006103721231679252
0.1741034,0.21462507889925286,0.014673972068260955,0.08909261454811554,0.06288438082334827,0.05044270015473275,0.1045483923758304,0.024519756054465363,0.0061410543974239045
0.174569,0.21391718913791832,0.014752894591161783,0.0897348620342931,0.06256765759230544,0.049992380416563155,0.10510539836364509,0.02467892183754923,0.006178481819547927
0.1750345,0.21320462464416604,0.014832189924417424,0.09038147721538706,0.06224700247512806,0.04954538138643748,0.10566234662420024,0.024845474935689785,0.006215994447958183
0.1755,0.21248743253440217,0.014911840853103387,0.09103242069672782,0.061922477686854174,0.049101731095701234,0.10621916092161698,0.025019512691290092,0.006253583295910192
0.1759655,0.21176565955641338,0.01499183022087359,0.0916876523366248,0.06159414610108323,0.048661456683721675,0.10677576512167947,0.02520113177903932,0.0062912394407297866
0.176431,0.21103935209938018,0.015072140938665518,0.09234713124093422,0.06126207123308348,0.04822458439825335,0.1073320832173917,0.025390428174074917,0.00632895402448925
0.1768966,0.21030855620424477,0.01515275599337867,0.09301081575766122,0.060926317222736746,0.047791139596111455,0.10788803935439473,0.025587497120076172,0.006366718254638362
0.1773621,0.20957331757442876,0.01523365845652215,0.09367866347160514,0.06058694881732418,0.04736114674415062,0.10844355785622588,0.02579243309729894,0.006404523404590766
0.1778276,0.208833681586895,0.015314831492827233,0.0943506311990546,0.06024403135415666,0.046934629420546534,0.10899856324940074,0.026005329790561298,0.006442360814266062
0.1782931,0.20808969330354724,0.015396258368820685,0.09502667498254029,0.05989763074305404,0.04651161031637776,0.10955298028829893,0.026226280057189983,0.006480221890587963
0.1787586,0.20734139748296054,0.015477922461354713,0.09570675008565235,0.059547813448677975,0.046092111237504854,0.11010673397983359,0.026455375894937502,0.006518098107938916
0.1792241,0.20658883859243446,0.015559807266089316,0.09639081098792981,0.05919464647272303,0.045676153106743986,0.11065974960788479,0.026692708409879733,0.006555981008571502
0.1796897,0.2058320608203604,0.015641896405922878,0.0970788113798297,0.05883819733597169,0.04526375596633221,0.11121195275747667,0.026938367784303557,0.006593862202976935
0.1801552,0.20507110808889384,0.01572417363936687,0.09777070415778341,0.05847853406021906,0.044854938980681415,0.11176326933867793,0.02719244324459397,0.006631733370210969
0.1806207,0.20430602406692103,0.015806622868860507,0.09846644141934803,0.058115725150073495,0.04444972043941788,0.11231362561020564,0.027455023029129902,0.00666958625817746
0.1810862,0.20353685218330936,0.015889228149021193,0.09916597445846002,0.057749839574639986,0.044048117760704185,0.11286294820271221,0.02772619435619774,0.0067074126838699046
0.1815517,0.20276363564042676,0.015971973694826603,0.09986925376079905,0.05738094674909346,0.043650147494839635,0.11341116414173638,0.028006043391931308,0.006745204533571274
0.1820172,0.20198641742791673,0.016054843889724297,0.10057622899926953,0.05700911651614962,0.04325582532813543,0.11395820087029976,0.028294655218286936,0.006782953763012539
0.1824828,0.2012052403367126,0.01613782329366467,0.10128684902960763,0.05663441912744096,0.04286516608706022,0.11450398627113163,0.02859211380106188,0.006820652397490385
0.1829483,0.2004201469732758,0.016220896651053203,0.10200106188612214,0.056256925224806235,0.04247818374265121,0.11504844868850429,0.02889850195796423,0.006858292531944704
0.1834138,0.19963117977404052,0.01630404889861778,0.10271881477757765,0.05587670582150142,0.04209489141518584,0.11559151694966144,0.02921390132674227,0.006895866330996515
0.1838793,0.19883838102005005,0.016387265173186973,0.10344005408322884,0.055493832283340136,0.04171530137910871,0.11613312038582158,0.029538392333380934,0.006933366028947047
0.1843448,0.1980417928517668,0.016470530819375006,0.10416472534901458,0.05510837630977169,0.041339425068207966,0.11667318885273797,0.02987205416037288,0.006970783929738725
0.1848103,0.19724145728403986,0.016553831397169094,0.10489277328392076,0.05472040991490431,0.04096727308103521,0.1172116527507963,0.03021496471507159,0.007008112406878851
0.1852759,0.19643741622121244,0.016637152689414795,0.10562414175652068,0.054330005408481236,0.04059885518656284,0.11774844304463099,0.030567200598133736,0.0070453439033267415
0.1857414,0.19562971147235161,0.016720480709194893,0.1063587737917017,0.053937235376816994,0.04023418033007236,0.11828349128224167,0.03092883707205795,0.007082470931345139
0.1862069,0.1948183847665821,0.016803801707097464,0.10709661156758614,0.0535421726637005,0.03987325663926753,0.11881672961359038,0.031299948029826954,0.007119486072316693
0.1866724,0.19400347776850663,0.016887102178368658,0.1078375964126544,0.05314489035127172,0.039516091430605645,0.1193480908086608,0.031680605963660326,0.007156381976526286
0.1871379,0.19318503209369534,0.01697036886994577,0.10858166880307679,0.05274546174087796,0.039162691215840414,0.11987750827495994,0.032070881933884965,0.0071931513629099894
0.1876034,0.19236308932422738,0.017053588787366215,0.10932876836026081,0.05234396033391579,0.038813061708769775,0.12040491607444305,0.03247084553793058,0.007229787018771426
0.188069,0.19153769102426782,0.017136749201547848,0.11007883384861993,0.05194045981266445,0.038467207832181834,0.12093024893984307,0.03288056487945756,0.007266281799466346
0.1885345,0.19070887875566195,0.017219837655436186,0.1108318031735701,0.05153503402111615,0.03812513372499217,0.12145344229038697,0.03330010653762475,0.007302628628056216
0.189,0.18987669409352884,0.017302841970513898,0.11158761337976016,0.05112775694580912,0.03778684274956581,0.12197443224688304,0.03372953553650446,0.007338820494931584
0.1894655,0.18904117864183473,0.017385750253168093,0.11234620064954237,0.05071870269666892,0.037452337499217274,0.12249315564616517,0.034168915314652375,0.007374850457405991
0.189931,0.18820237404892604,0.017468550900910863,0.11310750030168892,0.05030794548786395,0.037121619805882224,0.12300955005488275,0.03461830769483989,0.007410711639281115
0.1903966,0.1873603220230015,0.01755123260844862,0.11387144679035996,0.04989555961868118,0.03679469074795453,0.12352355378262617,0.035077772853956565,0.007446397230383838
0.1908621,0.18651506434750184,0.017633784373595866,0.11463797370432888,0.04948161945442868,0.036471550658282406,0.12403510589438096,0.035547369293090735,0.007481900486075877
0.1913276,0.1856666428963944,0.017716195503029074,0.11540701376646964,0.04906619940737159,0.03615219913231755,0.12454414622230502,0.03602715380779643,0.0075172147267366
0.1917931,0.18481509964933077,0.017798455617876567,0.11617849883351085,0.048649373917708835,0.03583663503641102,0.1250506153768239,0.036517181458555314,0.0075523333372196485
0.1922586,0.18396047670665366,0.01788055465914022,0.1169523598960617,0.048231217434597976,0.03552485651624974,0.12555445475704113,0.03701750554144261,0.007587249766283934
0.1927241,0.18310281630423114,0.01796248289294523,0.11772852707891465,0.047811804397236084,0.03521686100542705,0.1260556065604599,0.03752817755900665,0.007621957525999584
0.1931897,0.18224216082809558,0.018044230915614183,0.11850692964163,0.04739120921600447,0.03491264523414101,0.12655401379201434,0.03804924719137161,0.007656450191129412
0.1936552,0.18137855282886733,0.018125789658562045,0.11928749597940769,0.04696950625368526,0.034612205238013616,0.12704962027240874,0.03858076226757341,0.007690721398486499
0.1941207,0.1805120350359434,0.018207150393008752,0.12007015362425068,0.046546769806757926,0.034315536367024294,0.12754237064576343,0.039122768737138595,0.007724764846268423
0.1945862,0.17964265037143184,0.018288304734506322,0.12085482924642348,0.04612307408678347,0.03402263329455078,0.12803221038656726,0.03967531064191584,0.0077585742933686695
0.1950517,0.17877044196381528,0.01836924464727739,0.1216414486562095,0.04569849320188398,0.03373349002651038,0.1285190858059378,0.040238430088170095,0.007792143558665722
0.1955172,0.17789545316132613,0.018449962448362202,0.12242993680596952,0.04527310113832484,0.0334480999105948,0.12900294405719104,0.04081216721894876,0.007825466520290257
0.1959828,0.17701772754501746,0.018530450811571036,0.1232202177925037,0.044846971742206664,0.03316645564559193,0.12948373314072384,0.04139656018672958,0.00785853711487089
0.1964483,0.17613730894151455,0.018610702771238965,0.12401221485971968,0.04442017870127401,0.03288854929078799,0.1299614019082119,0.041991645126359715,0.007891349336758884
0.1969138,0.17525424143543153,0.018690711725779758,0.12480585040160824,0.043992795526847504,0.03261437227544404,0.13043590006612618,0.042597456128295214,0.007923897237232335
0.1973793,0.17436856938143802,0.01877047144103586,0.1256010459655283,0.04356489553588634,0.03234391540834109,0.13090717817857098,0.04321402521215019,0.007956174923680406
0.1978448,0.1734803374159637,0.018849976053421216,0.12639772225580181,0.04313655183318798,0.032077168887387944,0.13137518766944592,0.04384138230056442,0.007988176558768373
0.1983103,0.17258959046853092,0.018929220072853987,0.12719579913761941,0.04270783729373194,0.03181412230928622,0.13183988082393536,0.04447955519339794,0.008019896359584383
0.1987759,0.17169637377270913,0.019008198385476294,0.12799519564125617,0.042278824545174704,0.03155476467924698,0.13230121078932924,0.045128569542260855,0.00805132859676892
0.1992414,0.1708007328766886,0.019086906256158363,0.12879582996659777,0.041849585950502706,0.03129908442075342,0.13275913157518127,0.04578844882538626,0.008082467593628045
0.1997069,0.16990271365347467,0.01916533933078479,0.12959761948797657,0.041420193590850515,0.031047069385364504,0.13321359805281147,0.04645921432285396,0.008113307725231517
0.2001724,0.16900236231070637,0.019243493638320924,0.1304004807593174,0.04099071924849134,0.030798706862554547,0.1336645659541611,0.04714088509217239,0.00814384341749691
0.2006379,0.16809972540010382,0.01932136559265782,0.13120432951959396,0.0405612343900067,0.03055398358958454,0.13411199187000866,0.04783347794422659,0.00817406914626076
0.2011034,0.16719484982655117,0.01939895199423466,0.132009080698596,0.0401318101496422,0.0303128857614009,0.13455583324755604,0.048537007419599716,0.008203979436337815
0.201569,0.16628778285682036,0.01947625003143813,0.1328146484230067,0.03970251731285601,0.030075399040557806,0.13499604838739265,0.049251485765275924,0.008233568860569382
0.2020345,0.16537857212794022,0.019553257281778504,0.1336209460227908,0.03927342630006649,0.029841508567159437,0.13543259643984673,0.049976922911732544,0.008262832038861759
0.2025,0.16446726565521524,0.019629971712842906,0.13442788603789155,0.03884460715060493,0.029611198968818513,0.13586543740073315,0.05071332645042935,0.008291763637215762
0.2029655,0.16355391183989682,0.01970639168302642,0.13523538022523643,0.03841612950687928,0.029384454370627637,0.1362945321065079,0.05146070161170291,0.008320358366748385
0.203431,0.16263855947650857,0.019782515942042212,0.1360433395660504,0.03798806259875457,0.029161258405140004,0.13671984222884156,0.05221905124307423,0.008348610982707737
0.2038966,0.16172125775982635,0.019858343631211896,0.13685167427347641,0.037560475228155234,0.02894159422235618,0.13714133026862438,0.052988375787978007,0.008376516283482545
0.2043621,0.1608020562915128,0.01993387428353763,0.13766029380050224,0.03713343575389481,0.028725444499713648,0.13755895954941788,0.05376867326492217,0.008404069109607585
0.2048276,0.15988100508640515,0.02000910782355741,0.1384691068481921,0.036707012076738,0.02851279145207573,0.1379726942103679,0.05455993924708658,0.008431264342766606
0.2052931,0.15895815457845444,0.020084044566984982,0.1392780213742218,0.036281271624700136,0.02830361684171625,0.13838249919859552,0.05536216684236955,0.00845809690479435
0.2057586,0.15803355562631555,0.020158685220135933,0.14008694460171467,0.0358562813385886,0.028097901988296387,0.13878834026108325,0.05617534667389103,0.008484561756679325
0.2062241,0.15710725951858742,0.02023303087914154,0.14089578302837627,0.03543210765779107,0.027895627778829788,0.13919018393607457,0.05699946686096087,0.008510653897568948
0.2066897,0.1561793179787031,0.020307083028952125,0.1417044424359252,0.035008816506314745,0.027696774677631878,0.13958799754400503,0.05783451300052015,0.00853636836377869
0.2071552,0.15524978316946997,0.02038084354213196,0.14251282789981717,0.03458647327908078,0.027501322736249275,0.1399817491779833,0.05868046814906308,0.008561700227806765
0.2076207,0.15431870769726025,0.020454314677447884,0.14332084379925905,0.03416514282847782,0.027309251603364938,0.1403714076938401,0.05953731280504703,0.0085866445973559
0.2080862,0.15338614461585234,0.020527499078254123,0.14412839382750936,0.03374488945117814,0.02712054053467482,0.14075694269976122,0.060405024891797325,0.008611196614363733
0.2085517,0.152452147429923,0.020600399770675917,0.14493538100246084,0.033325776875219926,0.02693516840273168,0.14113832454552136,0.06128357974091361,0.008635351454043323
0.2090172,0.15151677009819123,0.020673020161594804,0.14574170767750083,0.0329078682473586,0.02675311370675201,0.14151552431133305,0.062172950076183925,0.008659104323935324
0.2094828,0.15058006703621415,0.020745364036438712,0.146547275552646,0.032491226120690136,0.026574354582382182,0.14188851379632547,0.06307310599801241,0.00868245046297331
0.2099483,0.14964209311883478,0.02081743555678015,0.147351985685948,0.03207591244254895,0.026398868811420343,0.14225726550666723,0.06398401496836637,0.008705385140563737
0.2104138,0.1487029036822807,0.020889239257745988,0.14815573850516717,0.031661988542682686,0.026226633831490632,0.142621752643348,0.06490564179624796,0.008727903655682077
0.2108793,0.1477625545259121,0.020960780045242617,0.14895843381971036,0.031249515121706196,0.026057626745666834,0.14298194908963538,0.06583794862369563,0.008750001335986645
0.2113448,0.14682110191361716,0.021032063193000456,0.14975997083282944,0.030838552239836562,0.025891824332042575,0.14333782939822423,0.06678089491231971,0.008771673536951671
0.2118103,0.14587860257485205,0.02110309433944199,0.150560248154075,0.030429159305911155,0.025729203053245487,0.14368936877809796,0.06773443743037635,0.008792915641021139
0.2122759,0.1449351137053233,0.021173879484377586,0.15135916381199915,0.03002139506669022,0.02556973906589276,0.14403654308112165,0.06869853024038372,0.0088137230567849
0.2127414,0.14399069296731024,0.021244424985533483,0.15215661526710042,0.02961531759644545,0.025413408229985474,0.1443793287883875,0.06967312468728373,0.008834091218178493
0.2132069,0.14304539848962516,0.021314737554916346,0.1529524994250034,0.029210984286835794,0.025260186118239096,0.14471770299633446,0.07065816938715291,0.008854015583708035
0.2136724,0.1420992888672081,0.021384824255018732,0.15374671264986517,0.02880845183707142,0.025110048025347487,0.14505164340266544,0.07165361021646507,0.00887349163570149
0.2141379,0.1411524231603534,0.021454692494869608,0.1545391507780014,0.028407776244366655,0.02496296897717766,0.1453811282920863,0.07265939030190857,0.008892514879587572
0.2146034,0.1402048608935661,0.021524350025934197,0.15532970913172675,0.02800901279468236,0.024818923739892643,0.14570613652189318,0.07367545001076023,0.008911080843203432
0.215069,0.13925666205404608,0.021593804937867184,0.1561182825334055,0.027612216053758114,0.024677886828999865,0.1460266475074342,0.07470172694181766,0.008929185076132305
0.2155345,0.1383078870898,0.021663065654123372,0.15690476531971162,0.02721743985843422,0.0245398325183226,0.14634264120747212,0.07573815591689156,0.008946823149072117
0.216,0.137358596907382,0.02173214092742972,0.15768905135609781,0.026824737308263492,0.024404734848892183,0.14665409810947422,0.07678466897285888,0.008963990653236109
0.2164655,0.13640885286926493,0.021801039835122594,0.15847103405147536,0.026434160757412634,0.02427256763775875,0.14696099921485442,0.07784119535427748,0.008980683199786406
0.216931,0.13545871679084492,0.021869771774353966,0.1592506063731064,0.0260457618068528,0.02414330448671856,0.1472633260241929,0.07890766150656305,0.00899689641930148
0.2173966,0.1345082509370812,0.021938346457170056,0.16002766086171302,0.025659591296838865,0.02401691879095608,0.14756106052245613,0.07998399106972835,0.009012625961278423
0.2178621,0.13355751801877314,0.02200677390546586,0.16080208964680787,0.02527569929967686,0.023893383747599254,0.1478541851642412,0.08107010487268602,0.009027867493670964
0.2183276,0.13260658118847585,0.02207506444581884,0.16157378446225246,0.024894135112778895,0.0237726723641865,0.14814268285906634,0.08216592092811645,0.009042616702464217
0.2187931,0.13165550403605483,0.02214322870420507,0.1623426366620501,0.024514947252004836,0.023654757467044214,0.1484265369567293,0.0832713544279034,0.009056869291287191
0.2192586,0.13070435058388138,0.02221127760060099,0.16310853723637955,0.0241381834452898,0.0235396117095736,0.1487057312327541,0.08438631773914146,0.009070620981064101
0.2197241,0.12975318528166915,0.02227922234347382,0.1638713768278756,0.02376389062655665,0.023427207580445475,0.14898024987394579,0.08551072040072089,0.0090838675097055
0.2201897,0.12880207300095473,0.022347074424163504,0.16463104574816081,0.02339211492991245,0.023317517411701866,0.14925007746407182,0.08664446912049678,0.009096604631840258
0.2206552,0.12785107902922632,0.022414845611159053,0.16538743399463293,0.023022901684127905,0.02321051338676294,0.14951519896968768,0.08778746777305045,0.009108828118589343
0.2211207,0.12690026906370583,0.022482547944271965,0.16614043126750977,0.02265629540739869,0.023106167548337726,0.14977559972612428,0.08893961739805167,0.009120533757382315
0.2215862,0.1259497092047919,0.022550193728709287,0.16688992698713423,0.02229233980238759,0.02300445180623685,0.15003126542365447,0.09010081619923106,0.009131717351817375
0.2220517,0.12499946594917374,0.022617795529048804,0.1676358103115396,0.021931077751546294,0.022905337945085518,0.1502821820938556,0.09127095954397242,0.00914237472156577
0.2225172,0.12404960618262548,0.022685366163118868,0.16837797015427652,0.021572551312715536,0.022808797631934774,0.150528336096185,0.09244993996353593,0.0091525017023213
0.2229828,0.12310019717249181,0.02275291869578537,0.16911629520250177,0.021216801715002245,0.022714802423769113,0.15076971410478487,0.09363764715392395,0.00916209414579562
0.2234483,0.12215130655987579,0.022820466432648342,0.16985067393532907,0.02086386935493209,0.022623323774908565,0.15100630309553342,0.09483396797740237,0.009171147919760007
0.2239138,0.12120300235153837,0.0228880229136507,0.17058099464244153,0.020513793792875806,0.022534333044303297,0.15123809033335678,0.0960387864646909,0.009179658908134164
0.2243793,0.1202553529115197,0.0229556019066019,0.17130714544296538,0.020166613749747417,0.022447801502718814,0.15146506335981708,0.09725198381783497,0.009187623011122633
0.2248448,0.11930842695249118,0.023023217400619377,0.1720290143046052,0.019822367103972463,0.02236370033980984,0.15168720998099008,0.09847343841377235,0.009195036145399384
0.2253103,0.1183622935268464,0.023090883599490988,0.17274648906304116,0.01948109088872413,0.022282000671081027,0.15190451825564558,0.09970302580860632,0.009201894244341027
0.2257759,0.11741702201753887,0.023158614914961764,0.1734594574415881,0.019142821289425096,0.022202673544733053,0.15211697648374325,0.1009406187425975,0.0092081932583092
0.2262414,0.11647268212867304,0.023226425959948515,0.17416780707111712,0.018807593641512858,0.022125689948393014,0.1523245731952558,0.10218608714588578,0.00921392915498256
0.2267069,0.11552934387585485,0.023294331541685937,0.17487142551023835,0.01847544242846619,0.022051020815728427,0.15252729713933028,0.1034392981449544,0.009219097919738836
0.2271724,0.1145870775763073,0.02336234665480778,0.17557020026574477,0.018146401280090388,0.021978637032944805,0.15272513727379855,0.10470011606984801,0.009223695556087328
0.2276379,0.1136459538387555,0.02343048647436661,0.17626401881331527,0.01782050297105893,0.021908509445167125,0.1529180827550463,0.10596840246215794,0.009227718086152225
0.2281034,0.11270604355308578,0.02349876634879552,0.17695276861847517,0.017497779419709154,0.021840608862705727,0.1531061229282496,0.10724401608378764,0.009231161551207028
0.228569,0.1117674178797833,0.023567201792815164,0.17763633715781185,0.01717826168708953,0.021774906067207344,0.15328924731798793,0.10852681292651274,0.009234022012260363
0.2290345,0.11083014823915253,0.02363580848028917,0.17831461194044285,0.01686197997625605,0.021711371817692136,0.15346744561924108,0.10981664622234981,0.009236295550693422
0.2295,0.10989430630032572,0.023704602237031157,0.1789874805297337,0.016548963631815197,0.021649976856477418,0.15364070768877772,0.11111336645474837,0.009237978268949244
0.2299655,0.10895996397006359,0.023773599033566267,0.17965483056526313,0.016239241139710994,0.021590691914988965,0.1538090235369433,0.1124168213706199,0.009239066291274052
0.230431,0.10802719338135287,0.023842814977850124,0.18031654978503212,0.015932840127253517,0.021533487719460793,0.15397238331985447,0.11372685599321715,0.00923955576451081
0.2308966,0.10709606688180406,0.023912266307947804,0.18097252604791397,0.015629787363386136,0.021478334996524465,0.15413077733200697,0.11504331263587642,0.009239442858945129
0.2313621,0.10616665702185246,0.023981969384675512,0.1816226473563414,0.015330108759188875,0.021425204478689328,0.1542841959993045,0.1163660309166346,0.009238723769203637
0.2318276,0.10523903654276483,0.024051940684207327,0.18226680187922703,0.015033829368615071,0.021374066909715068,0.1544326298725141,0.1176948477737328,0.009237394715204957
0.2322931,0.10431327836445371,0.024122196790649416,0.18290487797511315,0.014740973389458546,0.021324893049878432,0.15457606962115433,0.11902959748201739,0.009235451943163449
0.2327586,0.10338945557310199,0.024192754388583877,0.18353676421554732,0.014451564164548425,0.02127765368113624,0.15471450602782155,0.12037011167024875,0.009232891726645976
0.2332241,0.10246764140860126,0.024263630255584402,0.18416234940867918,0.014165624183168652,0.02123231961218711,0.15484792998295946,0.12171621933932782,0.009229710367681953
0.2336897,0.10154790925180962,0.024334841254705634,0.18478152262307435,0.013883175082699222,0.021188861683434417,0.15497633248007572,0.1230677468814494,0.009225904197926989
0.2341552,0.1006303326116354,0.02440640432694807,0.18539417321174015,0.013604237650476062,0.021147250771853286,0.15509970461140965,0.12442451810019103,0.009221469579880402
0.2346207,0.09971498511195444,0.024478336483700132,0.18600019083635766,0.013328831825866501,0.02110745779576427,0.1552180375640528,0.12578635423154524,0.009216402908156828
0.2350862,0.09880194047836928,0.024550654799158873,0.18659946549171202,0.013056976702557139,0.021069453719516417,0.15533132261652427,0.12715307396590347,0.009210700610812172
0.2355517,0.09789127252481773,0.02462337640273062,0.1871918875303126,0.01278869053105096,0.02103320955808232,0.1554395511358013,0.1285244934709994,0.009204359150724099
0.2360172,0.09698305514003794,0.024696518471412857,0.18777734768719295,0.012523990721370516,0.020998696381567688,0.15554271457480626,0.12990042641582034,0.009197375027027232
0.2364828,0.0960773622738959,0.02477009822215843,0.18835573710488018,0.012262893845963962,0.020965885319637886,0.15564080447034925,0.13128068399549395,0.009189744776603198
0.2369483,0.0951742679235816,0.024844132904223007,0.18892694735852192,0.012005415642810751,0.020934747565863755,0.15573381244152668,0.13266507495715815,0.009181464975625626
0.2374138,0.09427384611967832,0.024918639791496725,0.1894908704811601,0.011751571018723714,0.020905254381988952,0.15582173018857418,0.13405340562682042,0.009172532241160167
0.2378793,0.09337617091211042,0.02499363617482076,0.19004739898914044,0.01150137405284434,0.020877377102120998,0.15590454949217372,0.13544547993721268,0.009162943232819543
0.2383448,0.09248131635597447,0.02506913935428969,0.19059642590764703,0.011254838000327895,0.020851087136848172,0.15598226221321318,0.13684109945664696,0.0091526946544736
0.2388103,0.091589356497258,0.025145166631540403,0.19113784479635204,0.01101197529621502,0.020826355977284383,0.15605486029299656,0.13824006341887604,0.00914178325601431
0.2392759,0.09070036535845152,0.02522173530202841,0.1916715497751712,0.01077279755948638,0.02080315519904409,0.156122335753903,0.13964216875396304,0.009130205835175561
0.2397414,0.08981441692405856,0.025298862647292114,0.19219743555011604,0.010537315597296863,0.0207814564661493,0.15618468070049138,0.14104721012016394,0.009117959239407626
0.2402069,0.08893158512600936,0.02537656592720572,0.19271539743923374,0.010305539409385733,0.020761231534870566,0.15624188732104727,0.14245497993682577,0.009105040367806067
0.2406724,0.08805194382898442,0.025454862372221363,0.193225331398626,0.010077478192659091,0.020742452257503777,0.1562939478895674,0.14386526841830372,0.00909144617309482
0.2411379,0.08717556681565479,0.025533769175600952,0.19372713404853695,0.009853140345940968,0.020725090586084488,0.1563408547681766,0.1452778636088999,0.00907717366366309
0.2416034,0.08630252777184662,0.02561330348563835,0.1942207026995018,0.009632533474889364,0.020709118576041418,0.15638260040997118,0.14669255141882723,0.009062219905655679
0.242069,0.08543290027163732,0.02569348239787268,0.19470593537854622,0.009415664397073541,0.020694508389790596,0.15641917736228308,0.14810911566120014,0.009046582025116214
0.2425345,0.08456675776239195,0.025774322947293687,0.19518273085542634,0.00920253914720891,0.02068123230027159,0.1564505782703599,0.1495273380900547,0.009030257210182791
0.243,0.08370417354974768,0.02585584210054019,0.19565098866889952,0.008993162982545858,0.020669262694427048,0.15647679588145574,0.1509469984393986,0.009013242713335408
0.2434655,0.08284522078255468,0.025938056748092984,0.19611060915301384,0.008787540388408975,0.020658572076626646,0.15649782304932852,0.1523678744632921,0.008995535853694505
0.243931,0.08198997243778162,0.026020983696463607,0.19656149346340546,0.008585675083883066,0.020649133072036405,0.1565136527391396,0.15378974197695983,0.008977134019369903
0.2443966,0.08113850130539421,0.026104639660380693,0.19700354360359076,0.008387570027642456,0.020640918429934225,0.15652427803275132,0.15521237489893333,0.008958034669859328
0.2448621,0.0802908799732146,0.026189041254975853,0.1974366624512411,0.008193227423920101,0.020633901026972292,0.15652969213441667,0.15663554529422463,0.008938235338495661
0.2453276,0.07944718081176905,0.026274204987971197,0.19786075378442627,0.00800264872861309,0.020628053870386905,0.15652988837685586,0.15805902341852932,0.008917733634942035
0.2457931,0.07860747595913074,0.02636014725187103,0.1982757223078121,0.007815834655521164,0.020623350101156217,0.15652486022771286,0.15948257776345898,0.008896527247733866
0.2462586,0.07777183730576433,0.026446884316160286,0.19868147367879715,0.007632785182715005,0.02061976299710635,0.1565146012963849,0.1609059751028019,0.008874613946866854
0.2467241,0.07694033647937763,0.026534432319512732,0.19907791453357326,0.007453499559031058,0.020617265975966192,0.156499105341217,0.1623289805398105,0.008851991586429988
0.2471897,0.07611304482978609,0.026622807262012143,0.19946495251309626,0.007277976310689791,0.02061583259837127,0.15647836627705364,0.16375135755551357,0.00882865810728253
0.2476552,0.07529003341379424,0.02671202499738957,0.19984249628895595,0.007106213248034327,0.02061543657081681,0.15645237818313798,0.16517286805805032,0.008804611539773917
0.2481207,0.07447137298009854,0.0268021012252802,0.20021045558913664,0.00693820747238649,0.020616051748560203,0.15642113531134968,0.16659327243302238,0.0087798500065055
0.2485862,0.0736571339542151,0.026893051483502906,0.20056874122366294,0.006773955383017351,0.020617652138472845,0.15638463209477083,0.16801232959485818,0.008754371725132984
0.2490517,0.07284738642343509,0.0269848911403658,0.20091726511012706,0.006613452684229407,0.020620211901841566,0.15634286315656903,0.1694297970391833,0.008728175011208416
0.2495172,0.07204220012181049,0.027077635387000695,0.20125594029909408,0.0064566943925475845,0.02062370535711995,0.1562958233191862,0.17084543089618898,0.008701258281060553
0.2499828,0.07124164441517188,0.027171299229729388,0.20158468099938234,0.006303674844016226,0.02062810698263008,0.1562435076138213,0.17225898598498973,0.008673620054712445
0.2504483,0.07044578828617988,0.027265897482464566,0.2019034026032142,0.00615438770159925,0.020633391419215816,0.15618591129019554,0.17367021586895948,0.00864525895883508
0.2509138,0.06965470031941139,0.027361444759148305,0.2022120217112326,0.006008825962680633,0.0206395334728491,0.15612302982658913,0.17507887291203453,0.008616173729735931
0.2513793,0.06886844868648118,0.027457955466231133,0.2025104561573785,0.005866981966662341,0.02064650811719131,0.15605485894013954,0.17648470833597046,0.008586363216381178
0.2518448,0.06808710113119969,0.027555443795194833,0.20279862503362453,0.005728847402656807,0.02065429049611176,0.15598139459739288,0.17788747227853968,0.008555826383450454
0.2523103,0.06731072495476687,0.027653923715122496,0.20307644871456101,0.005594413317271045,0.02066285592616597,0.15590263302509932,0.17928691385265422,0.008524562314422942
0.2527759,0.06653938700100182,0.027753408965319425,0.20334384888183052,0.00546367012247946,0.020672179899036004,0.15581857072124575,0.1806827812063986,0.008492570214693646
0.2532414,0.06577315364160748,0.027853913047988735,0.20360074854840626,0.005336607603582415,0.020682238083935236,0.1557292044663163,0.18207482158395727,0.00845984941471871
0.2537069,0.06501209076146958,0.027955449220965732,0.20384707208270925,0.005213214927247581,0.02069300632997981,0.1556345313347721,0.18346278138742053,0.008426399373188613
0.2541724,0.06425626374398868,0.02805803049051529,0.20408274523255798,0.005093480649631056,0.020704460668528792,0.15553454870674055,0.1848464062394541,0.008392219680228094
0.2546379,0.06350573745644515,0.028161669604196478,0.20430769514894365,0.004977392724575215,0.02071657731549501,0.15542925427990342,0.18622544104681762,0.008357310060621587
0.2551034,0.06276057623539646,0.028266379043798976,0.20452185040962184,0.00486493851188019,0.02072933267362834,0.155318646081573,0.18759963006471858,0.008321670377063006
0.255569,0.06202084387210779,0.028372171018355704,0.20472514104251233,0.004756104785645878,0.020742703334773144,0.15520272248094566,0.1889687169619873,0.008285300633428605
0.2560345,0.06128660359801719,0.02847905745723629,0.20491749854889824,0.004650877742681298,0.0207566660821014,0.15508148220152196,0.19033244488705883,0.00824820097807169
0.2565,0.06055791807023746,0.02858705000332583,0.20509885592641608,0.0045492430109781296,0.02077119789232295,0.15495492433368202,0.19169055653474587,0.00821037170713788
0.2569655,0.05983484935709716,0.028696160006293464,0.20526914769183005,0.004451185658245204,0.020786275937874406,0.15482304834740518,0.19304279421378623,0.00817181326789967
0.257431,0.059117458923723894,0.028806398515955057,0.20542830990358343,0.004356690200500716,0.020801877589088053,0.15468585410512278,0.19438889991514668,0.008132526262109016
0.2578966,0.058405807617672424,0.028917776275734254,0.20557628018412039,0.0042657406107189265,0.020817980416342242,0.1545433418746945,0.19572861538106326,0.00809251144936674
0.2583621,0.05769995565460035,0.02903030371622596,0.20571299774197074,0.004178320327528101,0.020834562192194712,0.1543955123424991,0.1970616821747968,0.008051769750507526
0.2588276,0.0569999626039936,0.0291439909488662,0.20583840339359058,0.004094412263956477,0.02085160089350016,0.15424236662663232,0.1983878417510807,0.008010302250999378
0.2592931,0.05630588737494388,0.029258847759712162,0.20595243958494974,0.004013998816223083,0.020869074703513357,0.1540839062902057,0.19970683552723822,0.007968110204356327
0.2597586,0.05561778820198031,0.029374883603336135,0.20605505041285715,0.003937061872570308,0.020886962013979035,0.1539201333547423,0.2010184049549447,0.007925195035563142
0.2602241,0.054935722630957376,0.02949210759683674,0.2061461816460142,0.0038635828221351897,0.020905241427209648,0.1537510503136653,0.202322291592609,0.00788155834451075
0.2606897,0.054259747505001815,0.02961052851397076,0.20622578074578357,0.003793542563856473,0.020923891758152006,0.15357666014587665,0.2036182371783489,0.007837201909441042
0.2611552,0.053589918950521,0.029730154779408616,0.20629379688666202,0.0037269215154145945,0.020942892036443762,0.1533969663294219,0.20490598370353325,0.007792127690399676
0.2616207,0.05292629236327621,0.029850994463116284,0.20635018097644428,0.0036636996222018732,0.020962221508460558,0.1532119728552368,0.20618527348686444,0.007746337832695482
0.2620862,0.052268922394524936,0.02997305527486616,0.2063948856760649,0.0036038563663203364,0.0209818596393546,0.15302168424097148,0.2074558492489742,0.007699834670365044
0.2625517,0.05161786293723734,0.03009634455887928,0.20642786541910513,0.0035473707756048093,0.021001786115085266,0.1528261055448866,0.20871745418750687,0.0076526207296410504
0.2630172,0.05097316711239239,0.030220869288601016,0.20644907643095106,0.003494221432669105,0.021021980844442272,0.15262524237981537,0.2099698320526661,0.007604698732422959
0.2634828,0.05033488725535981,0.030346636061612083,0.20645847674758805,0.0034443864839733347,0.02104242396106182,0.15241910092718616,0.21121272722320092,0.0075560715997485175
0.2639483,0.049703074902374036,0.030473651094676743,0.20645602623401654,0.00339784364891053,0.021063095825436064,0.15220768795109932,0.21244588478280824,0.007506742455264657
0.2644138,0.04907778077710639,0.03060192021892971,0.20644168660227463,0.0033545702289108346,0.021083977026916084,0.15199101081245162,0.21366905059692806,0.00745671462869626
0.2648793,0.048459054777341595,0.03073144887520343,0.20641542142905397,0.003314543116561579,0.02110504838570848,0.1517690774831011,0.21488197138990722,0.007405991659311304
0.2653448,0.047846945961764815,0.030862242109497215,0.2063771961728981,0.0032777388047415643,0.021126290954865495,0.151541896560064,0.216084394822506,0.007354577299380944
0.2658103,0.047241502536864884,0.030994304568589752,0.20632697819097387,0.0032441333957678583,0.02114768602226858,0.15130947727973534,0.2172760695697202,0.007302475517633023
0.2662759,0.04664277184395966,0.031127640495796256,0.20626473675540796,0.0032137026105534127,0.021169215112605184,0.15107182953212334,0.21845674539889112,0.007249690502697593
0.2667414,0.04605080034634898,0.03126225372687146,0.2061904430691808,0.0031864217977737685,0.021190859989338298,0.1508289638750883,0.21962617324807232,0.007196226666542921
0.2672069,0.0454656336166004,0.031398147686059405,0.20610407028157193,0.0031622659430411153,0.021212602656668394,0.150580891548575,0.22078410530462272,0.007142088647900527
0.2676724,0.044887316323973074,0.0315353253822906,0.20600559350315145,0.0031412096780839374,0.021234425361487123,0.15032762448882775,0.22193029508399234,0.007087281315677671
0.2681379,0.044315892221984725,0.031673789405527154,0.20589498982031398,0.0031232272899305007,0.021256310595322125,0.15006917534257666,0.2230644975086663,0.00703180977235571
0.2686034,0.043751404136126805,0.03181354192325596,0.2057722383093537,0.0031082927300943998,0.02127824109627215,0.14980555748118457,0.22418646898723044,0.006975679357372729
0.269069,0.043193893951732586,0.03195458467713,0.20563732005008117,0.0030963796237604025,0.021300199850931564,0.14953678501474163,0.2252959674935208,0.006918895650488771
0.2695345,0.04264340260200305,0.03209691897975766,0.20549021813898274,0.0030874612789688334,0.02132217009630331,0.14926287280609588,0.22639275264581699,0.006861464475131962
0.27,0.04209997005619513,0.032240545711639784,0.20533091770192488,0.0030815106957967405,0.021344135321699223,0.14898383648480631,0.22747658578603838,0.00680339190172377
0.2704655,0.0415636353079769,0.032385465318254175,0.2051594059064054,0.003078500575534113,0.021366079270626514,0.14869969246100467,0.22854723005890082,0.006744684250981573
0.270931,0.04103443636395388,0.032531677807287114,0.204975671973354,0.0030784033298534375,0.021387985942659286,0.1484104579391513,0.22960445049098951,0.006685348097196674
0.2713966,0.040512410232370635,0.032679182746011386,0.20477970718848298,0.003081191089970921,0.02140983959529373,0.14811615093167005,0.23064801406970326,0.006625390271485845
0.2718621,0.03999759291199138,0.03282797925881028,0.2045715049131887,0.0030868357157977588,0.021431624745785933,0.14781679027244565,0.23167768982202272,0.006564817865014399
0.2723276,0.03949001938116348,0.03297806602484706,0.20435106059500333,0.0030953088050798888,0.021453326172971382,0.14751239563016658,0.23269324889305484,0.006503638232188776
0.2727931,0.03898972358706752,0.0331294412758795,0.20411837177759506,0.0031065817025247525,0.021474928919065633,0.1472029875214948,0.2336944646243034,0.006441858993816565
0.2732586,0.03849673843515772,0.03328210279421914,0.2038734381103148,0.0031206255089136605,0.021496418291446044,0.14688858732404314,0.2346811126316144,0.0063794880402318135
0.2737241,0.03801109577879659,0.0334360479108353,0.20361626135728558,0.003137411090198432,0.021517779864414742,0.14656921728913985,0.23565297088274342,0.00631653353438347
0.2741897,0.037532826409087595,0.03359127350360417,0.20334684540603187,0.003156909086581034,0.021538999480943195,0.14624490055435913,0.23660981977449105,0.006253003914884753
0.2746552,0.03706196004490967,0.03374777599570398,0.20306519627564465,0.0031790899215749834,0.02156006325439889,0.14591566115579693,0.23755144220935065,0.0061889078990212225
0.2751207,0.03659852532315749,0.03390555135415724,0.20277132212447746,0.003203923811047307,0.021580957570254487,0.14558152404007124,0.23847762367161252,0.006124254485715247
0.2755862,0.036142549789191035,0.034064595088521825,0.20246523325736956,0.0032313807722398748,0.0216016690877799,0.14524251507602773,0.2393881523028676,0.006059052958444592
0.2760517,0.035694059887498485,0.034224902249732646,0.20214694213239165,0.003261430632768946,0.021622184741717693,0.14489866106613353,0.24028281897685397,0.005993312888112779
0.2765172,0.035253080952575795,0.034386467429095825,0.20181646336710996,0.003294043039601782,0.02164249174394193,0.14454998975754266,0.24116141737358734,0.0059270441358689075
0.2769828,0.03481963720002674,0.03454928475743727,0.2014738137443646,0.0033291874680091834,0.021662577585100644,0.14419652985281906,0.24202374405271918,0.005860256855874563
0.2774483,0.034393751717886695,0.03471334790440735,0.2011190122175568,0.003366833230492799,0.02168243003624196,0.1438383110203035,0.2428695985260646,0.0057929614980155135
0.2779138,0.03397544645817358,0.03487865007794359,0.20075207991543959,0.0034069494856860502,0.021702037150423733,0.143475363904111,0.24369878332924497,0.005725168810555853
0.2783793,0.033564742228668926,0.0350451840238932,0.20037304014640814,0.003449505247227497,0.021721387264306603,0.14310772013374617,0.24451110409239155,0.005656889842732267
0.2788448,0.03316165868493194,0.035212942025797486,0.19998191840228544,0.00349446939260545,0.0217404689997304,0.1427354123333243,0.24530636960985897,0.005588135947286043
0.2793103,0.03276621432254936,0.03538191590484064,0.19957874236160053,0.003541810671972626,0.021759271265274025,0.14235847413038744,0.24608439190889986,0.005518918782930442
0.2797759,0.03237842646962361,0.035552097019965395,0.19916354189235766,0.003591497716929618,0.021777783257799117,0.14197694016430587,0.24684498631725332,0.005449250316751015
0.2802414,0.03199831127950188,0.03572347626815854,0.19873634905429352,0.0036434990492759376,0.02179599446397818,0.14159084609425648,0.24758797152960085,0.005379142826536481
0.2807069,0.031625883723748124,0.035896044084909186,0.19829719810062177,0.0036977830897273606,0.021813894661807814,0.14120022860677076,0.24831316967284273,0.005308608903037767
0.2811724,0.03126115758536053,0.03606979044484298,0.19784612547926192,0.003754318166598306,0.021831473922107925,0.14080512542284523,0.24902040637014725,0.005237661452152935
0.2816379,0.030904145452236225,0.03624470486253534,0.19738316983355086,0.003813072524447977,0.021848722610007597,0.14040557530460734,0.24970951080372528,0.005166313697035693
0.2821034,0.03055485871088514,0.03642077639350672,0.1969083720024342,0.0038740143326889795,0.02186563138641821,0.14000161806152936,0.2503803157762815,0.005094579180125288
0.282569,0.03021330754039457,0.036597993635402996,0.19642177502013516,0.003937111694157164,0.021882191209494393,0.13959329455618397,0.2510326577710959,0.005022471765095548
0.2830345,0.029879500906646043,0.03677634472936352,0.19592342411529828,0.004002332653641453,0.021898393336083226,0.13918064670953387,0.2516663770106914,0.004950005638720884
0.2835,0.029553446556785597,0.03695581736157958,0.19541336670960488,0.004069645206372439,0.021914229323162136,0.13876371750574792,0.25228131751404614,0.004877195312657093
0.2839655,0.029235151013948746,0.037136398765045535,0.1948916524158579,0.004139017306468611,0.02192969102926586,0.13834255099653642,0.2528773271523117,0.004804055625134855
0.284431,0.028924619572241215,0.037318075721504834,0.1943583330355333,0.004210416875339099,0.021944770615902675,0.13791719230499802,0.25345425770299973,0.004730601742563809
0.2848966,0.028621856291976607,0.037500834563592926,0.19381346255579532,0.004283811810041882,0.021959460548960155,0.1374876876289718,0.2540119649026021,0.0046568491610451505
0.2853621,0.02832686399517205,0.03768466117717887,0.1932570971459742,0.004359169991596456,0.021973753600100503,0.1370540842438886,0.25455030849760957,0.004582813707790669
0.2858276,0.028039644261302784,0.037869541003907235,0.19268929515350366,0.004436459293249995,0.021987642848145472,0.13661643050511685,0.25506915229389676,0.004508511542446168
0.2862931,0.027760197423316566,0.03805545904394148,0.192110117099317,0.004515647588696053,0.02200112168045078,0.13617477584979862,0.25556836420444284,0.00443395915831724
0.2867586,0.027488522563908584,0.03824239985890987,0.1915196256726992,0.004596702760244959,0.022014183794269893,0.1357291707981744,0.2560478162953631,0.004359173383495368
0.2872241,0.027224617512057465,0.03843034757505471,0.19091788572559285,0.004679592706945004,0.022026823198106935,0.13527966695439614,0.25650738483022945,0.004284171381882327
0.2876897,0.026968478839822837,0.03861928588658563,0.1903049642663554,0.004764285352653574,0.02203903421305864,0.13482631700683023,0.2569469503126656,0.004208970654110855
0.2881552,0.026720101859404648,0.03880919805923724,0.18968093045296452,0.0048507486540573675,0.022050811474145105,0.13436917472785276,0.25736639752720614,0.004133589038359609
0.2886207,0.026479480620464388,0.039000066934031685,0.18904585558566744,0.004938950608640823,0.02206214993162917,0.13390829497313986,0.25776561557841354,0.004058044711060431
0.2890862,0.02624660790770815,0.03919187493124582,0.18839981309906953,0.005028859262601897,0.02207304485232403,0.13344373368045692,0.2581444979282511,0.003982356187496068
0.2895517,0.026021475238731308,0.03938460405458331,0.18774287855365634,0.005120442718714324,0.022083491820888795,0.13297554786794993,0.25850294243170946,0.003906542322286587
0.2900172,0.025804072862124574,0.03957823589555122,0.18707512962674155,0.0052136691441355375,0.02209348674111167,0.13250379563194245,0.25884085137068946,0.003830622309762894
0.2904828,0.025594389755841135,0.03977275163804098,0.1863966461028328,0.005308506778159471,0.022103025837180552,0.13202853614424057,0.2591581314861428,0.0037546156842258676
0.2909483,0.02539241362582439,0.03996813206311365,0.1857075098634066,0.005404923939913517,0.022112105654940987,0.13154982964894868,0.25945469400847465,0.0036785423200897363
0.2914138,0.025198130904895918,0.04016435755398946,0.18500780487608243,0.005502889035998941,0.02212072306314173,0.131067737458798,0.2597304546862125,0.0036024224319084032
0.2918793,0.025011526751903133,0.04036140810124187,0.18429761718318646,0.005602370568074113,0.02212887525466815,0.13058232195099026,0.2599853338129463,0.0035262765742834472
0.2923448,0.024832585051126243,0.04055926330819633,0.18357703488969435,0.005703337140379843,0.02213655974776388,0.13009364656256028,0.2602192562525445,0.0034501256416525454
0.2928103,0.024661288411943955,0.0407579023965342,0.18284614815054412,0.0058057574672061504,0.022143774387241112,0.12960177578526116,0.2604321514626475,0.0033739908679570724
0.2932759,0.0244976181687574,0.04095730421210211,0.18210504915730918,0.005909600380299708,0.022150517345679892,0.1291067751599777,0.2606239535164401,0.0032978938261876375
0.2937414,0.02434155438117167,0.041157447230927166,0.1813538321242225,0.006014834836211179,0.022156787124616464,0.12860871127067267,0.2607946011227031,0.003221856427806381
0.2942069,0.02419307583443413,0.041358309565438296,0.18059259327354404,0.006121429923581602,0.022162582555720806,0.12810765173787145,0.260944037644141,0.0031459009220448906
0.2946724,0.024052160040128754,0.041559868970893754,0.17982143082026503,0.006229354870366988,0.02216790280196311,0.12760366521168948,0.26107221111398304,0.003070049895076698
0.2951379,0.023918783237125377,0.04176210285201501,0.17904044495614568,0.006338579051000229,0.02217274735876899,0.12709682136440623,0.2611790742508549,0.002994326269063387
0.2956034,0.023792920392783,0.041964988269826795,0.17824973783308437,0.006449071993489414,0.022177116055163048,0.1265871908825892,0.26126458447191886,0.0029187533010734392
0.296069,0.02367454520440606,0.04216850194870341,0.17744941354581756,0.006560803386451636,0.022181009054900606,0.126074845458771,0.2613287039042827,0.002843354581873031
0.2965345,0.02356363010095269,0.0423726202836212,0.17663957811395034,0.006673743086081327,0.022184426857587432,0.12555985778268114,0.26137139939468007,0.002768154034587994
0.297,0.023460146244994075,0.04257731934761734,0.17582033946331863,0.006787861123052144,0.022187370299787453,0.125042301532035,0.26139264251742794,0.002693175913236223
0.2974655,0.023364063534924092,0.0427825748994549,0.17499180740668366,0.0069031277093513695,0.02218984055611887,0.12452225136288136,0.2613924095806699,0.002618444801129774
0.297931,0.023275350607418498,0.042988362391494464,0.17415409362375925,0.007019513245045745,0.022191839140338794,0.12399978289951054,0.2613706816309184,0.002543985609145911
0.2983966,0.02319397484014306,0.04319465697777235,0.17330731164057267,0.007136988324977598,0.022193367906416926,0.12347497272392524,0.2613274444559114,0.002469823573866353
0.2988621,0.02311990235471011,0.043401433522285614,0.17245157680815906,0.007255523745390074,0.02219442904959848,0.1229478983648779,0.2612626885858003,0.002395984255583954
0.2993276,0.023053098019883186,0.043608666607483935,0.17158700628058962,0.007375090510480233,0.02219502510745659,0.12241863828647855,0.261176409292691,0.002322493536176078
0.2997931,0.02299352545502935,0.04381633054296793,0.17071371899233323,0.007495659838878753,0.022195158960934467,0.12188727187637817,0.26106860658855907,0.0022493776168439443
0.3002586,0.022941147033818856,0.04402439937439372,0.1698318356349526,0.0076172031700549436,0.02219483383537754,0.12135387943353317,0.26093928522156534,0.0021766630157172245
0.3007241,0.022895923888171934,0.04423284689258297,0.16894147863313747,0.007739692170645779,0.022194053301555838,0.12081854215555582,0.2607884546707976,0.002104376565323214
0.3011897,0.02285781591245239,0.04444164664283747,0.1680427721200787,0.007863098740707652,0.02219282127667696,0.12028134212565594,0.2606161291394682,0.0020325454099199094
0.3016552,0.022826781767907818,0.04465077193445735,0.1671358419121893,0.007987395019889551,0.022191142025390097,0.11974236229917841,0.2604223275465984,0.0019611970026923832
0.3021207,0.022802778887356087,0.044860195850461894,0.1662208154831787,0.008112553393526326,0.02218902016078169,0.11920168648974161,0.26020707351722117,0.0018903591028118874
0.3025862,0.022785763480117772,0.0450698912575119,0.16529782193748702,0.00823854649865064,0.022186460645363525,0.11865939935498236,0.2599703953711368,0.0018200597723572324
0.3030517,0.02277569053719407,0.04527983081603233,0.16436699198308544,0.008365347229922196,0.022183468792054094,0.11811558638191366,0.25971232611025624,0.0017503273730980688
0.3035172,0.022772513836689694,0.04548998699053398,0.16342845790365107,0.008492928745472758,0.02218005026515414,0.11757033387190266,0.25943290340456593,0.0016811905631398045
0.3039828,0.022776185949480134,0.045700332060132846,0.16248235353012586,0.008621264472665426,0.02217621108131737,0.1170237289252767,0.25913216957674884,0.001612678293429964
0.3044483,0.0227866582451227,0.04591083812926547,0.16152881421167145,0.008750328113766607,0.02217195761051703,0.11647585942556649,0.25881017158549513,0.0015448198041258542
0.3049138,0.022803880898010727,0.04612147713859854,0.16056797678603416,0.00888009365152902,0.022167296577009332,0.11592681402339514,0.2584669610075355,0.0014776446208234425
0.3053793,0.022827802893770517,0.046332220876130925,0.1595999795493358,0.009010535354684032,0.02216223506029425,0.11537668212002197,0.2581025940184282,0.0014111825506473714
0.3058448,0.02285837203590085,0.04654304098848584,0.1586249622253077,0.009141627783341554,0.022156780496074457,0.11482555385054953,0.25771713137212887,0.001345463678202093
0.3063103,0.022895534952655224,0.046753908992391374,0.15764306593398683,0.009273345794295658,0.022150940677212978,0.11427352006680175,0.257310638379371,0.0012805183613841655
0.3067759,0.02293923710416731,0.0469647962863468,0.15665443315989475,0.009405664546234056,0.022144723754689986,0.11372067231988164,0.2568831848848826,0.0012163772270558436
0.3072414,0.022989422789820503,0.04717567416247255,0.15565920771972036,0.009538559504849529,0.02213813823855906,0.11316710284241745,0.25643484524346155,0.0011530711665801916
0.3077069,0.02304603515586291,0.04738651381854129,0.15465753472952717,0.009672006447851449,0.02213119299890311,0.1126129045305077,0.255965698294932,0.0010906313312180342
0.3081724,0.02310901620326951,0.047597286370187536,0.15364956057150467,0.009805981469875531,0.022123897266790066,0.11205817092537683,0.25547582733799945,0.0010290891273871355
0.3086379,0.02317830679585338,0.0478079628632936,0.1526354328602826,0.009940460987290062,0.02211626063522841,0.11150299619475407,0.2549653201030226,0.0009684762117840466
0.3091034,0.023253846668628127,0.048018514286549345,0.15161530040882557,0.010075421742896874,0.02210829306012267,0.11094747511398888,0.2544342687237156,0.0009088244863691042
0.309569,0.023335574436423815,0.048228911584183534,0.15058931319392438,0.010210840810525408,0.02210000486122911,0.11039170304691674,0.25388276970779533,0.0008501660932150941
0.3100345,0.023423427602758697,0.04843912566886456,0.14955762232130054,0.010346695599518353,0.022091406723112286,0.10983577592648756,0.25331092390658383,0.0007925334092201266
0.3105,0.023517342568969053,0.04864912743476828,0.14852037999033804,0.010482963859107316,0.022082509696103352,0.10927979023516952,0.25271883648357707,0.0007359590406853078
0.3109655,0.02361725464359928,0.04885888777081059,0.14747773945845705,0.010619623682677149,0.02207332519726116,0.10872384298514008,0.25210661688199004,0.0006804758177578533
0.311431,0.023723098052054286,0.04906837757404236,0.14642985500514316,0.010756653511917522,0.02206386501133742,0.10816803169827593,0.2514743787912868,0.0006261167887403654
0.3118966,0.023834805946516085,0.04927756776320374,0.14537688189564524,0.01089403214086043,0.02205414129174718,0.10761245438595325,0.2508222401127048,0.0005729152142670683
0.3123621,0.02395231041612641,0.04948642929243491,0.1443189763443541,0.011031738719802286,0.02204416656154571,0.10705720952866908,0.25015032292378087,0.000520904561347872
0.3128276,0.02407554249743708,0.04969493316513976,0.14325629547787513,0.01116975275910929,0.022033953714412868,0.10650239605549551,0.24945875344188476,0.0004701184972811753
0.3132931,0.024204432185129753,0.04990305044799883,0.14218899729780704,0.011308054132904768,0.02202351601564588,0.10594811332337822,0.248747661986766,0.0004205908834363528
0.3137586,0.024338908443006624,0.05011075228512776,0.14111724064323886,0.011446623082637086,0.022012867103161343,0.10539446109629093,0.24801718294211758,0.00037235576890689935
0.3142241,0.024478899215253577,0.050318009912377254,0.14004118515297886,0.011585440220526828,0.022002020988507037,0.10484153952425722,0.24726745471616032,0.000325447384035241
0.3146897,0.02462433143797724,0.05052479467177034,0.13896099122752864,0.011724486532891782,0.02199099205788416,0.10428944912225128,0.24649861970125025,0.0002799001338102918
0.3151552,0.024775131051017276,0.05073107802607287,0.1378768199908154,0.011863743383348271,0.021979795073180437,0.10373829074898773,0.2457108242325107,0.00023574859113891476
0.3156207,0.02493122301003521,0.050936831573492714,0.1367888332516969,0.012003192515887324,0.021968445173014665,0.10318816558561077,0.2449042185454916,0.0001930274899925314
0.3160862,0.025092531298881005,0.05114202706250298,0.13569719346525097,0.012142816057824126,0.021956957873793048,0.102639175114292,0.24407895673285737,0.00015177171843020103
0.3165517,0.025258978942238546,0.051346636406784885,0.134602063693862,0.012282596522619135,0.021945349070777803,0.10209142109674527,0.2432351967001046,0.00011201631149955725
0.3170172,0.02543048801855121,0.05155063170028526,0.13350360756811588,0.012422516812569258,0.021933635039168425,0.10154500555266628,0.24237310012031218,7.379644401706671e-05
0.3174828,0.025606979673228655,0.05175398523238411,0.13240198924751345,0.012562560221367423,0.021921832435195892,0.10100003073810457,0.24149283238792657,3.714742322916119e-05
0.3179483,0.025788374132135868,0.051956669503167324,0.13129737338101216,0.012702710436528828,0.021909958297230126,0.10045659912377404,0.24059456257158474,2.1046813558814345e-06
0.3184138,0.025974590715365516,0.05215865723879964,0.13018992506740526,0.012842951541682147,0.021898030046900867,0.09991481337330878,0.23967846336597837,-3.129623198126124e-05
0.3188793,0.026165547851294668,0.05235992140699265,0.1290798098155464,0.01298326801872395,0.021886065490232122,0.09937477632146903,0.23874471104276393,-6.301965744545647e-05
0.3193448,0.02636116309092665,0.0525604352325627,0.1279671935044286,0.013123644749834611,0.021874082818790427,0.09883659095230289,0.23779348540052234,-9.3029833783028e-05
0.3198103,0.02656135312251895,0.052760172213073595,0.1268522423431247,0.013264067019354096,0.021862100610847226,0.09830036037726787,0.23682496971377373,-0.00012129090573234267
0.3202759,0.02676603378649781,0.05295910613455929,0.12573512283059773,0.013404520515516065,0.02185013783255573,0.09776618781331639,0.23583935068105247,-0.00014776693204139414
0.3207414,0.026975120090660144,0.05315721108732185,0.12461600171539025,0.013544991332038849,0.021838213839142587,0.09723417656094885,0.2348368183720488,-0.00017242189359223801
0.3212069,0.02718852622566317,0.053354461481800265,0.12349504595520233,0.01368546596957191,0.02182634837611467,0.0967044299822377,0.23381756617382418,-0.00019521970163042252
0.3216724,0.027406165580802045,0.05355083206450604,0.12237242267636886,0.01382593133699655,0.021814561580481444,0.0961770514788257,0.23278179073610827,-0.00021612420609752364
0.3221379,0.02762795076007561,0.05374629793402142,0.12124829913324682,0.013966374752579612,0.021802873981993102,0.09565214446990138,0.23172969191568696,-0.00023509920406485798
