Time,Rectus Femoris right,Rectus Femoris left,Hamstrings right,Hamstrings left,TibilaisÂ Anterior right,TibilaisÂ Anterior left,Gastrocnemius right,Gastrocnemius left
0.0,0.0018674540915281403,-0.0005876895675777114,0.002002114908939986,0.0011662970056237315,-0.016053074541599262,0.00031080886734395136,-0.00235249694865147,0.004274515872552769
0.0004655,0.0021752989713619284,-0.0005540423590053363,0.0020968985122183075,0.001210327766200845,-0.014926446034935776,0.00033002100390194133,-0.0023226744641999886,0.004405184601697211
0.000931,0.002482685581112427,-0.0005203068874665662,0.0021916907969021498,0.0012544372794283493,-0.013801396549006617,0.0003496195962379185,-0.0022921805258689105,0.004535186677594572
0.0013966,0.002789570247532511,-0.0004864841212141697,0.0022864816711615494,0.0012986196560340086,-0.012678085255357357,0.0003696125480878372,-0.0022609966585079013,0.004664499571141909
0.0018621,0.00309590938985203,-0.00045257498554670053,0.0023812610850356022,0.0013428689754710833,-0.011556671074848552,0.00039000786264198643,-0.0022291041248483027,0.004793100902712149
0.0023276,0.0034016595336892456,-0.00041858036183626754,0.002476019033957977,0.0013871792875513743,-0.010437312629702208,0.00041081364232100384,-0.0021964839262646426,0.004920968450531233
0.0027931,0.003706777324935247,-0.000384501086580818,0.002570745562263192,0.001431544614096173,-0.009320168195643953,0.00043203808849483905,-0.0021631168036454753,0.005048080159019388
0.0032586,0.004011219543603065,-0.0003503379504822261,0.0026654307666715356,0.0014759589506045713,-0.008205395654166454,0.00045368950114207625,-0.002128983238375299,0.005174414147090638
0.0037241,0.004314943117633235,-0.00031609169755141074,0.0027600647997504876,0.0015204162679385881,-0.00709315244493907,0.00047577627844721946,-0.002094063453429236,0.005299948716404776
0.0041897,0.00461790513664761,-0.00028176302424163434,0.002854637873350498,0.0015649105140245775,-0.0059835955183880525,0.0004983069163337304,-0.002058337414582114,0.005424662359566078
0.0046552,0.00492006286564336,-0.0002473525786110663,0.002949140262012985,0.001609435615570382,-0.004876881288470865,0.0005212900079307849,-0.002021784831733536,0.005548533768263224
0.0051207,0.005221373758619214,-0.00021286095951562875,0.0030435623063484094,0.0016539854797977,-0.0037731655856673716,0.0005447342429719083,-0.0019843851603504985,0.005671541841345104
0.0055862,0.005521795472126216,-0.00017828871583308532,0.0031378944163822733,0.0016985539961891234,-0.0026726036102100396,0.0005686484071238849,-0.0019461176030290675,0.005793665692827431
0.0060517,0.005821285878735473,-0.00014363634571927376,0.003232127074866903,0.001743135038249304,-0.0015753498855748532,0.0005930413812446108,-0.0019069611111766102,0.005914884659825319
0.0065172,0.006119803080415579,-0.00010890429589732727,0.0033262508405568782,0.0017877224652796985,-0.0004815582122543491,0.000617922140568802,-0.001866894386816034,0.006035178310407177
0.0069828,0.006417305421812613,-7.409296098066685e-05,0.0034202563514460042,0.0018323101241663423,0.0006086183781660242,0.000643299753820658,-0.0018258958845134463,0.006154526451365405
0.0074483,0.006713751503425855,-3.920268283048591e-05,0.003514134327963744,0.0018768918511801044,0.0016950276686072978,0.0006691833822526901,-0.0017839438134305986,0.006272909135899542
0.0079138,0.0070091001946725314,-4.233749948388357e-06,0.003607875576129072,0.0019214614737888829,0.002777518301751645,0.0006955822786099677,-0.0017410161395034279,0.006390306671207558
0.0083793,0.007303310646835172,3.0813603095211966e-05,0.003701470990659761,0.0019660128124812156,0.003855939824932506,0.0007225057860190649,-0.0016970905877479302,0.006506699625981106
0.0088448,0.007596342305885307,6.593919619636552e-05,0.003794911558035175,0.0020105396826007858,0.00493014273464119,0.0007499633368010034,-0.0016521446446945468,0.00662206883780061
0.0093103,0.007888154925177419,0.00010114290421600238,0.0038881883595106885,0.002055035896191306,0.005999978520631815,0.0007779644512075268,-0.0016061555609521731,0.006736395420426126
0.0097759,0.008178708578007145,0.00013642465744097802,0.003981292574081898,0.0020994952638512584,0.007065299709607155,0.0008065187360801016,-0.0015591003539028611,0.006849660770979955
0.0102414,0.008467963670027836,0.00017178444200725238,0.004074215481396835,0.002143911596597966,0.008125959908468464,0.0008356358834311436,-0.0015109558105282231,0.006961846577017055
0.0107069,0.008755880951519496,0.0002072223002847148,0.004166948464614402,0.0021882787077404553,0.009181813847112787,0.0008653256689470811,-0.001461698490368505,0.007072934823479346
0.0111724,0.009042421529504265,0.00024273833122317605,0.004259483013207337,0.0022325904147605788,0.010232717420761662,0.0008955979504129943,-0.0014113047286152488,0.007182907799530064
0.0116379,0.009327546879702487,0.000278332690659063,0.004351810725707963,0.002276840541201842,0.011278527731805613,0.0009264626660586786,-0.0013597506393384,0.007291748105264382
0.0121034,0.00961121885832348,0.0003140055915823742,0.004443923312395044,0.0023210229185653963,0.012319103131149381,0.0009579298328260577,-0.001307012118848627,0.0073994386582925285
0.012569,0.00989339971368514,0.00034975730436348203,0.004535812597920055,0.002365131388212637,0.013354303259043541,0.0009900095445579335,-0.001253064849195528,0.007505962700191663
0.0130345,0.010174052097656486,0.00038558815693940437,0.004627470523871174,0.002409159803273843,0.014383989085388616,0.001022711970108088,-0.0011978843018022693,0.007611303802822744
0.0135,0.01045313907691739,0.00042149853495920505,0.004718889151273351,0.0024531020305622844,0.015408022949498317,0.0010560473513727773,-0.0011414457412370696,0.007715445874508591
0.0139655,0.010730624144029761,0.00045748888188821955,0.0048100606630228455,0.0024969519524931975,0.016426268599308926,0.0010900260012436567,-0.0010837242291218045,0.00781837316606933
0.014431,0.011006471228314703,0.0004935596990708383,0.00490097736625467,0.0025407034690070177,0.017438591230022078,0.0011246583014821894,-0.001024694628177896,0.007920070276711417
0.0148966,0.011280644706530178,0.000529711545751619,0.004991631694641427,0.002584350499496254,0.01844485752216857,0.0011599547005155958,-0.0009643316064095531,0.00802052215976648
0.0153621,0.011553109413343952,0.0005659450390545449,0.005082016210622056,0.002627886984735352,0.019444935679081198,0.001195925711154425,-0.000902609641424378,0.008119714128276294
0.0158276,0.011823830651596727,0.0006022608539202921,0.005172123607559011,0.0026713068888129,0.020438695463764953,0.0012325819082318705,-0.0008395030248912985,0.008217631860420337
0.0162931,0.012092774202350491,0.0006386597230014271,0.005261946711822386,0.0027146042010654944,0.021426008235153393,0.0012699339261650047,-0.0007749858671357511,0.008314261404782471
0.0167586,0.012359906334717287,0.0006751424365155087,0.005351478484799502,0.0027577729380126046,0.022406746983740032,0.0013079924564381713,-0.0007090321018719895,0.008409589185453365
0.0172241,0.012625193815463592,0.0007117098420561245,0.005440712024828425,0.002800807145291773,0.023380786366573945,0.001346768245008806,-0.0006416154910723505,0.008503602006965276
0.0176897,0.01288860391838566,0.0007483628443619442,0.005529640569053861,0.0028437008995935006,0.024348002741608817,0.0013862720896359957,-0.0005727096299732604,0.00859628705905592
0.0181552,0.013150104433451125,0.0007851024050439201,0.005618257495203857,0.002886448310595205,0.025308274201394722,0.0014265148371321074,-0.0005022879522177245,0.008687631921258113
0.0186207,0.013409663675702172,0.0008219295422708143,0.005706556323285691,0.002929043522893654,0.026261480606102068,0.001467507380537843,-0.0004303237351340122,0.008777624567311982
0.0190862,0.01366725049391552,0.0008588453304132731,0.00579453071719938,0.0029714807179353044,0.027207503615866935,0.001509260656221127,-0.0003567901051502156,0.008866253369396518
0.0195517,0.013922834279014494,0.0008958508996467034,0.005882174486267252,0.0030137541159439844,0.02814622672244709,0.0015517856409002792,-0.000281660043344323,0.008953507102177327
0.0200172,0.014176384972228458,0.000932947435513228,0.005969481586678232,0.0030558579778453324,0.02907753528017765,0.0015950933485919957,-0.0002049063911293969,0.009039374946667452
0.0204828,0.01442787307299501,0.0009701361784430206,0.006056446122845706,0.0030977866071874305,0.03000131653621529,0.0016391948274847258,-0.00012650185607337847,0.009123846493898222
0.0209483,0.014677269646600606,0.0010074184232353263,0.006143062348678141,0.003139534352057025,0.030917459660059855,0.0016841011567380918,-4.6419017852958746e-05,0.009206911748397136
0.0214138,0.01492454633155545,0.0010447955184994953,0.006229324668762012,0.0031810956069907195,0.031825855772341906,0.0017298234432090384,3.5369665659133107e-05,0.00928856113146993
0.0218793,0.015169675346698807,0.0010822688660563622,0.0063152276394568795,0.003222464814880508,0.03272639797286495,0.001776372818105426,0.00011889185217415776,0.009368785484284159
0.0223448,0.015412629498031046,0.0011198399203003104,0.0064007659699026965,0.0032636364688729902,0.03361898136789099,0.0018237604335677937,0.00020417530863551945,0.00944757607075181
0.0228103,0.015653382185268887,0.00115751018752237,0.006485934522939527,0.0033046051142615945,0.03450350309665797,0.0018719974591800226,0.00029124790473591814,0.009524924580208639
0.0232759,0.01589190740812048,0.001195281225194698,0.006570728315939954,0.0033453653503711096,0.03537986235711791,0.0019210950784096404,0.0003801376063044245,0.009600823129888065
0.0237414,0.016128179772277186,0.0012331546412167956,0.006655142521554429,0.0033859118324338117,0.03624796043088402,0.0019710644849785137,0.0004708724685644391,0.009675264267187534
0.0242069,0.016362174495119352,0.0012711320931238221,0.006739172468369835,0.003426239273456454,0.03710770070737544,0.002021916879164686,0.0005634806292635265,0.009748240971725322
0.0246724,0.016593867411133764,0.001309215287257363,0.006822813641481548,0.0034663424460773693,0.03795898870714809,0.0020736634640361098,0.0006579903016761302,0.009819746657185853
0.0251379,0.01682323497704111,0.0013474059778990047,0.006906061682979309,0.003506216184412918,0.03880173210440016,0.0021263154416170382,0.0007544297674801862,0.009889775172951636
0.0256034,0.01705025427663222,0.001385705966367067,0.006988912392347282,0.0035458553858924834,0.03963584074864138,0.002179884008987847,0.0008528273695086587,0.009958320805520107
0.026069,0.01727490302531236,0.001424117100076828,0.00707136172677877,0.0035852550130812005,0.040461226685515335,0.0022343803543190895,0.0009532115043770273,0.010025378279703762
0.0265345,0.01749715957435334,0.0014626412715645915,0.007153405801406122,0.003624410095489574,0.04127780417676522,0.0022898156528406407,0.0010556106149877565,0.010090942759612035
0.027,0.017717002914853543,0.0015012804174759438,0.007235040889446435,0.0036633157313691205,0.04208548971933439,0.0023462010627468325,0.0011600531829127742,0.010155009849413456
0.0274655,0.017934412681406088,0.0015400365175185589,0.007316263422263668,0.003701967089493129,0.042884202063594376,0.002403547721038569,0.0012665677206549866,0.01021757559387666
0.027931,0.018149369155475565,0.0015789115933799293,0.0073970699893478225,0.00374035941092164,0.043673862230694076,0.0024618667393034835,0.0013751827637898473,0.010278636478688983
0.0283966,0.018361853268483712,0.0016179077076104139,0.0074774573382117675,0.0037784880107497006,0.04445439352902491,0.0025211691994353044,0.001485926862988006,0.01033818943055164
0.0288621,0.0185718466046046,0.00165702696247202,0.00755742237420637,0.003816348279837929,0.045225721569798046,0.0025814661492936783,0.0015988285759200636,0.010396231817050702
0.0293276,0.018779331403269997,0.001696271498753345,0.007636962160254589,0.0038539356865244095,0.045987774281730225,0.002642768598305822,0.0017139164590444875,0.010452761446303483
0.0297931,0.018984290561385984,0.0017356434945511295,0.0077160739165052965,0.003891245778316922,0.046740481924835243,0.0027050875130114845,0.0018312190592797769,0.010507776566380128
0.0302586,0.019186707635262035,0.0017751451640188889,0.007794755019907659,0.003928274183564488,0.04748377710331848,0.0027684338125528027,0.0019507649055620247,0.01056127586450029
0.0307241,0.019386566842254354,0.0018147787560830891,0.00787300300370702,0.003965016613107211,0.04821759477757185,0.0028328183641107784,0.002072582500289078,0.010613258466004928
0.0311897,0.019583853062125553,0.001854546553127359,0.007950815556863337,0.004001468861903383,0.04894187227526654,0.0028982519782902337,0.0021967003106525417,0.010663723933103431
0.0316552,0.01977855183812311,0.001894450869645238,0.008028190523393286,0.004037626810632837,0.04965654930154096,0.002964745404455253,0.0023231467598589257,0.010712672263396445
0.0321207,0.019970649377779353,0.0019344940508619825,0.008105125901637325,0.0040734864272755035,0.05036156794828118,0.003032309326017249,0.002451950218241238,0.010760103888175212
0.0325862,0.02016013255343572,0.0019746784713259627,0.008181619843452998,0.004109043768664158,0.05105687270249164,0.0031009543556779194,0.0025831389942623495,0.010806019670498644
0.0330517,0.02034698890249426,0.002015006533470221,0.008257670653335953,0.004144294982010327,0.0517424104537545,0.0031706910306294155,0.002716741325411443,0.010850420903050065
0.0335172,0.020531206627399157,0.0020554806661447645,0.008333276787470083,0.004179236306402324,0.05241813050077691,0.0032415298077141043,0.002852785368994867,0.010893309305776307
0.0339828,0.020712774595351296,0.0020961033231201944,0.008408436852708263,0.004213864074274362,0.053083984557026356,0.0033134810585463558,0.0029912991928227155,0.01093468702331272
0.0344483,0.02089168233775877,0.0021368769815632775,0.008483149605485157,0.004248174712845689,0.05373992675545534,0.0033865550645988227,0.0031323107657925072,0.01097455662219807
0.0349138,0.021067920049426578,0.0021778041404850786,0.008557413950663577,0.004282164745528683,0.054385913652318416,0.0034607620122557607,0.0032758479483714093,0.011012921087883633
0.0353793,0.021241478587488833,0.0022188873191622766,0.008631228940315943,0.0043158307933048425,0.0550219042300864,0.003536111987835974,0.003421938482978582,0.011049783821540867
0.0358448,0.021412349470087036,0.0022601290555322993,0.00870459377244242,0.004349169576067622,0.055647859899464115,0.0036126149725880558,0.003570609984269344,0.01108514863667218
0.0363103,0.021580524874798057,0.002301531904562935,0.008777507789627366,0.004382177913931055,0.05626374450051986,0.0036902808376606533,0.003721889929323012,0.011119019755529393
0.0367759,0.021745997636815513,0.0023430984365970893,0.008849970477635711,0.004414852728503111,0.05686952430293539,0.0037691193390505663,0.0038758056477363706,0.011151401805344649
0.0372414,0.02190876124688819,0.0023848312356733983,0.008921981463950918,0.004447191044122772,0.05746516800538643,0.0038491401125315466,0.004032384311624827,0.01118229981437866
0.0377069,0.02206880984901911,0.0024267328978234337,0.008993540516256041,0.004479189989059801,0.05805064673406378,0.003930352668566718,0.0041916529255333675,0.011211719207791387
0.0381724,0.02222613823792884,0.0024688060293462555,0.009064647540859479,0.004510846796676204,0.0586259340403458,0.004012766387207581,0.004353638316259552,0.011239665803340194
0.0386379,0.022380741856286492,0.0025110532450611086,0.009135302581066942,0.004542158806548426,0.05919100589763319,0.004096390512982586,0.004518367122590928,0.011266145806910655
0.0391034,0.022532616791711993,0.0025534771665390835,0.009205505815501171,0.0045731234655493145,0.0597458406973571,0.004181234149778294,0.004685865784959472,0.01129116580788507
0.039569,0.022681759773553238,0.0025960804203145832,0.00927525755637103,0.0046037383288889105,0.060290419244172354,0.0042673062557161455,0.0048561605350159074,0.011314732774353799
0.0400345,0.022828168169441866,0.002638865636077475,0.009344558247691702,0.004634001061113156,0.06082472475034783,0.004354615638027877,0.005029277385127042,0.011336854048174437
0.0405,0.022971839981631475,0.002681835444846819,0.00941340846345777,0.004663909437059628,0.061348742829366594,0.00444317094793264,0.005205242117799558,0.011357537339883875
0.0409655,0.023112773843122266,0.0027249924771271055,0.009481808905771095,0.00469346134276943,0.06186246148874865,0.004532980675518886,0.005384080275033978,0.011376790723468212
0.041431,0.023250969013576317,0.002768339361047936,0.009549760402925394,0.0047226547763543954,0.06236587112210942,0.00462405314463413,0.0055658171476127664,0.011394622630995442
0.0418966,0.02338642537502778,0.002811878720488105,0.009617263907449436,0.004751487848818745,0.06285896450046763,0.004716396507785705,0.0057504777643267325,0.01141104184711585
0.0423621,0.02351914342739254,0.0028556131731850066,0.009684320494110714,0.0047799587848343745,0.06334173676281689,0.004810018741055666,0.005938086881144035,0.011426057503434962
0.0428276,0.023649124283781943,0.0028995453288303075,0.009750931357881418,0.004808065923468963,0.06381418540597619,0.004904927639032946,0.006128668970326246,0.011439679072763942
0.0432931,0.023776369665625505,0.0029436777871528048,0.009817097811868514,0.004835807718866106,0.06427631027373504,0.0050011308097659204,0.006322248209495925,0.011451916363252239
0.0437586,0.02390088189760761,0.002988013135989379,0.009882821285209705,0.004863182740876761,0.06472811354530919,0.005098635669738449,0.006518848470660234,0.011462779512407291
0.0442241,0.02402266390242316,0.0030325539493449307,0.00994810332093705,0.004890189675641284,0.06516959972312354,0.005197449438872514,0.006718493309195114,0.011472278981006027
0.0446897,0.024141719195357403,0.0030773027854421988,0.010012945573809974,0.004916827326121409,0.06560077561993852,0.00529757913556048,0.0069212059527945825,0.011480425546902855
0.0451552,0.02425805187869504,0.0031222621847623215,0.010077349808119411,0.004943094612581554,0.06602165034533672,0.0053990315717300395,0.007127009290389754,0.011487230298738757
0.0456207,0.024371666635963785,0.003167434668077012,0.010141317895464685,0.004968990573018895,0.06643223529158643,0.0055018133479448105,0.007335925861042205,0.011492704629555978
0.0460862,0.024482568726017492,0.0032128227344732085,0.010204851812504797,0.004994514363541662,0.06683254411889804,0.005605930848543556,0.007547977842816332,0.011496860230322849
0.0465517,0.02459076397696389,0.003258428859371056,0.010267953638685651,0.005019665258695228,0.06722259274008907,0.005711390236820944,0.0077631870416353735,0.011499709083373116
0.0470172,0.024696258779941895,0.003304255492536072,0.010330625553944822,0.005044442651735533,0.0676023993046732,0.005818197450252699,0.007981574880125755,0.01150126345576429
0.0474828,0.024799060082753635,0.0033503050560863804,0.0103928698363954,0.005068846054849514,0.06797198418238787,0.00592635819576798,0.008203162386454504,0.011501535892559499
0.0479483,0.02489917538335631,0.0033965799424959045,0.010454688859990489,0.005092875099322207,0.06833136994617489,0.006035877945071732,0.008427970183164464,0.011500539210037403
0.0484138,0.024996612723219343,0.003443082512594431,0.010516085092169834,0.005116529535650284,0.06868058135462793,0.006146761930019743,0.008656018476012122,0.01149828648883481
0.0488793,0.025091380680552562,0.003489815093565515,0.010577061091490095,0.005139809233601818,0.06901964533392026,0.006259015138049079,0.008887327042812867,0.011494791067026547
0.0493448,0.025183488363411395,0.0035367799769432267,0.010637619505240167,0.005162714182222138,0.06934859095922587,0.006372642307666531,0.00912191522229859,0.011490066533147205
0.0498103,0.025272945402685147,0.003583979416608769,0.010697763067042851,0.0051852444897857106,0.06966744943564616,0.006487647923997704,0.009359801902992518,0.011484126719159316
0.0502759,0.02535976194497478,0.003631415626788044,0.010757494594444169,0.00520740038369399,0.069976254078654,0.006604036214399311,0.009601005512106131,0.011476985693372523
0.0507414,0.025443948645366612,0.003679090780051266,0.010816816986491472,0.005229182210319294,0.07027504029406653,0.006721811144137285,0.009845544004463061,0.011468657753318281
0.0512069,0.02552551666010838,0.0037270070053157444,0.010875733221301476,0.005250590434794773,0.07056384555755768,0.006840976412133245,0.010093434851454822,0.011459157418584637
0.0516724,0.02560447763919403,0.0037751663858529684,0.010934246353619236,0.0052716256407506,0.07084270939372064,0.006961535446781876,0.010344695030033185,0.01144849942361558
0.0521379,0.025680843718863436,0.003823570957301173,0.01099235951236903,0.005292288529996566,0.07111167335469036,0.007083491401841667,0.010599341011744071,0.011436698710479445
0.0526034,0.025754627514023118,0.0038722227056845917,0.01105007589819799,0.005312579922151323,0.07137078099833556,0.007206847152401499,0.01085738875180773,0.011423770421610815
0.053069,0.025825842110593897,0.003921123565440628,0.011107398781013312,0.00533250075421853,0.07162007786602997,0.007331605290925425,0.011118853678250043,0.011409729892530272
0.0535345,0.025894501057791144,0.003970275417456208,0.011164331497513705,0.005352052080110217,0.07185961146001174,0.0074577681233779745,0.011383750681089828,0.011394592644546377
0.054,0.025960618360343243,0.0040196800871146144,0.011220877448715751,0.005371235070117706,0.0720894312203401,0.007585337665432273,0.01165209410158719,0.011378374377444099
0.0544655,0.026024208470653707,0.0040693393423540895,0.01127704009747583,0.0053900510103304915,0.07230958850145804,0.007714315638763173,0.011923897721558191,0.011361090962163936
0.054931,0.026085286280912157,0.004119254891739539,0.011332822966008077,0.005408501302003447,0.07252013654836927,0.007844703467427584,0.01219917475276135,0.011342758433475882
0.0553966,0.0261438671151593,0.0041694283825486475,0.011388229633398923,0.005426587460872779,0.0727211304724378,0.007976502274334118,0.01247793782636163,0.011323392982652282
0.0558621,0.026199966721310773,0.004219861398873727,0.011443263733118585,0.005444311116421094,0.07291262722681782,0.008109712877804136,0.012760198982477563,0.01130301095014358
0.0563276,0.026253601263144632,0.00427055545974062,0.011497928950529859,0.005461674011091944,0.07309468558152088,0.008244335788226238,0.013045969659817174,0.011281628818260885
0.0567931,0.02630478731225698,0.0043215120172459655,0.011552229020394517,0.00547867799945417,0.07326736609812745,0.008380371204806152,0.013335260685408292,0.011259263203869172
0.0572586,0.026353541839990037,0.004372732454714097,0.011606167724377472,0.00549532504731637,0.07343073110414877,0.008517819012413998,0.013628082264428718,0.01123593085109493
0.0577241,0.026399882209336846,0.004424218084874848,0.011659748888548916,0.005511617230791782,0.07358484466704455,0.008656678778530815,0.01392444397014157,0.011211648624051941
0.0581897,0.026443826166826574,0.004475970148063492,0.011712976380884517,0.005527556735313871,0.07372977256790157,0.008796949750296268,0.014224354733941147,0.011186433499588875
0.0586552,0.026485391834394367,0.004527989810444028,0.011765854108763737,0.005543145854602899,0.07386558227477742,0.00893863085165935,0.014527822835514487,0.01116030256006224
0.0591207,0.02652459770123946,0.00458027816225701,0.011818386016466358,0.005558386989583796,0.07399234291571306,0.009081720680633877,0.014834855893123743,0.01113327298613819
0.0595862,0.02656146261567526,0.004632836216093075,0.01187057608266715,0.0055732826472556524,0.07411012525141725,0.00922621750666054,0.01514546085401443,0.0111053620496266
0.0600517,0.02659600577697484,0.004685664905193335,0.011922428317928615,0.005587835439513215,0.07421900164762542,0.009372119268077218,0.015459643984954538,0.011076587106350769
0.0605172,0.026628246727215105,0.004738765081777722,0.011973946762191694,0.005602048081920784,0.07431904604713502,0.009519423569699257,0.01577741086290945,0.011046965589055999
0.0609828,0.026658205343122812,0.004792137515402391,0.012025135482264231,0.005615923392439013,0.07441033394151857,0.009668127680511302,0.016098766365857543,0.01101651500036036
0.0614483,0.02668590182792546,0.0048457828913471895,0.012075998569306922,0.005629464290105151,0.07449294234251577,0.009818228531472307,0.01642371466375126,0.010985252905750793
0.0619138,0.02671135670320985,0.004899701809034232,0.012126540136316468,0.005642673793667345,0.07456694975310502,0.009969722713435256,0.016752259209628455,0.010953196926627714
0.0623793,0.02673459080079131,0.004953894780478548,0.01217676431560556,0.00565555502017374,0.07463243613825495,0.010122606475183081,0.017084402730878617,0.010920364733401211
0.0628448,0.02675562525459649,0.005008362228771753,0.012226675256279294,0.005668111183517135,0.07468948289535689,0.010276875721582219,0.01742014722066866,0.010886774038641819
0.0633103,0.026774481492562993,0.005063104486599688,0.012276277121707651,0.005680345592936132,0.0747381728243386,0.010432526011855126,0.01775949392953281,0.010852442590288816
0.0637759,0.026791181228559183,0.005118121794794893,0.01232557408699371,0.005692261651473755,0.07477859009746125,0.010589552557973054,0.01810244335713095,0.010817388164918918
0.0642414,0.026805746454327824,0.005173414300924794,0.012374570336437357,0.005703862854394585,0.07481082022880145,0.010747950223170264,0.018448995244179846,0.01078162856107808
0.0647069,0.026818199431457388,0.0052289820579164235,0.01242327006099436,0.005715152787561575,0.07483495004342125,0.010907713520580802,0.018799148564561455,0.01074518159267911
0.0651724,0.026828562683384873,0.005284825022718451,0.012471677455730686,0.005726135125773698,0.07485106764622981,0.011068836611998844,0.01915290151761243,0.010708065082467667
0.0656379,0.026836858987433883,0.005340943055001283,0.012519796717272083,0.005736813631065671,0.07485926239054079,0.011231313306763639,0.019510251520598786,0.010670296855559156
0.0661034,0.026843111366891697,0.005397335915895935,0.012567632041249178,0.005747192150971017,0.07485962484633041,0.011395137060769823,0.01987119520137954,0.010631894733048937
0.066569,0.02684734308312884,0.005454003266772362,0.012615187619738637,0.005757274616749675,0.07485224676820112,0.011560300975603953,0.02023572839126303,0.010592876525698184
0.0670345,0.026849577627764673,0.005510944668057878,0.01266246763870145,0.0057670650415814475,0.07483722106305701,0.011726797797807926,0.020603846118059405,0.010553260027697664
0.0675,0.026849838714882227,0.005568159578096295,0.012709476275419773,0.0057765675187264574,0.07481464175749798,0.011894619918269886,0.020975542599332573,0.010513063010511659
0.0679655,0.02684815027329546,0.005625647352048348,0.01275621769593406,0.00578578621965381,0.07478460396494215,0.012063759371743131,0.021350811235854947,0.01047230321680419
0.068431,0.026844536438871948,0.005683407240834012,0.012802696052482293,0.005794725392139589,0.07474720385248798,0.012234207836493472,0.021729644605267905,0.010430998354449618
0.0688966,0.026839021546913845,0.005741438390117286,0.012848915480943256,0.005803389358335304,0.0747025386075298,0.012405956634075364,0.022112034455950922,0.01038916609062966
0.0693621,0.026831630124599642,0.005799739839334028,0.012894880098285731,0.005811782512807867,0.07465070640414198,0.012578996729237192,0.022497971701102112,0.010346824046018752
0.0698276,0.026822386883489233,0.005858310520763474,0.012940594000025485,0.0058199093205521454,0.07459180636924855,0.012753318729955943,0.022887446413032773,0.010303989789059631
0.0702931,0.02681131671209452,0.005917149258644061,0.01298606125769195,0.00582777431497714,0.07452593854859532,0.01292891288760151,0.023280447817678348,0.010260680830330939
0.0707586,0.026798444668517777,0.005976254768334222,0.013031285916306451,0.005835382095866835,0.07445320387254221,0.013105769097230812,0.023676964289328053,0.010216914617008544
0.0712241,0.02678379597315994,0.006035625655518801,0.01307627199187379,0.005842737327316729,0.07437370412169335,0.013283876898011845,0.02407698334557536,0.010172708527422192
0.0716897,0.026767396001501093,0.006095260415461742,0.01312102346888906,0.005849844735646995,0.07428754189238272,0.01346322547377781,0.02448049164249135,0.010128079865709023
0.0721552,0.026749270276955343,0.006155157432305747,0.013165544297861499,0.005856709107293272,0.07419482056203308,0.01364380365371126,0.024887474970022746,0.010083045856565397
0.0726207,0.026729444463802515,0.006215314978419544,0.013209838392857191,0.005863335286675992,0.07409564425440505,0.013825599913158322,0.02529791824761629,0.010037623640098393
0.0730862,0.02670794436019901,0.006275731213793435,0.01325390962906244,0.005869728174049124,0.07399011780475372,0.014008602374572797,0.025711805520071067,0.009991830266778315
0.0735517,0.026684795891270256,0.006336404185483798,0.013297761840369572,0.005875892723329214,0.07387834672490945,0.014192798808589953,0.026129119953620127,0.009945682692493392
0.0740172,0.02666002510228715,0.006397331827107174,0.013341398816986963,0.005881833939905539,0.07376043716829951,0.01437817663522971,0.02654984383224277,0.009899197773707843
0.0744828,0.026633658151928877,0.006458511958384523,0.01338482430307511,0.005887556878432198,0.07363649589492655,0.014564722925228946,0.026973958554208862,0.009852392262724337
0.0749483,0.02660572130563433,0.006519942284736242,0.013428041994410486,0.005893066640602914,0.07350663023631986,0.014752424401502508,0.02740144462885662,0.00980528280305184
0.0754138,0.02657624092904431,0.006581620396928426,0.013471055536078929,0.005898368372909349,0.07337094806047514,0.014941267440732564,0.02783228167360549,0.009757885924879741
0.0758793,0.026545243481536557,0.006643543770770875,0.013513868520200178,0.005903467264383728,0.07322955773679778,0.015131238075085806,0.028266448411206027,0.009710218040659035
0.0763448,0.026512755509855337,0.006705709766867263,0.013556484483685169,0.005908368544326557,0.07308256810106478,0.015322321994058006,0.028703922667228977,0.009662295440791323
0.0768103,0.026478803641837297,0.006768115630417829,0.013598906906027544,0.005913077480020219,0.0729300884204203,0.015514504546445375,0.02914468136779618,0.009614134289426235
0.0772759,0.026443414580234883,0.006830758491074953,0.01364113920713084,0.005917599374429253,0.07277222835841946,0.015707770742442055,0.02958870053755621,0.009565750620367854
0.0777414,0.026406615096638573,0.006893635362851913,0.01368318474517266,0.005921939563888094,0.07260909794013584,0.015902105255863077,0.03003595529790778,0.009517160333090618
0.0782069,0.02636843202549883,0.006956743144085062,0.013725046814507062,0.005926103415777073,0.07244080751734763,0.016097492426492138,0.030486419865474235,0.00946837918886509
0.0786724,0.026328892258248582,0.007020078617449655,0.013766728643606374,0.005930096326187429,0.07226746773381815,0.016293916262553478,0.030940067550832236,0.009419422806993918
0.0791379,0.02628802273752676,0.00708363845002945,0.013808233393043549,0.005933923717576128,0.07208918949068638,0.016491360443307176,0.03139687075749781,0.009370306661158234
0.0796034,0.026245850451503273,0.007147419193440189,0.013849564153516078,0.005937591036411224,0.07190608391198317,0.01668980832176725,0.03185680098117307,0.009321046075874608
0.080069,0.026202402428305606,0.007211417284006999,0.013890723943912504,0.005941103750808547,0.07171826231028873,0.016889242927541945,0.03231982880925725,0.009271656223062691
0.0805345,0.026157705730547036,0.007275629042995695,0.013931715709422405,0.0059444673481604685,0.07152583615254715,0.017089646969795532,0.03278592392062609,0.009222152118723514
0.081,0.026111787449956396,0.0073400506768979525,0.01397254231969076,0.005947687332757524,0.07132891702605286,0.017291002840331044,0.033255055085684125,0.009172548619728403
0.0814655,0.026064674702109054,0.007404678277770281,0.014013206567017556,0.005950769223403668,0.07112761660462429,0.017493292616793266,0.03372719016669497,0.009122860420718358
0.081931,0.026016394621258886,0.0074695078236266905,0.014053711164603513,0.005953718551025952,0.07092204661497888,0.017696498065991193,0.03420229611839447,0.00907310205111368
0.0823966,0.025966974355270886,0.007534535178884944,0.014094058744842753,0.005956540856279399,0.07071231880332382,0.017900600647339168,0.03468033898889203,0.009023287872233615
0.0828621,0.02591644106065405,0.00759975609486629,0.014134251857663215,0.005959241687147866,0.07049854490217591,0.018105581516415833,0.03516128392086496,0.00897343207452565
0.0833276,0.025864821897694235,0.007665166210348509,0.014174292968915559,0.00596182659654167,0.07028083659742387,0.01831142152863997,0.03564509515305046,0.008923548674904176
0.0837931,0.025812144025686556,0.007730761052172112,0.014214184458811294,0.005964301139892747,0.07005930549564604,0.0185181012430623,0.036131736022039784,0.008873651514198087
0.0842586,0.025758434598266777,0.007796536035899503,0.01425392862041085,0.005966670872748089,0.06983406309169576,0.018725600926272273,0.03662116896437899,0.008823754254706911
0.0847241,0.025703720758841128,0.007862486466526836,0.014293527658162363,0.005968941348362196,0.06960522073656669,0.01893390055641877,0.03711335551898041,0.008773870377865043
0.0851897,0.025648029636113706,0.007928607539248357,0.014332983686492072,0.005971118115289176,0.06937288960554933,0.01914297982734378,0.03760825632984884,0.008724013182013593
0.0856552,0.0255913883397105,0.007994894340272871,0.014372298728447227,0.005973206714975195,0.06913718066669008,0.019352818152827973,0.0381058311491263,0.008674195780279432
0.0861207,0.02553382395589902,0.008061341847692012,0.014411474714392416,0.005975212679351876,0.06889820464956369,0.019563394670947143,0.03860603884045892,0.008624431098560944
0.0865862,0.025475363543402144,0.008127944932399867,0.014450513480760213,0.005977141528431273,0.06865607201436856,0.01977468824853867,0.0391088373826893,0.00857473187362
0.0870517,0.025416034129304748,0.008194698359063515,0.01448941676885686,0.005978998767903024,0.06841089292135537,0.019986677485777097,0.03961418387387753,0.008525110651279687
0.0875172,0.025355862705051593,0.008261596787143909,0.014528186223723724,0.005980789886734268,0.06816277720059762,0.020199340720857935,0.04012203453565384,0.008475579784727216
0.0879828,0.02529487622253456,0.008328634771966525,0.014566823393055203,0.0059825203547729236,0.06791183432211297,0.020412656034788795,0.04063234471790553,0.008426151432921395
0.0884483,0.025233101590267284,0.008395806765841101,0.014605329726173575,0.005984195620354884,0.06765817336634364,0.02062660125628673,0.04114506890380088,0.008376837559104056
0.0889138,0.025170565669645092,0.008463107119229733,0.01464370657306136,0.005985821107915674,0.06740190299500355,0.02084115396678074,0.04166016071515237,0.008327649929414737
0.0893793,0.025107295271287893,0.00853053008196257,0.01468195518345158,0.005987402215607114,0.0671431314222994,0.021056291505518188,0.04217757291812126,0.008278600111607838
0.0898448,0.02504331715146346,0.008598069804500237,0.014720076705976338,0.005988944312919532,0.06688196638653252,0.0212719909747739,0.042697257429265695,0.008229699473871475
0.0903103,0.024978658008588537,0.008665720339242131,0.014758072187374006,0.005990452738310037,0.06661851512208793,0.021488229245160705,0.043219165321933914,0.008180959183747165
0.0907759,0.024913344479805016,0.008733475641879707,0.014795942571755299,0.0059919327968374,0.06635288433181637,0.021704982961039978,0.04374324683300451,0.008132390207149447
0.0912414,0.02484740313762833,0.00880132957279385,0.014833688699928474,0.005993389757804072,0.0660851801598145,0.021922228546030667,0.04426945136997505,0.008084003307484487
0.0917069,0.024780860486665317,0.008869275898495427,0.014871311308783755,0.005994828852405853,0.0658155081646083,0.022139942208615104,0.04479772751840036,0.008035809044866686
0.0921724,0.024713742960398542,0.008937308293108088,0.014908811030737051,0.005996255271389713,0.06554397329274357,0.022358099947839903,0.045328023049681525,0.007987817775432268
0.0926379,0.024646076918034235,0.009005420339892494,0.01494618839323289,0.005997674162720249,0.06527067985278777,0.022576677559110005,0.04586028492920625,0.007940039650748762
0.0931034,0.024577888641410868,0.009073605532811021,0.014983443818306547,0.005999090629255219,0.06499573148974598,0.022795650640073915,0.046394459324841195,0.00789248461731921
0.093569,0.02450920433196539,0.009141857278132074,0.015020577622205294,0.006000509726430559,0.06471923115989398,0.023014994596598035,0.046930491615776594,0.007845162416179875
0.0940345,0.024440050107753967,0.00921016889607314,0.015057590015068706,0.0060019364599553544,0.0644412811060306,0.02323468464882792,0.047468326401723236,0.007798082582590166
0.0945,0.02437045200052418,0.009278533622481709,0.01509448110066798,0.006003375783517174,0.06416198283315108,0.023454695837334286,0.04800790751246181,0.007751254445813403
0.0949655,0.024300435952835577,0.009346944610553175,0.015131250876204252,0.006004832596498291,0.06388143708454253,0.023675003029341425,0.04854917801774406,0.0077046871289870025
0.095431,0.024230027815225756,0.009415394932584892,0.01516789923216581,0.006006311741703323,0.06359974381830276,0.02389558092503588,0.049092080237545195,0.007658389549080565
0.0958966,0.024159253343419222,0.009483877581765526,0.015204425952244053,0.006007818003098909,0.06331700218428268,0.02411640406395333,0.049636555752666456,0.0076123704169403115
0.0963621,0.024088138195576606,0.009552385473998833,0.015240830713307986,0.006009356103566134,0.06303331050145267,0.02433744683144166,0.050182545415686404,0.0075666382374182635
0.0968276,0.024016707929581795,0.009620911449760999,0.01527711308543701,0.006010930702666502,0.06274876623569262,0.024558683465198457,0.05072998936225929,0.007521201309584457
0.0972931,0.023944988000364834,0.009689448275990697,0.015313272532011694,0.0060125463944222714,0.062463465978005214,0.024780088061881287,0.05127882702275843,0.007476067727020474
0.0977586,0.02387300375725834,0.009757988648010963,0.015349308409862135,0.00601420770511213,0.0621775054231514,0.02500163458378947,0.05182899713426204,0.007431245378192487
0.0982241,0.023800780441385425,0.009826525191481982,0.015385219969473493,0.006015919091083191,0.061890979348707055,0.02522329686561592,0.052380437752878574,0.007386741946901976
0.0986897,0.02372834318307705,0.009895050464383884,0.015421006355248163,0.00601768493658035,0.06160398159454032,0.025445048621267726,0.05293308626640848,0.007342564912812234
0.0991552,0.023655716999316893,0.009963556959028584,0.015456666605824013,0.0060195095515940674,0.06131660504270867,0.025666863450754016,0.05348687940733841,0.007298721552048761
0.0996207,0.023582926791211944,0.010032037104099653,0.015492199654448055,0.006021397169727615,0.06102894159777558,0.025888714847139692,0.05404175326616376,0.007255218937871602
0.1000862,0.023509997341487066,0.010100483266719184,0.015527604329404853,0.006023351946084827,0.060741082167546784,0.026110576203563753,0.05459764330503507,0.007212063941417677
0.1005517,0.02343695331200182,0.01016888775454054,0.015562879354498944,0.006025377955179325,0.06045311664422653,0.02633242082032083,0.05515448437172305,0.007169263232511118
0.1010172,0.023363819241287942,0.010237242817865859,0.01559802334959054,0.006027479188866184,0.06016513388599509,0.026554221912004766,0.055712210713897065,0.007126823280539673
0.1014828,0.023290619542105737,0.010305540651787225,0.01563303483118376,0.006029659554296937,0.059877221699009664,0.026775952614712786,0.056270755993710786,0.007084750355395157
0.1019483,0.023217378499017637,0.010373773398350442,0.01566791221306661,0.0060319228718987575,0.05958946681983118,0.026997585993308905,0.056830053302689094,0.007043050528476038
0.1024138,0.023144120265977022,0.010441933148740484,0.015702653807001837,0.006034272873378699,0.0593019548982807,0.02721909504874491,0.05739003517690931,0.007001729673750187
0.1028793,0.023070868863930248,0.010510011945487828,0.015737257823467805,0.006036713199753804,0.05901477048072919,0.027440452725437187,0.05795063361246954,0.0069607934688759
0.1033448,0.02299764817842973,0.010578001784695033,0.01577172237244834,0.006039247399407926,0.05872799699382563,0.027661631918697527,0.05851178008123662,0.006920247396379323
0.1038103,0.022924481957255674,0.010645894618283091,0.015806045464270634,0.006041878926176127,0.058441716728668706,0.027882605482216032,0.05907340554686557,0.006880096744886449
0.1042759,0.022851393808044164,0.010713682356257205,0.015840225010490174,0.006044611137457506,0.05815601082542803,0.028103346235594073,0.05963544048108224,0.006840346610407877
0.1047414,0.02277840719591906,0.010781356868991735,0.015874258824821935,0.006047447292357398,0.057870959258420895,0.028323826971925134,0.06019781488022019,0.006801001897674558
0.1052069,0.02270554544112541,0.010848909989534188,0.015908144624117018,0.006050390549859814,0.05758664082165027,0.028544020465421222,0.060760458282002855,0.006762067321522797
0.1056724,0.0226328317166622,0.010916333515928094,0.015941880029384292,0.006053443967031102,0.05730313311480966,0.02876389947908252,0.06132329978256144,0.006723547408326783
0.1061379,0.02256028904591239,0.010983619213554757,0.015975462566856617,0.006056610497255772,0.05702051252975995,0.028983436772407837,0.06188626805367908,0.0066854464974770034
0.1066034,0.022487940300268627,0.011050758817493836,0.016008889669101342,0.006059892988505475,0.056738854237482914,0.029202605109143468,0.06244929136025216,0.006647768742902916
0.107069,0.022415808196753508,0.011117744034902672,0.01604215867617485,0.006063294181642166,0.056458232175515675,0.029421377265067925,0.06301229757795955,0.006610518114638296
0.1075345,0.022343915295633572,0.011184566547414355,0.016075266836820794,0.006066816708756488,0.056178719035869906,0.029639726035810023,0.06357521421113137,0.006573698400427757
0.108,0.022272283998026873,0.011251218013554441,0.01610821130971185,0.006070463091542444,0.055900386253439044,0.029857624244697668,0.06413796841080889,0.006537313207372941
0.1084655,0.02220093654350424,0.011317690071176187,0.016140989164734686,0.006074235739709384,0.05562330399489638,0.03007504475063463,0.0647004869929876,0.0065013659636169695
0.108931,0.02212989500768484,0.011383974339914156,0.016173597384317954,0.006078136949432363,0.05534754114808645,0.03029196045600232,0.06526269645703514,0.006465859920065771
0.1093966,0.022059181299826695,0.01145006242365595,0.016206032864802995,0.006082168901841882,0.05507316531191173,0.03050834431458336,0.06582452300427609,0.006430798152144955
0.1098621,0.02198881716041286,0.01151594591303174,0.01623829241785695,0.00608633366155405,0.054800242786716226,0.030724169339503647,0.0663858925567353,0.0063961835615909245
0.1103276,0.02191882415873386,0.011581616387921245,0.01627037277192788,0.006090633175242159,0.05452883856516718,0.030939408611189247,0.0669467307760318,0.006362018878274931
0.1107931,0.02184922369046697,0.01164706541997767,0.016302270573741517,0.006095069270250697,0.054259016323635924,0.0311540352853344,0.0675069630824154,0.006328306662058795
0.1112586,0.02178003697525254,0.011712284575168107,0.01633398238983905,0.006099643653252784,0.053990838414078327,0.031368022600876636,0.06806651467393789,0.006295049304681008
0.1117241,0.021711285054267684,0.011777265416329756,0.016365504708155502,0.006104357908952059,0.05372436585641547,0.03158134388797482,0.06862531054575148,0.006262249031671888
0.1121897,0.021642988787797274,0.011841999505741312,0.016396833939638093,0.006109213498829975,0.05345965833141452,0.03179397257598572,0.06918327550952637,0.006229907904296425
0.1126552,0.021575168852802144,0.011906478407708766,0.016427966419904003,0.006114211759939514,0.05319677417406966,0.0320058822014345,0.06974033421297987,0.006198027821523452
0.1131207,0.02150784574048437,0.011970693691164729,0.016458898410937072,0.006119353903746218,0.05293577036748236,0.032217046415974455,0.0702964111595098,0.0061666105220196735
0.1135862,0.021441039753849363,0.01203463693228036,0.016489626102822896,0.006124641015017472,0.052676702537240196,0.03242743899433093,0.07085143072792414,0.006135657586167048
0.1140517,0.02137477100526461,0.012098299717088864,0.01652014561552189,0.0061300740507608765,0.05241962494629279,0.03263703384222443,0.07140531719225961,0.006105170438101976
0.1145172,0.02130905941401488,0.012161673644119407,0.016550453000679692,0.006135653839212536,0.05216459049032351,0.03284580500426772,0.07195799474168109,0.006075150347774715
0.1149828,0.02124392470385381,0.012224750327040266,0.01658054424347434,0.006141381078876034,0.05191165069361526,0.03305372667183177,0.07250938750045462,0.006045598433027407
0.1154483,0.021179386400551767,0.012287521397309924,0.01661041526449939,0.0061472563376128355,0.05166085570540903,0.03326077319087553,0.07305941954798588,0.0060165156616890985
0.1159138,0.021115463829440097,0.01234997850683475,0.016640061921682194,0.006153280051784825,0.05141225429675358,0.03346691906973437,0.07360801493891644,0.005987902853686193
0.1163793,0.02105217611295188,0.012412113330631826,0.016669480012236386,0.006159452525449668,0.05116589385784517,0.03367213898686241,0.07415509772326968,0.005959760683166742
0.1168448,0.02098954216815929,0.012473917569495488,0.016698665274647646,0.006165773929609635,0.05092182039585632,0.03387640779852396,0.07470059196663821,0.005932089680637104
0.1173103,0.020927580704307728,0.012535382952666058,0.016727613390691714,0.006172244301514549,0.05068007853325268,0.03407970054642944,0.07524442177040488,0.005904890235109527
0.1177759,0.020866310220346733,0.012596501240499264,0.0167563199874838,0.0061788635440194395,0.05044071150659744,0.03428199246531131,0.07578651129198964,0.005878162596259314
0.1182414,0.02080574900245759,0.012657264227134842,0.01678478063955851,0.006185631424997529,0.05020376116584259,0.03448325899043554,0.07632678476511426,0.0058519068765903294
0.1187069,0.020745915121577547,0.012717663743162789,0.01681299087097951,0.0061925475768091175,0.049969267974106495,0.034683475765044415,0.07686516652007756,0.005826123053607739
0.1191724,0.02068682643092021,0.012777691658285753,0.01684094615747811,0.00619961149582692,0.049737271007936804,0.034882618647726224,0.07740158100403301,0.00580081097199694
0.1196379,0.020628500563491903,0.012837339883976012,0.016868641928620056,0.006206822542018375,0.049507807958058016,0.035080663719707326,0.07793595280126063,0.005775970345807825
0.1201034,0.02057095492960354,0.012896600376125484,0.016896073569999632,0.006214179938585417,0.04928091513060235,0.03527758729206189,0.07846820665342505,0.0057516007606436045
0.120569,0.020514206714377925,0.012955465137687184,0.016923236425460175,0.006221682771662189,0.049056627448822714,0.03547336591283454,0.07899826747981102,0.0057277016758535545
0.1210345,0.02045827287525234,0.013013926221306486,0.01695012579934004,0.006229329990071111,0.048834978455286254,0.03566797637407132,0.0795260603975284,0.005704272426729175
0.1215,0.02040317013947664,0.013071975731940612,0.016976736958743077,0.006237120405137687,0.04861600031454686,0.035861395718754525,0.08005151074167893,0.0056813122267033046
0.1219655,0.020348915001607286,0.013129605829464703,0.01700306513583277,0.006245052690564403,0.048399723816294746,0.03605360124763754,0.08057454408547843,0.0056588201695518285
0.122431,0.020295523720997844,0.013186808731262874,0.01702910553014903,0.006253125382364001,0.04818617837898125,0.03624457052597629,0.08109508626032877,0.0056367952315976855
0.1228966,0.02024301231928671,0.013243576714802656,0.017054853310946843,0.00626133687885242,0.04797539205391678,0.03643428139015416,0.08161306337583604,0.005615236273916898
0.1233621,0.02019139657788276,0.013299902120191155,0.017080303619555738,0.0062696854407015955,0.047767391529839796,0.036622711954197376,0.08212840183977191,0.0055941420445464116
0.1238276,0.020140692035449683,0.013355777352711384,0.017105451571759214,0.00627816919105233,0.04756220213795459,0.03680984061617797,0.08264102837797582,0.005573511180693498
0.1242931,0.020090913985389872,0.013411194885337185,0.017130292260193046,0.0062867861156874,0.0473598478574353,0.0369956460645016,0.08315087005419594,0.005553342210946482
0.1247586,0.020042077473328895,0.013466147261225154,0.017154820756761505,0.006295534063265057,0.04716035132139372,0.03718010728407761,0.08365785428986615,0.0055336335574865305
0.1252241,0.019994197294601893,0.01352062709618192,0.01717903211507037,0.006304410745613068,0.04696373382330781,0.03736320356236895,0.08416190888381646,0.0055143835383001955
0.1256897,0.019947287991743615,0.013574627081105135,0.01720292137287568,0.006313413738083425,0.046770015323907836,0.037544914495319444,0.0846629620319136,0.005495590369392386
0.1261552,0.01990136385198402,0.013628139984396354,0.017226483554547117,0.006322540479967815,0.046579214458516344,0.03772521999315644,0.08516094234662835,0.005477252166999437
0.1266207,0.019856438904751653,0.013681158654344003,0.017249713673544775,0.006331788274973955,0.04639134854483832,0.03790410028606655,0.08565577887652555,0.005459366949801872
0.1270862,0.01981252691918716,0.013733676021474444,0.017272606734908262,0.006341154291762832,0.04620643359119713,0.038081535929742526,0.0861474011256729,0.005441932641136469
0.1275517,0.019769641401669414,0.013785685100869166,0.01729515773775679,0.0063506355645469165,0.046024484305211694,0.03825750781079925,0.08663573907296412,0.005424947071207209
0.1280172,0.01972779559335654,0.013837178994446087,0.01731736167779904,0.006360228993749333,0.04584551410290999,0.03843199715205659,0.08712072319135156,0.005408407979294657
0.1284828,0.01968700246774433,0.01388815089320293,0.017339213549851448,0.006369931346723939,0.04566953511827373,0.038604985517686874,0.08760228446698344,0.0053923130159633246
0.1289483,0.01964727472824416,0.013938594079420778,0.017360708350363633,0.006379739258536264,0.0454965582132086,0.038776454818224275,0.08808035441824051,0.005376659745266526
0.1294138,0.01960862480578255,0.01398850192882587,0.017381841079949494,0.006389649232805158,0.045326592987934136,0.038946387315433505,0.08855486511466645,0.005361445646948227
0.1298793,0.019571064856424448,0.014037867912707929,0.017402606745922648,0.0063996576426049835,0.04515964779178682,0.03911476562703496,0.08902574919578701,0.005346668118641344
0.1303448,0.01953460675902216,0.014086685599993331,0.017423000364834695,0.0064097607314281355,0.04499572973443009,0.03928157273128363,0.08949293988981225,0.005332324478061901
0.1308103,0.01949926211289188,0.014134948659271644,0.0174430169650148,0.006419954614207613,0.04483484469746413,0.039446791971399144,0.08995637103221747,0.005318411965198479
0.1312759,0.019465042235519654,0.01418265086077412,0.01746265158910911,0.0064302352783993134,0.04467699734642833,0.03961040705984458,0.09041597708419807,0.005304927744496338
0.1317414,0.019431958160298624,0.014229786078302886,0.01748189929661842,0.006440598585123706,0.04452219114318931,0.03977240208245153,0.09087169315099364,0.0052918689070356436
0.1322069,0.019400020634299197,0.014276348291109636,0.01750075516643247,0.006451040270366464,0.044370428358707005,0.03993276150238902,0.09132345500007694,0.005279232472703189
0.1326724,0.019369240116073893,0.014322331585722667,0.017519214299359282,0.006461555946237607,0.04422171008617131,0.04009147016397377,0.09177119907920324,0.00526701539235705
0.1331379,0.019339626773498545,0.014367730157721104,0.017537271820647852,0.006472141102288651,0.04407603625450213,0.04024851329631911,0.09221486253431492,0.0052552145499836205
0.1336034,0.019311190481651697,0.014412538313455132,0.017554922882502492,0.006482791106887231,0.04393340564220523,0.04040387651682047,0.09265438322729608,0.005243826764846439
0.134069,0.01928394082073417,0.014456750471710945,0.017572162666587152,0.006493501208648626,0.04379381589157639,0.04055754583447521,0.09308969975357212,0.005232848793626224
0.1345345,0.019257887074030804,0.014500361165319095,0.017588986386517937,0.0065042665379235675,0.04365726352324634,0.040709507653035576,0.09352075145954855,0.005222277332551492
0.135,0.01923303822591646,0.014543365042704917,0.01760538929034205,0.00651508210834169,0.043523743951058756,0.04085974877399371,0.0939474784598835,0.005212109019519132
0.1354655,0.019209402959908393,0.014585756869379712,0.017621366663001393,0.006525942818409918,0.04339325149727377,0.04100825639939831,0.09436982165458764,0.005202340436204276
0.135931,0.01918698965676692,0.014627531529371495,0.017636913828778987,0.0065368434531651145,0.04326577940808943,0.04115501813450233,0.09478772274594553,0.005192968110158843
0.1363966,0.019165806392646246,0.01466868402659432,0.017652026153726456,0.006547778685880228,0.04314131986947362,0.04130002199024135,0.09520112425525208,0.005183988516898117
0.1368621,0.019145860937297157,0.014709209486155466,0.017666699048070708,0.0065587430798232,0.04301986402329946,0.04144325638554208,0.09560996953935737,0.005175398081974713
0.1373276,0.019127160752323197,0.014749103155600102,0.01768092796859806,0.006569731090067849,0.042901401983776934,0.04158471014946005,0.09601420280701295,0.005167193183039332
0.1377931,0.019109712989491715,0.014788360406093425,0.01769470842101389,0.006580737065355937,0.04278592285417441,0.04172437252314602,0.0964137691350122,0.005159370151887638
0.1382586,0.01909352448910111,0.014826976733540616,0.017708035962276044,0.006591755250009618,0.04267341474382308,0.0418622331616403,0.09680861448411658,0.005151925276492622
0.1387241,0.019078601778405462,0.014864947759645392,0.017720906202900177,0.006602779785893451,0.04256386478539772,0.04199828213549454,0.0971986857147601,0.005144854803021782
0.1391897,0.019064951070097657,0.014902269232908145,0.017733314809235484,0.006613804714425134,0.04245725915246705,0.04213250993222081,0.09758393060252493,0.005138154937838498
0.1396552,0.019052578260852153,0.014938937029564926,0.01774525750570934,0.006624823978634089,0.04235358307730654,0.042264907457568224,0.09796429785338086,0.005131821849486991
0.1401207,0.019041488929928494,0.014974947154468626,0.017756730077039713,0.006635831425266984,0.04225282086896657,0.04239546603662792,0.09833973711868306,0.005125851670660326
0.1405862,0.01903168833783674,0.01501029574191378,0.017767728370414328,0.006646820806939274,0.04215495593158855,0.04252417741476768,0.09871019900992187,0.005120240500150937
0.1410517,0.019023181425066066,0.015044979056406414,0.017778248297635624,0.006657785784331803,0.04205997078296146,0.04265103375839762,0.09907563511321842,0.005114984404783226
0.1415172,0.01901597281087777,0.0150789934933803,0.017788285837230734,0.006668719928431462,0.04196784707331079,0.04277602765556911,0.09943599800356055,0.005110079421327803
0.1419828,0.01901006679216381,0.0151123355798609,0.017797837036525526,0.006679616722814927,0.04187856560431176,0.042899152116409496,0.0997912412587732,0.005105521558397014
0.1424483,0.019005467342371987,0.015145001975078188,0.017806898013681884,0.006690469565974471,0.04179210634831839,0.04302040057339591,0.10014131947321811,0.005101306798321414
0.1429138,0.019002178110498726,0.015176989471029504,0.017815464959697352,0.00670127177368489,0.04170844846779989,0.043139766881471746,0.10048618827121888,0.0050974310990069055
0.1433793,0.01900020242015039,0.015208294992993346,0.01782353414036626,0.006712016581410571,0.04162757033497554,0.043257245318009924,0.1008258043202085,0.005093890395772299
0.1438448,0.01899954326867398,0.015238915599995068,0.017831101898201543,0.006722697146751763,0.041549449551638966,0.0433728305826267,0.10116012534359715,0.005090680603167089
0.1443103,0.019000203326358024,0.015268848485225327,0.01783816465431658,0.006733306551929143,0.04147406296916284,0.043486517796850144,0.10148911013335801,0.005087797616769275
0.1447759,0.019002184935704443,0.015298090976412132,0.017844718910266476,0.006743837806305734,0.04140138670867488,0.04359830250364689,0.10181271856232882,0.005085237314963024
0.1452414,0.019005490110772134,0.015326640536147329,0.017850761249848354,0.006754283848945275,0.041331396181396016,0.04370818066681072,0.10213091159622617,0.0050829955606960225
0.1457069,0.019010120536592914,0.0153544947621683,0.017856288340860418,0.00676463755120609,0.04126406610913164,0.04381614867021657,0.1024436513053689,0.005081068203216323
0.1461724,0.019016077568660444,0.01538165138759565,0.01786129693681967,0.006774891719369515,0.041199370544907014,0.043922203316943464,0.1027509008761066,0.005079451079788495
0.1466379,0.019023362232492794,0.015408108281127583,0.01786578387863833,0.006785039097301882,0.041137282893737574,0.044026341828270255,0.10305262462194864,0.0050781400173888986
0.1471034,0.019031975223269208,0.015433863447191698,0.01786974609625914,0.0067950723691489875,0.04107777593352506,0.044128561842547744,0.10334878799438837,0.005077130834379876
0.147569,0.019041916905541596,0.01545891502605468,0.017873180610249707,0.006804984162061986,0.041020821836069976,0.044228861413951166,0.1036393575934176,0.005076419342162638
0.1480345,0.019053187313021167,0.015483261293890478,0.017876084533356162,0.006814767048953566,0.04096639218819098,0.044327239011116945,0.10392430117772528,0.005076001346808635
0.1485,0.019065786148440594,0.015506900662807306,0.01787845507201631,0.006824413551283217,0.04091445801294151,0.04442369351566763,0.10420358767457553,0.005075872650669185
0.1489655,0.01907971278349185,0.015529831680833737,0.017880289527832677,0.006833916141870374,0.040864989790913867,0.04451822422062904,0.10447718718935839,0.005076029053963143
0.149431,0.019094966258839906,0.015552053031864133,0.017881585299005767,0.006843267247734206,0.04081795748162085,0.044610830828743356,0.10474507101480719,0.005076466356342411
0.1498966,0.01911154528421233,0.01557356353556345,0.0178823398817281,0.006852459252958765,0.04077333054494492,0.044701513450681615,0.10500721163987665,0.0050771803584351
0.1503621,0.019129448238564807,0.015594362147231469,0.017882550871539567,0.006861484501582254,0.04073107796264478,0.04479027260315923,0.10526358275827637,0.005078166863366194
0.1508276,0.01914867317032259,0.015614447957626287,0.017882215964644517,0.006870335300509145,0.0406911682599092,0.04487710920695778,0.10551415927665601,0.0050794216782555635
0.1512931,0.0191692177976979,0.015633820192746905,0.017881332959191202,0.0068790039224439275,0.04065356952694756,0.044962024584856264,0.1057589173224395,0.00508094061569322
0.1517586,0.01919107950908329,0.015652478213574583,0.017879899756513943,0.006887482608845246,0.0406182494406067,0.04504502045947457,0.10599783425130636,0.005082719495191712
0.1522241,0.01921425536352105,0.015670421515772578,0.01787791436233848,0.0068957635728992385,0.04058517528600325,0.04512609895103176,0.10623088865431944,0.00508475414461557
0.1526897,0.019238742091248744,0.01568764972934378,0.017875374887950816,0.006903839002510917,0.040554313978160596,0.045205262575021464,0.10645806036469846,0.005087040401587742
0.1531552,0.019264536094321057,0.015704162618245712,0.01787227955132994,0.0069117010633124995,0.04052563208363913,0.045282514239806476,0.10667933046423962,0.005089574114872916
0.1536207,0.019291633447308127,0.01571996007996233,0.01786862667824474,0.006919341901687665,0.040499095842148274,0.045357857244134006,0.1068946812893824,0.005092351145737643
0.1540862,0.01932002989807054,0.015735042145032078,0.017864414703315352,0.006926753647810806,0.04047467118812834,0.04543129527457319,0.10710409643692517,0.005095367369287149
0.1545517,0.019349720868611267,0.015749408976531654,0.017859642171039216,0.006933928418700408,0.04045232377229026,0.045502832402876156,0.10730756076939131,0.005098618675778738
0.1550172,0.01938070145600487,0.01576306086951504,0.017854307736782024,0.006940858321285809,0.04043201898310065,0.04557247308326362,0.10750506042004786,0.005102100971911681
0.1554828,0.019412966433404323,0.015775998250407413,0.01784841016773378,0.006947535455486631,0.040413721968199756,0.045640222149635895,0.10769658279757921,0.005105810182093569
0.1559483,0.019446510251125777,0.015788221676353666,0.01784194834383011,0.006953951917304267,0.04039739765573938,0.045706084812709956,0.10788211659041906,0.005109742249683049
0.1564138,0.019481327037811497,0.015799731834521324,0.017834921258639,0.006960099801924825,0.040383010775628,0.045770066657083316,0.10806165177074464,0.0051138931382089655
0.1568793,0.01951741060167121,0.015810529541357893,0.017827328020213078,0.006965971206832985,0.04037052588067,0.045832173638225164,0.10823517959813887,0.0051182588325659
0.1573448,0.01955475443180185,0.01582061574180277,0.017819167851907562,0.006971558234936232,0.04035990736758575,0.04589241207939513,0.10840269262292629,0.005122835340186143
0.1578103,0.0195933516995858,0.015829991508454072,0.017810440093163914,0.006976852997698941,0.04035111949789932,0.04595078866848974,0.10856418468918878,0.005127618692188142
0.1582759,0.019633195260167508,0.015838658040690862,0.01780114420025934,0.00698184761828578,0.040344126418680064,0.04600731045481632,0.108719650937467,0.005132604944501497
0.1587414,0.019674277654008313,0.015846616663751534,0.01779127974702214,0.00698653423471384,0.04033889218312422,0.04606198484579385,0.10886908780715238,0.005137790178968581
0.1592069,0.0197165911085193,0.01585386882776915,0.017780846425513,0.006990905003012926,0.040335380770962374,0.04611481960357999,0.1090124930385745,0.005143170504422875
0.1596724,0.019760127539771848,0.015860416106764686,0.01776984404667219,0.006994952100393341,0.04033355610867828,0.04616582284162325,0.10914986567478822,0.005148742057744085
0.1601379,0.0198048785542856,0.01586626019759922,0.017758272540932794,0.00699866772842052,0.04033338208952414,0.04621500302113957,0.10928120606306448,0.0051545010048901175
0.1606034,0.01985083545089361,0.015871402918886068,0.01774613195879988,0.0070020441161958635,0.040334822593317325,0.04626236894751191,0.10940651585608849,0.0051604435419059696
0.161069,0.01989798922268444,0.015875846209864083,0.01773342247139569,0.007005073523543129,0.040337841506003336,0.04630792976661167,0.10952579801286863,0.005166565895909583
0.1615345,0.019946330559021026,0.01587959212923312,0.01772014437097074,0.007007748244199747,0.04034240273896965,0.04635169496104027,0.10963905679935848,0.005172864326054693
0.162,0.019995849847636117,0.015882642853952862,0.01770629807138092,0.007010060609012484,0.04034847024809513,0.04639367434628908,0.10974629778879429,0.005179335124470705
0.1624655,0.02004653717680417,0.015885000678006283,0.017691884108530457,0.007012002989136872,0.04035600805251983,0.04643387806681589,0.10984752786174931,0.005185974617179618
0.162931,0.02009838233758958,0.015886668011129,0.017676903140780856,0.007013567799239872,0.04036498025312004,0.046472316592036385,0.10994275520590603,0.005192779164990016
0.1633966,0.020151374826171336,0.015887647377506118,0.017661355949325816,0.007014747500705246,0.04037535105067416,0.04650900071222914,0.11003198931554777,0.005199745164368191
0.1638621,0.020205503846244494,0.015887941414438052,0.017645243438532274,0.007015534604841122,0.040387084763705505,0.046543941534353296,0.11011524099077022,0.005206869048286416
0.1643276,0.02026075831149889,0.01588755287097696,0.01762856663624791,0.007015921676089236,0.04040014584598912,0.04657715047777791,0.11019252233641477,0.0052141472870484255
0.1647931,0.020317126848175777,0.015886484606535325,0.017611326694075495,0.007015901335235354,0.040414498903710454,0.04660863926992207,0.11026384676072476,0.00522157638909214
0.1652586,0.020374597797703075,0.015884739589468212,0.017593524887614623,0.007015466262620312,0.04043010871226483,0.04663841994180465,0.11032922897372609,0.005229152901769658
0.1657241,0.020433159219409903,0.015882320895630755,0.01757516261667118,0.007014609201351156,0.04044694023268712,0.04666650482350273,0.11038868498533319,0.00523687341210454
0.1661897,0.02049279889332106,0.015879231706912262,0.017556241405434988,0.007013322960511806,0.04046495862770211,0.046692906539517305,0.11044223210318124,0.005244734547526402
0.1666552,0.02055350432303208,0.01587547530974841,0.01753676290262578,0.007011600418372652,0.040484129277387045,0.0467176380040449,0.11048988893018453,0.005252732976582877
0.1671207,0.02061526273866545,0.01587105509361279,0.017516728881607758,0.0070094345255984685,0.0405044177944394,0.046740712416153574,0.11053167536182154,0.005260865409629016
0.1675862,0.02067806109990861,0.01586597454948904,0.017496141240472808,0.007006818308454032,0.04052579003904435,0.04676214325486141,0.11056761258314604,0.005269128599494259
0.1680517,0.020741886099134462,0.015860237268324754,0.017475002002092403,0.0070037448720068115,0.040548212133338014,0.046781944274115216,0.11059772306552314,0.005277519342127116
0.1685172,0.020806724164605078,0.01585384693946816,0.017453313314138245,0.007000207403326081,0.040571650475463135,0.04680012949766715,0.11062203056308788,0.005286034477217757
0.1689828,0.020872561463759435,0.01584680734908858,0.017431077449071554,0.006996199174677825,0.04059607175321471,0.046816713213846714,0.11064056010892362,0.0052946708887986705
0.1694483,0.02093938390658601,0.015839122378581514,0.017408296804101005,0.006991713546714815,0.04062144295727356,0.04683170997022508,0.11065333801095634,0.005303425505823618
0.1699138,0.021007177149081145,0.01583079600295918,0.017384973901109296,0.006986743971661266,0.040647731394025985,0.04684513456816902,0.11066039184756032,0.00531229530272504
0.1703793,0.021075926596793988,0.015821832289227098,0.017361111386548386,0.006981283996491493,0.04067490469796831,0.04685700205728155,0.1106617504628696,0.005321277299950102
0.1708448,0.021145617408458776,0.01581223539474734,0.0173367120313034,0.006975327266102019,0.04070293084369518,0.046867327729726904,0.11065744396178881,0.005330368564475512
0.1713103,0.021216234499715138,0.015802009565588828,0.01731177873052522,0.006968867526476648,0.04073177815747082,0.046876127114438636,0.11064750370469643,0.005339566210301238
0.1717759,0.021287762546917034,0.01579115913486511,0.017286314503431596,0.006961898627843953,0.04076141532838276,0.046883415971210415,0.11063196230183305,0.00534886739892324
0.1722414,0.021360185991030886,0.01577968852105985,0.01726032249307681,0.006954414527826659,0.040791811419077756,0.04688921028467023,0.11061085360736564,0.0053582693397853055
0.1727069,0.021433489041623406,0.015767602226340223,0.017233805966089703,0.006946409294582344,0.04082293587608011,0.046893526258139466,0.11058421271311952,0.005367769290710047
0.1731724,0.02150765568093953,0.01575490483485836,0.017206768312379984,0.006937877109934863,0.040854758539693364,0.04689638030737846,0.11055207594196803,0.005377364558309145
0.1736379,0.021582669668070865,0.015741601011040846,0.017179213044812732,0.006928812272495832,0.04088724965348689,0.04689778905422057,0.11051448084087043,0.005387052498372925
0.1741034,0.021658514543214782,0.015727695497866227,0.017151143798851,0.0069192092007754535,0.04092037987336966,0.04689776932009684,0.1104714661735476,0.005396830516239295
0.174569,0.021735173632024363,0.01571319311513042,0.01712256433216641,0.00690906243628193,0.040954120276254,0.04689633811945369,0.11042307191278572,0.005406696067142131
0.1750345,0.02181263005004915,0.01569809875769976,0.017093478524217585,0.006898366646608682,0.040988442368312346,0.04689351265306595,0.11036933923235777,0.005416646656539147
0.1755,0.02189086670726667,0.015682417393751445,0.017063890375796285,0.006887116628508511,0.04102331809283032,0.04688931030124757,0.1103103104985539,0.0054266798404192995
0.1759655,0.021969866312704506,0.01566615406300093,0.017033804008540945,0.006875307310953887,0.04105871983765991,0.04688374861696246,0.11024602926131277,0.005436793225589738
0.176431,0.022049611379152543,0.01564931387491591,0.0170032236644175,0.006862933758182479,0.041094620442276346,0.0468768453188374,0.11017654024494739,0.005446984469942272
0.1768966,0.02213008422796501,0.015631902006916342,0.016972153705167116,0.006849991172727062,0.041130993204442655,0.046868618284079414,0.110101889338461,0.005457251282699325
0.1773621,0.02221126699395165,0.015613923702560132,0.016940598611720495,0.006836474898428964,0.041167811886485335,0.046859085541299826,0.110022123585451,0.00546759142463929
0.1778276,0.02229314163035736,0.015595384269714074,0.016908562983578297,0.00682238042343423,0.041205050721184834,0.04684826526324754,0.10993729117360024,0.0054780027083011764
0.1782931,0.02237568991392948,0.015576289078709787,0.01687605153815714,0.006807703383171701,0.0412426844172841,0.046836175759454805,0.10984744142375726,0.005488482998168397
0.1787586,0.022458893450071918,0.015556643560484416,0.016843069110100577,0.006792439563312289,0.041280688164618544,0.04682283546879937,0.10975262477860784,0.00549903021083156
0.1792241,0.022542733678085018,0.015536453204706022,0.016809620650554413,0.006776584902708722,0.04131903763887051,0.04680826295198789,0.10965289279094113,0.005509642315130105
0.1796897,0.0226271918764901,0.01551572355788356,0.01677571122640567,0.006760135496315119,0.04135770900595119,0.04679247688396659,0.10954829811151523,0.005520317332272603
0.1801552,0.02271224916843726,0.015494460221461396,0.016741346019484547,0.006743087598085777,0.04139667892601275,0.04677549604626584,0.10943889447652902,0.005531053335935519
0.1806207,0.022797886527195017,0.015472668849898267,0.01670653032572866,0.006725437623852579,0.041435924557092954,0.04675733931928659,0.10932473669471052,0.005541848452340207
0.1810862,0.022884084781720153,0.015450355148730527,0.016671269554308882,0.006707182154180485,0.04147542355839441,0.04673802567453706,0.10920588063403479,0.005552700860307895
0.1815517,0.022970824622306003,0.01542752487261958,0.016635569226716072,0.006688317937200563,0.04151515409320017,0.04671757416682858,0.10908238320808836,0.005563608791292345
0.1820172,0.023058086606307156,0.015404183823383369,0.016599434975807948,0.006668841891420043,0.04155509483142715,0.046696003926439626,0.10895430236209958,0.005574570529389884
0.1824828,0.023145851163938472,0.015380337848011964,0.01656287254481539,0.006648751108508901,0.04159522495181881,0.04667333415125681,0.10882169705865591,0.005585584411326471
0.1829483,0.023234098604146058,0.015355992836667444,0.01652588778630739,0.006628042856062432,0.04163552414377816,0.04664958409890139,0.10868462726313008,0.005596648826421503
0.1834138,0.023322809120547645,0.015331154720668398,0.016488486661113997,0.006606714580339281,0.04167597260884238,0.04662477307884996,0.1085431539288368,0.005607762216528081
0.1838793,0.023411962797439685,0.015305829470459723,0.01645067523720638,0.006584763908974415,0.04171655106180021,0.046598920444557615,0.10839733898194118,0.00561892307594948
0.1843448,0.02350153961586832,0.015280023093568481,0.016412459688533273,0.006562188653666445,0.041757240731453114,0.0465720455855918,0.10824724530613888,0.005630129951331701
0.1848103,0.023591519459761054,0.015253741632546843,0.016373846293812964,0.0065389868128386715,0.0417980233610212,0.04654416791978481,0.1080929367271274,0.0056413814415319395
0.1852759,0.02368188212211611,0.015226991162903276,0.016334841435280075,0.00651515657427322,0.041838881208194935,0.04651530688541274,0.10793447799688675,0.005652676197462925
0.1857414,0.023772607311246138,0.01519977779102333,0.016295451597386282,0.006490696317717555,0.04187979704483369,0.046485481933408415,0.10777193477778724,0.0056640129219131035
0.1862069,0.023863674657073047,0.015172107652081443,0.01625568336545418,0.006465604617462649,0.041920754156312405,0.04645471251961571,0.10760537362654071,0.005675390369342603
0.1866724,0.02395506371747084,0.015143986907945372,0.016215543424283448,0.006439880244892045,0.04196173634051765,0.04642301809709279,0.10743486197801129,0.005686807345654932
0.1871379,0.02404675398465334,0.015115421745074926,0.01617503855670836,0.006413522171001047,0.042002727906494425,0.046390418108471436,0.10726046812890029,0.005698262707944357
0.1876034,0.02413872489160383,0.015086418372416848,0.01613417564210581,0.006386529568885258,0.04204371367274494,0.04635693197837985,0.10708226122131957,0.005709755364218894
0.188069,0.024230955818543596,0.015056983019297709,0.016092961654852835,0.0063589018161976886,0.04208467896518068,0.046322579105936235,0.10690031122626653,0.00572128427309889
0.1885345,0.024323426099436437,0.015027121933316704,0.01605140366273271,0.006330638497573647,0.0421256096147292,0.046287378857320136,0.10671468892701344,0.005732848443491135
0.189,0.024416115028526385,0.014996841378240193,0.01600950882528867,0.006301739407022642,0.04216649195459773,0.04625135055842844,0.1065254659024229,0.005744446934238523
0.1894655,0.02450900186690614,0.014966147631899731,0.01596728439212433,0.006272204550286555,0.04220731281719587,0.0462145134876225,0.10633271451020097,0.005756078853745227
0.189931,0.02460206584911405,0.014935046984095299,0.015924737701150177,0.006242034147163324,0.04224805953072072,0.046176886868572575,0.10613650787009853,0.0057677433595774005
0.1903966,0.02469528618975812,0.014903545734505284,0.01588187617677552,0.006211228633795418,0.04228871991540805,0.04613848986320563,0.10593691984707111,0.005779439658039431
0.1908621,0.024788642090165843,0.014871650190604772,0.015838707328045654,0.006179788664922393,0.042329282279453755,0.04609934156476199,0.10573402503440658,0.00579116700372587
0.1913276,0.024882112745058943,0.014839366665593528,0.01579523874672394,0.006147715116096785,0.04236973541461005,0.04605946099096627,0.10552789873682931,0.005802924699049177
0.1917931,0.02497567734925239,0.014806701476335095,0.015751478105318666,0.006115009085862672,0.04241006859146107,0.046018867077317616,0.10531861695358921,0.005814712093743496
0.1922586,0.025069315104376995,0.014773660941308334,0.015707433155054448,0.00608167189789618,0.042450271554382434,0.04597757867050393,0.10510625636154375,0.005826528584344773
0.1927241,0.025163005225624795,0.014740251378572742,0.015663111723787947,0.006047705103107241,0.042490334516189575,0.04593561452194467,0.10489089429824083,0.005838373613647532
0.1931897,0.025256726948516384,0.014706479103748824,0.015618521713867716,0.0060131104817019,0.04253024815247946,0.04589299328146674,0.10467260874501033,0.005850246670138708
0.1936552,0.025350459535689127,0.014672350428014727,0.015573671099937965,0.005977890045204463,0.042570003595670904,0.045849733491117615,0.10445147831007172,0.005862147287408943
0.1941207,0.025444182283705256,0.014637871656120323,0.015528567926686025,0.005942046038438801,0.04260959242874895,0.045805853579119746,0.10422758221166499,0.00587407504354176
0.1945862,0.025537874529878643,0.014603049084419837,0.015483220306533388,0.005905580941468062,0.042649006678719625,0.045761371853969876,0.10400100026121104,0.005886029560481097
0.1950517,0.025631515659119194,0.01456788899892401,0.015437636417270155,0.0058684974714920575,0.04268823880978206,0.04571630649868677,0.10377181284650748,0.005898010503377588
0.1955172,0.025725085110793654,0.01453239767337277,0.015391824499632825,0.005830798584701538,0.042727281716225515,0.045670675565210275,0.10354010091496507,0.005910017579914006
0.1959828,0.02581856238560165,0.014496581367329378,0.01534579285482549,0.005792487478088567,0.04276612871505963,0.04562449696895438,0.10330594595688923,0.005922050539610264
0.1964483,0.025911927052465613,0.014460446324297108,0.01529954984198466,0.0057535675912121845,0.042804773538386354,0.045577788483516575,0.10306942998881051,0.005934109173108316
0.1969138,0.026005158755433046,0.014423998769859506,0.015253103875588111,0.0057140426079185175,0.04284321032552242,0.04553056773554544,0.10283063553686715,0.005946193311437293
0.1973793,0.02609823722058979,0.014387244909845318,0.015206463422808236,0.005673916458014512,0.04288143361488133,0.04548285219976822,0.10258964562024214,0.00595830282525927
0.1978448,0.026191142262982716,0.014350190928519163,0.015159637000810423,0.005633193318894454,0.04291943833562374,0.04543465919417983,0.10234654373465675,0.005970437624095981
0.1983103,0.02628385379355021,0.014312842986799,0.015112633173997,0.005591877617118471,0.04295721979908567,0.045386005875394334,0.10210141383592151,0.005982597655536899
0.1987759,0.02637635182605881,0.01427520722050135,0.015065460551197299,0.005549974029942225,0.0429947736899935,0.04533690923415983,0.10185434032354468,0.005994782904429087
0.1992414,0.026468616484044145,0.014237289738615216,0.015018127782804338,0.005507487486797027,0.04303209605747528,0.045287386091037364,0.10160540802439787,0.006006993392049311
0.1997069,0.02656062800775423,0.014199096621605517,0.01497064355785867,0.005464423170719649,0.04306918330587794,0.045237453092244806,0.1013547021764373,0.00601922917525895
0.2001724,0.026652366761092987,0.014160633919746788,0.014923016601079926,0.005420786519731143,0.043106032185399934,0.04518712670566677,0.1011023084124785,0.006031490345642265
0.2006379,0.02674381323856168,0.01412190765148783,0.014875255669846576,0.005376583228164006,0.043142639782549216,0.045136423217031714,0.1008483127440218,0.006043777028628658
0.2011034,0.026834948072195972,0.014082923801847868,0.014827369551124459,0.0053318192479370535,0.04317900351043637,0.04508535872625741,0.10059280154512516,0.006056089382599542
0.201569,0.02692575203849604,0.014043688320844848,0.014779367058344633,0.0052865007897774105,0.04321512109891291,0.04503394914396625,0.10033586153632075,0.006068427597980476
0.2020345,0.02701620606534706,0.014004207121956434,0.014731257028231245,0.00524063432438901,0.04325099058456507,0.044982210188171404,0.10007757976857115,0.006080791896319169
0.2025,0.02710629123892737,0.01396448608061443,0.014683048317580384,0.005194226583567028,0.04328661030057337,0.04493015738113529,0.09981804360726076,0.006093182529349968
0.2029655,0.027195988810601424,0.013924531032733323,0.014634749799991178,0.005147284561257685,0.043321978866448375,0.04487780604640168,0.09955734071621732,0.006105599778045402
0.203431,0.02728528020379454,0.013884347773273803,0.014586370362550559,0.00509981551456282,0.043357095177653765,0.044825171306002276,0.09929555904175817,0.006118043951655307
0.2038966,0.02737414702084635,0.013843942054842108,0.01453791890247335,0.005051826964688632,0.04339195839512735,0.044772268077838705,0.09903278679675542,0.006130515386734056
0.2043621,0.02746257104983984,0.013803319586326097,0.014489404323699329,0.0050033266978379435,0.043426567934711516,0.044719111073240406,0.09876911244471342,0.006143014446156367
0.2048276,0.027550534271402652,0.013762486031569043,0.014440835533449084,0.0049543227660453085,0.04346092345650386,0.04466571479469856,0.09850462468385171,0.006155541518122199
0.2052931,0.02763801886547723,0.013721447008082229,0.014392221438740471,0.004904823487954238,0.043495024854138795,0.04461209353377602,0.09823941243118574,0.00616809701515121
0.2057586,0.02772500721805625,0.013680208085797348,0.014343570942867544,0.004854837449535797,0.04352887224401075,0.04455826136919294,0.09797356480659766,0.006180681373067259
0.2062241,0.027811481927879852,0.013638774785859982,0.01429489294184392,0.004804373504747802,0.043562465954449285,0.04450423216508726,0.09770717111688845,0.006193295049973444
0.2066897,0.027897425813090904,0.013597152579465394,0.014246196320812535,0.004753440776133824,0.043595806514856277,0.04445001956944919,0.09744032083980295,0.006205938525218175
0.2071552,0.027982821917844614,0.013555346886737974,0.014197489950423714,0.0047020486553612136,0.04362889464481549,0.04439563701272855,0.09717310360801937,0.0062186122983527254
0.2076207,0.028067653518868654,0.01351336307565572,0.014148782683183434,0.004650206803697361,0.043661731243184065,0.04434109770661331,0.09690560919309547,0.006231316888080758
0.2080862,0.028151904131969864,0.013471206461021075,0.014100083349773617,0.004597925152423424,0.04369431737717569,0.04428641464297758,0.096637927489365,0.006244052831200219
0.2085517,0.028235557518483452,0.01342888230347938,0.014051400755346357,0.004545213903184777,0.04372665427144465,0.04423160059299696,0.0963701484977785,0.006256820681538039
0.2090172,0.028318597691660518,0.013386395808586075,0.014002743675793862,0.0044920835282774565,0.04375874329717982,0.04417666810642885,0.09610236230968426,0.0062696210088780055
0.2094828,0.028401008922989593,0.013343752125923708,0.013954120853995992,0.004438544770869912,0.043790585961217314,0.04412162951105488,0.09583465909054499,0.006282454397882141
0.2099483,0.028482775748447844,0.01330095634826966,0.013905540996047228,0.004384608645159428,0.04382218389517987,0.044066496912282635,0.0955671290635863,0.006295321447005924
0.2104138,0.0285638829746775,0.013258013510815474,0.013857012767464939,0.004330286436462584,0.043853538844651034,0.044011282192903116,0.09529986249337304,0.006308222767407612
0.2108793,0.02864431568508288,0.01321492859043847,0.013808544789380964,0.004275589701239201,0.04388465265839184,0.04395599701300057,0.09503294966930964,0.006321158981851997
0.2113448,0.028724059245843283,0.013171706505026286,0.013760145634718559,0.004220530267049247,0.04391552727760721,0.04390065281001053,0.09476648088906114,0.0063341307236088485
0.2118103,0.02880309931183685,0.013128352112854827,0.013711823824356798,0.004165120232442208,0.04394616472526907,0.043845260798921946,0.09450054644189303,0.006347138635346339
0.2122759,0.028881421832470323,0.01308487021202002,0.013663587823284655,0.004109371966778477,0.04397656709550284,0.04378983197261875,0.0942352365919293,0.006360183368019767
0.2127414,0.028959013057409607,0.01304126553992363,0.013615446036746928,0.004053298109982364,0.04400673654304375,0.04373437710235616,0.09397064156132948,0.006373265579755834
0.2132069,0.029035859542206055,0.012997542772813293,0.013567406806384361,0.0039969115722263285,0.04403667527276904,0.04367890673836662,0.09370685151338698,0.006386385934732774
0.2136724,0.02911194815381336,0.012953706525376843,0.013519478406370435,0.0039402255335460904,0.044066385529312066,0.043623431210590445,0.09344395653555193,0.006399545102056595
0.2141379,0.029187266075990127,0.012909761350390852,0.013471669039547449,0.0038832534433862454,0.04409586958676417,0.04356796062952584,0.09318204662238279,0.0064127437546337
0.2146034,0.029261800814583214,0.012865711738423248,0.013423986833564735,0.0038260090200760563,0.0441251297384705,0.04351250488719314,0.0929212116584324,0.006425982568040148
0.215069,0.0293355402026871,0.012821562117589745,0.013376439837021884,0.003768506250235069,0.044154168286925866,0.043457073658207744,0.09266154140107434,0.006439262219387819
0.2155345,0.02940847240567461,0.012777316853363717,0.013329036015620022,0.003710759388108203,0.04418298753377674,0.04340167640095618,0.09240312546327635,0.00645258338618775
0.216,0.02948058592609441,0.012732980248439142,0.013281783248324276,0.003652782954829993,0.04421158976993565,0.04334632235886972,0.0921460532963275,0.006465946745210948
0.2164655,0.02955186960843076,0.012688556542646025,0.013234689323540716,0.0035945917376176257,0.04423997726581412,0.04329102056178991,0.09189041417252525,0.006479352971346988
0.216931,0.029622312643720942,0.012644049912917635,0.013187761935311255,0.0035362007888924242,0.04426815226168016,0.04323577982742005,0.09163629716782852,0.006492802736460767
0.2173966,0.029691904574025894,0.012599464473308852,0.013141008679530056,0.0034776254253294173,0.044296116958146094,0.04318060876285694,0.09138379114448214,0.006506296708247774
0.2178621,0.029760635296749563,0.012554804275064762,0.013094437050184954,0.0034188812268346113,0.04432387350679229,0.0431255157661972,0.09113298473361753,0.006519835549088297
0.2183276,0.029828495068803,0.012510073306738598,0.013048054435627468,0.0033599840354495924,0.04435142400093213,0.04307050902821235,0.09088396631783438,0.0065334199149009635
0.2187931,0.029895474510609463,0.012465275494358037,0.013001868114874924,0.0033009499541830863,0.04437877046652327,0.04301559653408701,0.09063682401376673,0.0065470504539959454
0.2192586,0.029961564609947307,0.012420414701638793,0.012955885253948215,0.003241795345769129,0.044405914853230144,0.04296078606521481,0.09039164565463748,0.006560727805928239
0.2197241,0.03002675672562806,0.012375494730244394,0.012910112902248673,0.0031825368313515285,0.04443285902564267,0.04290608520104647,0.09014851877280497,0.006574452600351374
0.2201897,0.030091042591007144,0.01233051932009091,0.012864557988977508,0.003123191289094328,0.044459604754655775,0.04285150132098495,0.08990753058230508,0.006588225455871962
0.2206552,0.03015441431732514,0.012285492149695446,0.012819227319601237,0.0030637758527180064,0.04448615370901467,0.04279704160632235,0.08966876796139193,0.006602046978905545
0.2211207,0.030216864396877225,0.012240416836566974,0.012774127572366515,0.0030043079099612135,0.044512507447030426,0.042742713042213776,0.08943231743508057,0.006615917762534242
0.2215862,0.03027838570600853,0.012195296937638168,0.012729265294867677,0.0029448051009678573,0.04453866740847064,0.04268852241968356,0.08919826515769441,0.006629838385366756
0.2220517,0.030338971507932824,0.012150135949736744,0.012684646900670298,0.0028852853165994325,0.04456463490662923,0.04263447633765972,0.08896669689542146,0.006643809410401288
0.2225172,0.030398615455371876,0.012104937310094849,0.012640278665994032,0.00282576669667251,0.044590411120579695,0.042580581205033205,0.08873769800888331,0.006657831383891973
0.2229828,0.03045731159301261,0.012059704396894983,0.012596166726457879,0.0027662676281213446,0.044615997087615676,0.04252684324273897,0.08851135343572279,0.006671904834219384
0.2234483,0.03051505435977886,0.012014440529850994,0.012552317073891026,0.00270680674308557,0.044641393695882596,0.042473268485856495,0.08828774767321612,0.006686030270765677
0.2239138,0.03057183859091455,0.011969148970822666,0.012508735553212294,0.0026474029169229725,0.04466660167720404,0.042419862785727375,0.08806696476091755,0.006700208182794933
0.2243793,0.030627659519874926,0.011923832924462474,0.012465427859381189,0.0025880752661473277,0.04469162160010614,0.042366631812087656,0.08784908826334403,0.00671443903833915
0.2248448,0.030682512780022278,0.011878495538892973,0.012422399534423482,0.002528843146291305,0.044716453863043,0.0423135810552123,0.08763420125270775,0.0067287232830903565
0.2253103,0.03073639440612264,0.011833139906413251,0.012379655964534119,0.0024697261496944485,0.044741098687826185,0.04226071582806927,0.0874223862917039,0.00674306133929927
0.2257759,0.030789300835639865,0.01178776906423284,0.012337202377260215,0.002410744103216248,0.04476555611326063,0.042208041268480344,0.08721372541636088,0.00675745360468088
0.2262414,0.030841228909823794,0.011742385995231374,0.012295043838766777,0.0023519170658743067,0.04478982598898929,0.042155562341285896,0.08700830011895899,0.006771900451327312
0.2267069,0.030892175874589513,0.01169699362874224,0.012253185251187767,0.002293265326407608,0.044813907969548455,0.04210328384051096,0.08680619133102335,0.006786402224628323
0.2271724,0.03094213938118519,0.011651594841358533,0.012211631350064967,0.0022348094007648596,0.04483780150863549,0.04205121039153025,0.0866074794063966,0.006800959242199736
0.2276379,0.030991117486646604,0.011606192457759566,0.01217038670187703,0.0021765700295178843,0.04486150585359011,0.041999346453230224,0.08641224410439614,0.006815571792820117
0.2281034,0.031039108654036914,0.011560789251556241,0.012129455701661001,0.0021185681752000224,0.04488502004009033,0.041947696320166344,0.08622056457306042,0.006830240135375956
0.228569,0.031086111752470787,0.011515387946153673,0.012088842570728528,0.002060825019569492,0.04490834288706381,0.04189626412471423,0.08603251933248807,0.006844964497815573
0.2290345,0.03113212605692221,0.011469991215629376,0.012048551354478833,0.002003361960797668,0.044931472991814915,0.04184505383921348,0.08584818625827341,0.006859745076112024
0.2295,0.031177151247815584,0.011424601685625438,0.01200858592031044,0.0019462006105822334,0.04495440872536772,0.04179406927810325,0.08566764256504115,0.006874582033235238
0.2299655,0.031221187410399694,0.011379221934253026,0.011968949955633565,0.001889362791185177,0.04497714822802466,0.0417433141000489,0.08549096479008317,0.006889475498133723
0.230431,0.0312642350339041,0.011333854493007625,0.011929646965984942,0.0018328705323956117,0.044999689405140694,0.04169279181005902,0.08531822877709977,0.006904425564726217
0.2308966,0.03130629501047754,0.011288501847693427,0.011890680273246768,0.0017767460684174048,0.04502202992311238,0.04164250576159243,0.08514950966004899,0.006919432290903745
0.2313621,0.031347368633908065,0.01124316643935517,0.011852053013971374,0.0017210118346816124,0.04504416720558151,0.04159245915865459,0.08498488184710631,0.006934495697542622
0.2318276,0.03138745759812512,0.011197850665215786,0.01181376813781308,0.0016656904645837173,0.04506609842985262,0.04154265505788301,0.08482441900473858,0.006949615767529022
0.2322931,0.0314265639954839,0.011152556879618188,0.011775828406068622,0.0016108047861456642,0.045087820523523656,0.0414930963706216,0.0846681940418952,0.006964792444795714
0.2327586,0.03146469031483327,0.011107287394969533,0.011738236390327398,0.001556377818602693,0.045109330161329085,0.041443785864983984,0.08451627909432131,0.006980025633371627
0.2332241,0.03150183943936879,0.011062044482686497,0.011700994471232677,0.0015024327689149815,0.045130623762194434,0.04139472616790651,0.08436874550899784,0.006995315196444892
0.2336897,0.03153801464427345,0.011016830374140148,0.01166410483735488,0.0014489930282041371,0.04515169748650197,0.04134591976719202,0.08422566382871464,0.007010660955439983
0.2341552,0.03157321959414914,0.010971647261599323,0.01162756948417786,0.0013960821681146193,0.04517254723356711,0.04129736901354553,0.08408710377678516,0.007026062689109624
0.2346207,0.031607458340242735,0.010926497299171594,0.011591390213199024,0.0013437239371002073,0.04519316863932578,0.041249076122603326,0.08395313424191111,0.0070415201326421446
0.2350862,0.03164073531747101,0.010881382603741108,0.011555568631144033,0.0012919422566356749,0.045213557074233184,0.04120104317695687,0.08382382326320699,0.007057032976785022
0.2355517,0.03167305534124886,0.010836305255902843,0.011520106149296749,0.0012407612173538582,0.045233707641374986,0.041153272128173116,0.08369923801539325,0.007072600866985327
0.2360172,0.031704423604125384,0.010791267300893057,0.011485003982944934,0.001190205075108311,0.04525361517479159,0.04110576479881295,0.0835794447941673,0.007088223402547904
0.2364828,0.03173484567223229,0.010746270749515712,0.01145026315094219,0.0011402982469617597,0.04527327423801636,0.04105852288444966,0.08346450900176032,0.007103900135812081
0.2369483,0.03176432748154889,0.010701317579064878,0.011415884475386436,0.001091065307100558,0.045292679122828555,0.041011547955689426,0.08335449513268738,0.007119630571347794
0.2374138,0.031792875333987794,0.010656409734243054,0.011381868581415225,0.0010425309826753474,0.045311823848221446,0.04096484146019573,0.08324946675969784,0.0071354141651720085
0.2378793,0.031820495893305246,0.010611549128075394,0.01134821589711799,0.0009947201495681339,0.045330702159586005,0.040918404724719484,0.08314948651993237,0.007151250323986354
0.2383448,0.031847196180840205,0.010566737642819714,0.011314926653565344,0.0009476578280860041,0.04534930752811034,0.04087223895713663,0.08305461610129213,0.007167138404436898
0.2388103,0.03187298357108604,0.010521977130872134,0.011282000884955394,0.0009013691785817093,0.04536763315039474,0.04082634524849464,0.08296491622902563,0.007183077712396993
0.2392759,0.03189786578709886,0.010477269415668155,0.011249438428876955,0.0008558794970013587,0.04538567194828226,0.04078072457506911,0.08288044665253781,0.007199067502274115
0.2397414,0.03192185089574646,0.01043261629257892,0.01121723892668949,0.0008112142103594778,0.04540341656890409,0.04073537780043169,0.08280126613242561,0.007215106976341616
0.2402069,0.03194494730280183,0.010388019529802422,0.011185401824019487,0.0007673988721416899,0.045420859384939206,0.04069030567753026,0.0827274324277438,0.00723119528409632
0.2406724,0.031967163747885025,0.010343480869249374,0.011153926371372939,0.000724459157635284,0.04543799249508729,0.04064550885078187,0.08265900228350392,0.007247331521642869
0.2411379,0.03198850929925711,0.010299002027423378,0.011122811624863475,0.0006824208591879283,0.04545480772475386,0.04060098785817913,0.082596031418409,0.007263514731105706
0.2416034,0.03200899334847003,0.010254584696295001,0.01109205644705568,0.0006413098813947922,0.04547129662694643,0.04055674313341025,0.08253857451282585,0.00727974390006962
0.242069,0.032028625604876015,0.010210230544169264,0.01106165950792304,0.000601152236214331,0.045487450483379856,0.04051277500799314,0.08248668519699631,0.007296017961049666
0.2425345,0.032047416090000246,0.010165941216545994,0.011031619285919827,0.0005619740380129973,0.04550326030578943,0.04046908371342358,0.08244041603948794,0.0073123357909913025
0.243,0.03206537513178067,0.01012171833697237,0.011001934069166273,0.0005238014985391548,0.04551871683744925,0.04042566938333729,0.08239981853588435,0.007328696210801539
0.2434655,0.03208251335867892,0.010077563507886956,0.010972601956746271,0.00048666092182648806,0.04553381055489381,0.04038253205568582,0.0823649430977144,0.007345097984911814
0.243931,0.032098841693666405,0.01003347831145446,0.010943620860116741,0.00045057869902723105,0.0455485316698402,0.040339671674925616,0.08233583904161912,0.007361539820873311
0.2443966,0.032114371348089914,0.009989464310390366,0.010914988504627809,0.00041558130317556245,0.045562870131307935,0.04029708809421983,0.08231255457875455,0.007378020368985427
0.2448621,0.03212911381542125,0.009945523048774592,0.010886702431152848,0.0003816952838815433,0.045576815627933524,0.040254781077652645,0.08229513680442815,0.007394538221958023
0.2453276,0.032143080864895604,0.009901656052853255,0.01085875999782737,0.00034894726195599477,0.045590357590476166,0.04021275030245586,0.08228363168796557,0.007411091914608131
0.2457931,0.032156284535043364,0.009857864831827682,0.010831158381895741,0.0003173639239667374,0.04560348519451068,0.040170995361247866,0.08227808406280465,0.007427679923591753
0.2462586,0.032168737127120116,0.009814150878629704,0.010803894581664579,0.000286972016726641,0.04561618736330404,0.04012951576428554,0.0822785376168123,0.007444300667171322
0.2467241,0.03218045119843941,0.009770515670682387,0.010776965418561695,0.0002577983417139697,0.04562845277087162,0.04008831094172942,0.08228503488281973,0.0074609525050194185
0.2471897,0.03219143955561266,0.00972696067064531,0.01075036753929934,0.00022986974942555382,0.045640269845209504,0.040047380245922914,0.08229761722937096,0.007477633738059263
0.2476552,0.03220171524770045,0.009683487327143582,0.010724097418140446,0.00020321313366337198,0.0456516267716999,0.0400067229536862,0.08231632485167911,0.007494342608342485
0.2481207,0.03221129155927905,0.009640097075479847,0.010698151359266581,0.00017785542575518933,0.04566251149668707,0.0399663382686251,0.08234119676278485,0.0075110772989646505
0.2485862,0.03222018200342607,0.00959679133832857,0.01067252549924617,0.0001538235887099671,0.045672911731221434,0.03992622532345547,0.08237227078491091,0.0075278359340189725
0.2490517,0.03222840031462865,0.009553571526412032,0.010647215809601547,0.00013114461130883046,0.04568281495497041,0.039886383182343214,0.08240958354100651,0.007544616578588563
0.2495172,0.03223596044161761,0.00951043903915751,0.010622218099473271,0.00010984550213245766,0.0456922084202945,0.039846810843259854,0.0824531704464751,0.007561417238777547
0.2499828,0.032242876540130964,0.009467395265335224,0.010597528018380152,8.99532835258228e-05,0.04570107915648721,0.03980750724035372,0.08250306570107818,0.0075782358617812766
0.2504483,0.03224916296560998,0.009424441583676745,0.010573141059073308,7.149498550128984e-05,0.045709413974178055,0.03976847124633663,0.0825593022810079,0.007595070335995875
0.2509138,0.032254834265831256,0.00938157936347362,0.01054905256048253,5.4497639581109256e-05,0.04571719946989754,0.039729701674885966,0.08262191193112049,0.007611918491167234
0.2513793,0.03225990517347815,0.009338809965156066,0.010525257710753116,3.8988272580412235e-05,0.04572442203080379,0.039691197283062134,0.08269092515732246,0.007628778098579567
0.2518448,0.032264390598654935,0.00929613474085165,0.010501751550371334,2.4993900331830468e-05,0.04573106783957087,0.03965295677374111,0.08276637121910084,0.007645646871283592
0.2523103,0.03226830562134712,0.009253555034923982,0.010478528975376485,1.2541521352891067e-05,0.0457371228794389,0.03961497879806147,0.08284827812218908,0.0076625224643643965
0.2527759,0.03227166548383105,0.009211072184491482,0.010455584740657546,1.6581104573525865e-06,0.045742572939426254,0.039577261957885204,0.08293667261136006,0.007679402475249035
0.2532414,0.032274485583036014,0.009168687519926359,0.010432913463332213,-7.629387688336364e-06,0.045747403619703995,0.03953980480827108,0.08303158016333842,0.007696284444053863
0.2537069,0.032276781462861635,0.009126402365334045,0.01041050962620613,-1.529406506225271e-05,0.04575160033713222,0.039502605859959405,0.08313302497982471,0.007713165853971651
0.2541724,0.032278568806453564,0.009084218039013296,0.010388367581309982,-2.1309056836654265e-05,0.045755148330957965,0.03946566358186627,0.08324102998062559,0.007730044131698504
0.2546379,0.03227986342844031,0.009042135853897341,0.010366481553512007,-2.56475479787987e-05,0.04575803266867375,0.039428976403585544,0.08335561679688494,0.007746916647900591
0.2551034,0.03228068126713446,0.009000157117976419,0.010344845644203458,-2.8282779901600818e-05,0.04576023825203588,0.039392542717896536,0.08347680576441198,0.007763780717720687
0.255569,0.03228103837670177,0.008958283134702118,0.010323453835054421,-2.918805716275074e-05,0.04576174982324115,0.03935636088327477,0.08360461591710336,0.007780633601324482
0.2560345,0.032280950919302054,0.008916515203373993,0.01030229999183737,-2.833675421086733e-05,0.045762551971260716,0.039320429226403456,0.08373906498045676,0.007797472504486629
0.2565,0.03228043515720599,0.008874854619508855,0.010281377868315698,-2.57023221772207e-05,0.045762629138329534,0.03928474604468284,0.08388016936517347,0.00781429457921648
0.2569655,0.03227950744489235,0.008833302675193251,0.010260681110194464,-2.1258295711526005e-05,0.045761965626589816,0.03924930960873447,0.08402794416084704,0.007831096924423473
0.257431,0.032278184221130005,0.0087918606594195,0.010240203259130465,-1.4978299860286532e-05,0.045760545604886335,0.03921411816489704,0.08418240312973528,0.007847876586622183
0.2578966,0.032276482001049024,0.008750529858405676,0.010219937756798763,-6.836056986143323e-06,0.045758353115711636,0.03917916993771079,0.08434355870061218,0.007864630560677034
0.2583621,0.032274417368205216,0.008709311555899851,0.01019987794901263,3.1946062733298732e-06,0.045755372082298504,0.03914446313238701,0.08451142196269597,0.007881355790586674
0.2588276,0.032272006966642036,0.00866820703346885,0.010180017089893943,1.5139752008964848e-05,0.04575158631585705,0.03910999593725932,0.08468600265964892,0.007898049170308034
0.2592931,0.03226926749295373,0.008627217570771683,0.010160348346090909,2.9025324007064804e-05,0.04574697952295356,0.03907576652621346,0.08486730918364435,0.007914707544619962
0.2597586,0.03226621568835335,0.00858634444581781,0.010140864801039977,4.487714068180549e-05,0.04574153531302793,0.03904177306109222,0.08505534856949631,0.007931327710026345
0.2602241,0.03226286833074909,0.00854558893521027,0.010121559459268762,6.272088797458917e-05,0.04573523720604663,0.039008013694072426,0.08525012648884812,0.007947906415698557
0.2606897,0.03225924222683246,0.008504952314373631,0.010102425250736747,8.258211222197561e-05,0.04572806864028783,0.03897448657001087,0.08545164724441817,0.007964440364457022
0.2611552,0.0322553542041815,0.008464435857766725,0.010083455035210487,0.00010448621299381867,0.04572001298025533,0.03894118982875644,0.08565991376430289,0.00798092621379167
0.2616207,0.032251221103382355,0.008424040839080035,0.010064641606670009,0.00012845843590324077,0.045711053524717715,0.03890812160742582,0.08587492759633966,0.007997360576920999
0.2620862,0.03224685977017261,0.008383768531417621,0.01004597769774305,0.00015452386539007942,0.04570117351486919,0.038875280042640493,0.08609668890253416,0.008013740023889465
0.2625517,0.032242287047609494,0.008343620207463428,0.010027455984163748,0.00018270741747944335,0.04569035614260825,0.03884266327272294,0.0863251964535578,0.00803006108270288
0.2630172,0.0322375197682665,0.008303597139631863,0.010009069089252323,0.0002130338325170209,0.045678584558930445,0.03881026943985032,0.08656044762332163,0.008046320240501486
0.2634828,0.03223257474646163,0.008263700600202492,0.009990809588412352,0.00024552766788279073,0.045665841882430926,0.038778096692164046,0.08680243838363368,0.00806251394477033
0.2639483,0.03222746877052081,0.008223931861438662,0.009972670013642094,0.0002802132906847986,0.045652111207912884,0.03874614318583405,0.08705116329894508,0.008078638604586571
0.2644138,0.03222221859507971,0.008184292195689816,0.009954642858056403,0.00031711487043468035,0.045637375615096926,0.03871440708707676,0.08730661552119139,0.008094690591903238
0.2648793,0.03221684093342714,0.00814478287547731,0.009936720580415647,0.0003562563717066266,0.045621618177426715,0.03868288657412594,0.08756878678473393,0.008110666242868944
0.2653448,0.03221135244989294,0.008105405173563512,0.009918895609658127,0.0003976615467814987,0.04560482197096543,0.03865157983915571,0.08783766740140639,0.008126561859183017
0.2658103,0.03220576975228329,0.008066160363004013,0.009901160349432399,0.00044135392827781715,0.04558697008337776,0.03862048509015484,0.08811324625567173,0.008142373709485423
0.2662759,0.032200109384365995,0.00802704971718278,0.009883507182625938,0.0004873568217713528,0.04556804562299147,0.03858960055275132,0.08839551079989481,0.008158098030780844
0.2667414,0.032194387818408554,0.00798807450983017,0.00986592847588656,0.0005356932984050626,0.04554803172793287,0.038558924471986146,0.0886844470497374,0.008173731029896226
0.2672069,0.03218862144777164,0.007949236015023751,0.009848416584133,0.0005863861874911237,0.04552691157533038,0.03852845511403547,0.08898003957968172,0.008189268884971042
0.2676724,0.03218282657956076,0.007910535507171948,0.009830963855051066,0.0006394580691068372,0.045504668390580705,0.03849819076788042,0.08928227151869034,0.008204707746979479
0.2681379,0.03217701942733901,0.007871974260980632,0.009813562633571813,0.0006949312666861839,0.045481285456672425,0.03846812974692428,0.08959112454600965,0.008220043741283687
0.2686034,0.0321712161039042,0.007833553551402847,0.009796205266328122,0.0007528278396088311,0.04545674612356189,0.0384382703905571,0.089906578887125,0.008235272969217193
0.269069,0.0321654326141336,0.007795274653572026,0.009778884106086204,0.0008131695757884009,0.04543103381759642,0.03840861106566772,0.09022861330987554,0.008250391509697492
0.2695345,0.03215968484789984,0.007757138842719082,0.00976159151614847,0.0008759779842618229,0.04540413205097985,0.038379150168103365,0.09055720512073756,0.008265395420866793
0.27,0.032153988573061384,0.007719147394073967,0.009744319874724272,0.0009412742877816156,0.04537602443127514,0.03834988612407681,0.09089233016128467,0.008280280741759825
0.2704655,0.0321483594285309,0.007681301582752364,0.009727061579265096,0.0010090794154129557,0.045346694670938666,0.038320817391521225,0.09123396280483335,0.008295043493997586
0.270931,0.03214281291742479,0.007643602683628288,0.00970980905076082,0.001079413995137411,0.04531612659688077,0.038291942461392836,0.0915820759532826,0.008309679683505848
0.2713966,0.032137364400296825,0.0076060519711934355,0.009692554737993879,0.0011522983464652267,0.04528430416004681,0.038263259858921365,0.0919366410341563,0.008324185302257212
0.2718621,0.03213202908845873,0.007568650719404219,0.009675291121748269,0.0012277524730580653,0.04525121144501316,0.03823476814480835,0.0922976279978563,0.008338556330035489
0.2723276,0.032126822037390555,0.0075314002015174145,0.009658010718970569,0.0013057960553641036,0.045216832679592596,0.038206465916372896,0.09266500531513505,0.0083527887362211
0.2727931,0.032121758140243505,0.007494301689915363,0.009640706086880318,0.0013864484432674002,0.04518115224444308,0.038178351808644706,0.09303873997479578,0.008366878481596222
0.2732586,0.03211685212143817,0.007457356455921666,0.009623369827027325,0.0014697286487534422,0.04514415468267391,0.038150424495403706,0.09341879748162862,0.00838082152016842
0.2737241,0.032112118530360785,0.007420565769608296,0.00960599458929375,0.0015556553385927875,0.04510582470944297,0.03812268269016575,0.09380514185459049,0.008394613801011403
0.2741897,0.032107571735160254,0.007383930899595002,0.009588573075839149,0.0016442468270447084,0.04506614722153815,0.038095125147114065,0.09419773562523595,0.008408251270121656
0.2746552,0.032103225916648506,0.007347453112841904,0.009571098044986848,0.0017355210685827697,0.04502510730693581,0.038067750661976284,0.09459653983640638,0.008421729872289698
0.2751207,0.03209909506230651,0.007311133674436093,0.009553562315050248,0.0018294956506442878,0.044982690254328814,0.03804055807284707,0.0950015140411836,0.00843504555298471
0.2755862,0.032095192960398033,0.00727497384737303,0.00953595876809768,0.0019261877864056455,0.0449388815626164,0.03801354626095691,0.09541261630211423,0.008448194260251365
0.2760517,0.03209153319419312,0.007238974892333463,0.009518280353654476,0.0020256143075854617,0.0448936669503483,0.037986714151387733,0.09582980319071091,0.008461171946617656
0.2765172,0.03208812913630295,0.007203138067456538,0.009500520092340965,0.002127791657277626,0.044847032365115294,0.03796006071373665,0.09625302978723638,0.008473974571012559
0.2769828,0.03208499394312759,0.007167464628109714,0.009482671079445058,0.002232735882816216,0.04479896399287885,0.037933584962729326,0.0966822496807774,0.00848659810069227
0.2774483,0.03208214054941802,0.007131955826656046,0.00946472648842811,0.0023404626286743107,0.04474944826723279,0.037907285958784606,0.09711741496961562,0.008499038513173771
0.2779138,0.03207958166295366,0.007096612912219354,0.009446679574362718,0.002450987129398721,0.04469847187859039,0.0378811628085322,0.0975584762619029,0.008511291798174375
0.2783793,0.032077329759336554,0.007061437130447721,0.009428523677301147,0.0025643242025826483,0.044646021783290746,0.03785521466528516,0.09800538267664952,0.008523353959555878
0.2788448,0.03207539707690362,0.0070264297232757195,0.009410252225573098,0.002680488241878308,0.04459208521261799,0.03782944072946891,0.0984580818450339,0.008535221017271874
0.2793103,0.03207379561175823,0.006991591928685743,0.009391858739011532,0.0027994932100515496,0.04453664968172768,0.03780384024900882,0.09891651991204177,0.00854688900931671
0.2797759,0.03207253711292247,0.006956924980468731,0.009373336832105261,0.0029213526320805002,0.04447970299847425,0.037778412519678006,0.09938064153844293,0.008558353993674538
0.2802414,0.03207163307761147,0.00692243010798455,0.009354680217076982,0.003046079588300262,0.04442123327213386,0.03775315688540734,0.09985038990311276,0.008569612050266788
0.2807069,0.032071094746631015,0.006888108535922246,0.009335882706885444,0.003173686707595664,0.04436122892201684,0.037728072738559486,0.10032570670570534,0.008580659282896396
0.2811724,0.03207093309989968,0.006853961484060318,0.00931693821815036,0.0033041861606440716,0.0442996786859644,0.03770315952016878,0.10080653216968412,0.008591491821186978
0.2816379,0.032071158852096625,0.00681999016702713,0.009297840773998657,0.003437589653210215,0.04423657162872444,0.03767841672014851,0.10129280504571557,0.008602105822515095
0.2821034,0.032071782448436205,0.006786195794061494,0.009278584506830728,0.0035739084194950105,0.0441718971502013,0.03765384387746677,0.10178446261543102,0.008612497473933733
0.282569,0.0320728140605707,0.006752579568773469,0.009259163661005267,0.0037131532155403194,0.044105644993573986,0.037629440580292,0.10228144069556092,0.008622662994085007
0.2830345,0.03207426358262233,0.006719142688905329,0.0092395725954414,0.003855334312691628,0.04403780525327757,0.037605206466108806,0.10278367364244584,0.008632598635100125
0.2835,0.032076140627345893,0.006685886346092671,0.009219805786136815,0.00400046149112062,0.04396836838284212,0.03758114122180455,0.10329109435692754,0.008642300684484567
0.2839655,0.03207845452242322,0.006652811725625637,0.009199857828600565,0.004148544033409642,0.043897325202583506,0.037557244583726834,0.1038036342896232,0.008651765466986417
0.284431,0.0320812143068908,0.006619920006210192,0.009179723440199319,0.0042995907182000834,0.043824666907140694,0.03753351633771193,0.10432122344658522,0.008660989346445751
0.2848966,0.03208442872770165,0.006587212359729461,0.009159397462415791,0.0044536098139067145,0.04375038507285398,0.037509956319084346,0.1048437903953485,0.0086699687276229
0.2853621,0.032088106236422415,0.006554689951005084,0.009138874863018188,0.004610609072499998,0.04367447166497865,0.03748656441262759,0.10537126227136716,0.008678700058003383
0.2858276,0.0320922549860665,0.006522353937558598,0.00911815073813947,0.004770595723358416,0.04359691904472821,0.03746334055252657,0.10590356478484154,0.008687179829577243
0.2862931,0.032096882828063694,0.006490205469372835,0.009097220314265204,0.004933576467192818,0.04351771997614145,0.037440284722281995,0.10644062222793627,0.0086954045805905
0.2867586,0.03210199730936679,0.006458245688653298,0.009076078950128817,0.005099557470044779,0.043436867632767114,0.037417396954597296,0.10698235748238924,0.008703370897266425
0.2872241,0.03210760566969528,0.0064264757295894774,0.00905472213851308,0.005268544357360924,0.04335435560415985,0.03739467733123849,0.10752869202751147,0.008711075415494403
0.2876897,0.032113714838916355,0.006394896718116017,0.009033145507956725,0.005440542208145147,0.043270177902181295,0.03737212598286751,0.10807954594857716,0.008718514822484164
0.2881552,0.03212033143456319,0.00636350977167359,0.009011344824365256,0.005615555549190664,0.04318432896710059,0.03734974308884943,0.10863483794560375,0.008725685858383217
0.2886207,0.03212746175949085,0.006332315998969319,0.008989315992525249,0.0057935883493937705,0.043096803673489004,0.03732752887703427,0.10919448534252202,0.008732585317855352
0.2890862,0.032135111799669686,0.006301316499736514,0.008967055057521602,0.005974644014151245,0.043007597335904035,0.03730548362351384,0.10975840409673662,0.00873921005161808
0.2895517,0.032143287222116734,0.006270512364493525,0.008944558206057454,0.006158725379843258,0.04291670571435885,0.03728360765235464,0.11032650880907727,0.008745556967936968
0.2900172,0.03215199337296519,0.006239904674301478,0.008921821767676578,0.006345834708403677,0.0428241250195734,0.037261901335307754,0.11089871273414165,0.008751623034074814
0.2904828,0.03216123527567242,0.006209494500520659,0.008898842215888152,0.00653597368197963,0.04272985191800376,0.037240365091497314,0.11147492779103016,0.008757405277693744
0.2909483,0.032171017629366715,0.006179282904565396,0.008875616169193789,0.006729143397682199,0.04263388353664622,0.03721899938708945,0.11205506457447255,0.00876290078820845
0.2914138,0.03218134480733334,0.006149270937657257,0.008852140392016825,0.006925344362430059,0.04253621746761304,0.03719780473494357,0.1126390323663462,0.008768106718088907
0.2918793,0.03219222085564025,0.00611945964057647,0.008828411795533937,0.007124576487887967,0.04243685177247737,0.03717678169424774,0.11322673914758472,0.0087730202841111
0.2923448,0.03220364949190411,0.006089850043411461,0.008804427438409418,0.007326839085501942,0.042335784986385454,0.037155930870139846,0.11381809161047565,0.008777638768554512
0.2928103,0.03221563410419753,0.006060443165306454,0.0087801845274328,0.0075321308616330684,0.042233016121935224,0.03713525291331583,0.11441299517134601,0.00878195952034533
0.2932759,0.032228177750098445,0.006031240014207151,0.008755680418060963,0.007740449912791848,0.04212854467282135,0.037114748519626206,0.11501135398363492,0.00878597995614457
0.2937414,0.03224128315588292,0.006002241586604505,0.008730912614866252,0.007951793720975165,0.042022370617247465,0.03709441842966198,0.11561307095135344,0.008789697561380636
0.2942069,0.03225495271586264,0.005973448867276711,0.008705878771892427,0.008166159149107965,0.04191449442110711,0.037074263428331235,0.11621804774293287,0.008793109891225896
0.2946724,0.032269188491868314,0.00594486282902963,0.008680576692920505,0.008383542436591873,0.04180491704093541,0.03705428434442764,0.11682618480546404,0.008796214571517032
0.2951379,0.03228399221288006,0.005916484432435907,0.008655004331646662,0.008603939194963136,0.04169363992663363,0.03703448205019218,0.11743738137933021,0.008799009299618844
0.2956034,0.032299365274806084,0.005888314625573176,0.008629159791774421,0.008827344403662356,0.041580665023969385,0.03701485746086934,0.11805153551323659,0.008801491845231232
0.296069,0.03231530874041049,0.005860354343761797,0.008603041327023388,0.009053752405918611,0.041465994776855704,0.0369954115342588,0.1186685440796396,0.008803660051139086
0.2965345,0.03233182333939153,0.00583260450930263,0.008576647341056823,0.00928315690475069,0.041349632129412645,0.03697614527026334,0.11928830279057957,0.008805511833904885
0.297,0.03234890946861168,0.005805066031215444,0.008549976387330288,0.009515550959088199,0.04123158052781545,0.036957059710433705,0.11991070621392125,0.008807045184504115
0.2974655,0.032366567192480905,0.005777739804978561,0.008523027168863611,0.009750926980015355,0.04111184392193333,0.036938155937510875,0.12053564779000774,0.008808258168903908
0.297931,0.03238479624349483,0.005750626712270408,0.008495798537938306,0.009989276727140268,0.0409904267667629,0.03691943507496588,0.12116301984873479,0.008809148928585787
0.2983966,0.03240359602292944,0.005723727620713605,0.008468289495722581,0.010230591305092516,0.040867334023660114,0.03690089828653731,0.12179271362705235,0.008809715681013765
0.2988621,0.03242296560169411,0.0056970433836222795,0.008440499191826045,0.010474861160151871,0.040742571161374704,0.03688254677576627,0.12242461928690088,0.008809956720049339
0.2993276,0.03244290372134447,0.005670574839753231,0.008412426923786154,0.010722076077011053,0.04061614415689057,0.03686438178552842,0.12305862593358863,0.008809870416315028
0.2997931,0.032463408795256894,0.0056443228130616035,0.00838407213648852,0.010972225175675383,0.04048805949607578,0.03684640459756237,0.12369462163461616,0.008809455217508231
0.3002586,0.03248447890996582,0.005618288112461657,0.008355434421523101,0.011225296908502337,0.04035832417414548,0.03682861653199392,0.12433249343895311,0.008808709648667106
0.3007241,0.032506111826665435,0.005592471531593212,0.008326513516478303,0.01148127905738392,0.04022694569594135,0.03681101894685525,0.12497212739677223,0.00880763231239027
0.3011897,0.032528304982876455,0.0055668738485943215,0.00829730930417493,0.011740158731074847,0.04009393207603105,0.03679361323759813,0.12561340857964418,0.00880622188901202
0.3016552,0.03255105549427909,0.005541495825880672,0.008267821811841944,0.012001922362669502,0.03995929183863126,0.036776400836600366,0.12625622110119655,0.008804477136734837
0.3021207,0.03257436015671253,0.005516338209932184,0.008238051210235872,0.012266555707230656,0.03982303401735836,0.03675938321266414,0.12690044813823914,0.008802396891720948
0.3025862,0.0325982154483415,0.005491401731087254,0.008207997812705628,0.01253404383957299,0.039685168154809915,0.03674256187050507,0.12754597195235617,0.008799980068144682
0.3030517,0.032622617531990146,0.005466687103345023,0.008177662074204546,0.012804371152204355,0.0395457043019808,0.03672593835023027,0.12819267391196582,0.00879722565820734
0.3035172,0.03264756225764323,0.005442195024176037,0.008147044590251312,0.013077521353427844,0.0394046530175171,0.03670951422680384,0.12884043451484567,0.008794132732116301
0.3039828,0.03267304516511486,0.005417926174341645,0.008116146095841508,0.013353477465607696,0.0392620253668111,0.036693291109498025,0.12948913341112223,0.008790700438030076
0.3044483,0.03269906148688453,0.005393881217722457,0.008084967464311432,0.013632221823602192,0.03911783292094068,0.03667727064132859,0.130138649426721,0.008786928001971034
0.3049138,0.03272560615110027,0.005370060801156169,0.008053509706155874,0.013913736073366566,0.03897208775545609,0.036661454498473314,0.1307888605872733,0.008782814727707557
0.3053793,0.03275267378474852,0.005346465554285055,0.00802177396780151,0.01419800117072909,0.03882480244901732,0.03664584438967254,0.13143964414247525,0.008778359996607343
0.3058448,0.03278025871699025,0.005323096089413428,0.007989761530337543,0.014484997380343383,0.03867599008188532,0.03663044205561109,0.13209087659089272,0.008773563267463567
0.3063103,0.032808354982662595,0.005299953001375338,0.00795747380820521,0.014774704274819975,0.03852566423427001,0.036615249268280664,0.1327424337052068,0.008768424076295614
0.3067759,0.032836956325944945,0.005277036867412797,0.007924912347847786,0.015067100734040098,0.03837383898453856,0.036600267830321956,0.1333941905578922,0.00876294203612609
0.3072414,0.03286605620418855,0.0052543482470647895,0.007892078826322603,0.01536216494465458,0.038220528907287096,0.03658549957434552,0.1340460215473213,0.008757116836735768
0.3077069,0.03289564779190832,0.005231887682067353,0.007858975049876685,0.01565987439977065,0.0380657490712791,0.03657094636223051,0.13469780042428575,0.008750948244398173
0.3081724,0.032925723984935186,0.0052096556962650245,0.0078256029524875,0.015960205898829394,0.037909515037253975,0.03655661008440022,0.13534940031892695,0.008744436101595403
0.3086379,0.03295627740472753,0.005187652795533951,0.00779196459437035,0.016263135547676427,0.037751842855609063,0.0365424926590739,0.1360006937680654,0.008737580326716855
0.3091034,0.03298730040283943,0.005165879467717002,0.007758062160453921,0.016568638758828375,0.0375927490639583,0.036528596031494144,0.13665155274291838,0.008730380913742406
0.309569,0.033018785065543836,0.005144336182571198,0.00772389795882548,0.016876690251937568,0.037432250684570866,0.03651492217312925,0.13730184867719425,0.008722837931911575
0.3100345,0.03305072321860802,0.005123023391727818,0.00768947441914724,0.01718726405445722,0.0372703652216931,0.03650147308085009,0.13795145249555038,0.008714951525380182
0.3105,0.03308310643221872,0.005101941528665534,0.007654794091045376,0.017500333502509333,0.03710711065875673,0.03648825077608115,0.13860023464240104,0.00870672191286592
0.3109655,0.033115926026053844,0.005081091008696923,0.007619859642473222,0.017815871241957326,0.03694250545547645,0.03647525730392586,0.13924806511105983,0.008698149387284233
0.311431,0.033149173074497586,0.005060472228968681,0.007584673858050162,0.018133849229685448,0.036776568544839926,0.03646249473226645,0.1398948134732005,0.008689234315375842
0.3118966,0.033182838411995416,0.005040085568475849,0.007549239637377695,0.018454238735086684,0.03660931932999298,0.03644996515083892,0.14054034890861936,0.008679977137327233
0.3123621,0.033216912638545204,0.00501993138809033,0.007513559993334156,0.018777010341760936,0.03644077768102302,0.036437670670283896,0.14118454023528068,0.008670378366385323
0.3128276,0.03325138612532048,0.005000010030603928,0.007477638050349548,0.019102133949425074,0.03627096393164361,0.03642561342117423,0.14182725593962675,0.008660438588467496
0.3132931,0.03328624902042156,0.004980321820786172,0.007441477042661907,0.019429578776036426,0.03609989887578293,0.036413795553020566,0.14246836420713202,0.00865015846176815
0.3137586,0.03332149125475011,0.004960867065457102,0.0074050803125565315,0.019759313360131238,0.03592760376407914,0.03640221923325658,0.14310773295308113,0.008639538716362806
0.3142241,0.033357102548002296,0.004941646053575239,0.007368451308589392,0.020091305563379624,0.0357541003002854,0.036390886646205725,0.1437452298535498,0.008628580153810857
0.3146897,0.03339307241477556,0.0049226590563409105,0.007331593583795961,0.02042552257335853,0.03557941063758689,0.036379799992031815,0.14438072237656724,0.008617283646757885
0.3151552,0.033429390170783786,0.004903906327315103,0.007294510793886651,0.020761930906544216,0.03540355737483246,0.03636896148567576,0.14501407781343978,0.008605650138538534
0.3156207,0.033466044939175286,0.004885388102553964,0.007257206695429989,0.021100496411525806,0.035226563552682735,0.036358373355780876,0.145645163310215,0.008593680642780759
0.3160862,0.03350302565694769,0.0048671046007590256,0.007219685144024616,0.021441184272441374,0.035048452649677084,0.036348037843609037,0.1462738458992671,0.008581376243012247
0.3165517,0.0335403210814537,0.004849056023443242,0.007181950092461129,0.02178395901263808,0.034869248578220866,0.036337957201949725,0.1468999925309834,0.008568738092269783
0.3170172,0.03357791979699133,0.004831242555112823,0.0071440055888747685,0.022128784498557694,0.03468897568049479,0.03632813369402409,0.1475234701055315,0.008555767412712193
