Time,Rectus Femoris right,Rectus Femoris left,Hamstrings right,Hamstrings left,TibilaisÂ Anterior right,TibilaisÂ Anterior left,Gastrocnemius right,Gastrocnemius left
0.0,-0.0032566043888015814,-0.0011151963338660587,0.0008250644488961124,0.0031874528497199896,-0.0002490864026488692,0.0007032050026141953,-0.008356231878933702,0.005138208727257048
0.0004655,-0.0031500981868701973,-0.0010565923786850335,0.001036952304036178,0.003293665214390808,-0.0002191649663780253,0.0008208413083430188,-0.008174783061578919,0.005375507123437414
0.000931,-0.003043388898924553,-0.00099797766572598,0.0012489078912714553,0.0033999541037522145,-0.000188428391112998,0.0009388522577776506,-0.007992220624901908,0.005611805106198282
0.0013966,-0.002936486869003403,-0.0009393587225131815,0.001460900928008987,0.003506304509130772,-0.0001568709554226391,0.0010572272888814756,-0.007808549014071981,0.005847064967971933
0.0018621,-0.002829402452668451,-0.0008807420680580304,0.0016729010369033945,0.003612701367071873,-0.000124487049709562,0.0011759557942660297,-0.007623772730063469,0.00608124923137192
0.0023276,-0.00272214601405263,-0.0008221342110826712,0.0018848777539207575,0.0037191295634271086,-9.127117865240048e-05,0.0012950271241689863,-0.007437896329174542,0.0063143206622424545
0.0027931,-0.002614727922923201,-0.0007635416482582313,0.00209680053644864,0.003825573937464226,-5.721796363961155e-05,0.0014144305894287284,-0.007250924422619565,0.006546242282632015
0.0032586,-0.0025071585517616817,-0.0007049708624586565,0.0023086387714491285,0.003932019285997254,-2.2322145194004783e-05,0.0015341554644528954,-0.007062861676197161,0.006776977383682669
0.0037241,-0.0023994482728625925,-0.0006464283210311467,0.002520361783651755,0.00403845036753441,1.3421414612826242e-05,0.0016541909901783922,-0.006873712810036059,0.00700648953842669
0.0041897,-0.0022916074554529173,-0.0005879204740841653,0.00273193884378319,0.004144851906441499,5.0017729757001476e-05,0.0017745263770204795,-0.00668348259842069,0.007234742614482074
0.0046552,-0.0021836464628341417,-0.0005294537527939766,0.002943339176830603,0.004251208597118547,8.747168787061822e-05,0.0018951508078087224,-0.006492175869698395,0.0074617007866385815
0.0051207,-0.002075575649548657,-0.00047103456773064684,0.00315453197033559,0.00435750510818748,0.00012578804786262356,0.0020160534407077267,-0.006299797506270017,0.007687328549325909
0.0055862,-0.0019674053585722376,-0.000412669307204441,0.00336548638271557,0.0044637260866886835,0.00016497143755314224,0.0021372234121207474,-0.006106352444665518,0.007911590728955706
0.0060517,-0.0018591459185342098,-0.0003543643356335301,0.0035761715516095293,0.004569856162284289,0.00020502635132210986,0.0022586498395743724,-0.005911845675706217,0.008134452496129213
0.0065172,-0.0017508076409668192,-0.0002961259919339128,0.003786556602245021,0.004675879951466059,0.0002459571477730626,0.002380321824582584,-0.005716282244755113,0.008355879377702463
0.0069828,-0.0016424008175851647,-0.00023796058793243123,0.003996610655823316,0.004781782061765724,0.00028776804741293587,0.002502228455488562,-0.005519667252056648,0.008575837268701259
0.0074483,-0.001533935717598942,-0.00017987440680373453,0.004206302837919628,0.004887547095965669,0.00033046313034872386,0.002624358810282631,-0.00532200585316709,0.008794292444078266
0.0079138,-0.0014254225850570948,-0.00012187370153199274,0.004415602286895397,0.004993159656307869,0.0003740463340018526,0.0027467019593947887,-0.005123303259476573,0.009011211570304762
0.0083793,-0.0013168716362263375,-6.396469339810701e-05,0.004624478162319682,0.005098604348698973,0.0004185214508411184,0.0028692469684602853,-0.004923564738823546,0.009226561716789754
0.0088448,-0.0012082930570043945,-6.153570493089272e-06,0.004832899653396816,0.0052038657869094675,0.00046389212613504656,0.0029919829010567928,-0.004722795616202193,0.009440310367119313
0.0093103,-0.001099697000368685,5.1553513741787e-05,0.0050408359873975435,0.00530892859676483,0.0005101618557245273,0.003114898821411771,-0.004521001274563102,0.009652425430109137
0.0097759,-0.0009910935838610962,0.00010915044194753339,0.005248256438091006,0.005413777420326608,0.0005573339838165874,0.0032379837970787344,-0.0043181871557072425,0.00986287525066347
0.0102414,-0.0008824928871094058,0.00016663113425221935,0.005455130334175084,0.005518396920061377,0.000605411700800162,0.0033612269015811922,-0.004114358761273053,0.010071628620433586
0.0107069,-0.0007739049493858671,0.00022398954964755172,0.005661427067702838,0.00562277178299553,0.0006543980410847368,0.003484617217023158,-0.003909521653816188,0.010278654788269191
0.0111724,-0.0006653397672034255,0.0002812196873368843,0.005867116102502986,0.005726886724853891,0.0007042958809627321,0.0036081438366652,-0.0037036814579811546,0.010483923470456307
0.0116379,-0.0005568072919500137,0.00033831558805431613,0.006072166982592499,0.005830726494180166,0.0007551079364965091,0.0037317958674651297,-0.003496843861763671,0.010687404860735626
0.0121034,-0.00044831742756136196,0.00039527133535456616,0.006276549340579522,0.005934275876437256,0.0008068367614308829,0.0038555624325825404,-0.003289014617862257,0.010889069640095908
0.012569,-0.0003398800282327448,0.0004520810568733331,0.006480232906054835,0.006037519698085505,0.0008594847451320304,0.00397943267384649,-0.003080199545117294,0.011088888986337595
0.0130345,-0.00023150489617008164,0.000508738925557867,0.006683187513970145,0.006140442830637012,0.0009130541105536928,0.004103395754185691,-0.0028704045300356135,0.011286834583402442
0.0135,-0.0001232017793807975,0.0005652391608675015,0.0068853831130015345,0.0062430301946841595,0.0009675469122315673,0.004227440860020606,-0.0026596355283985467,0.011482878630465244
0.0139655,-1.4980369504841034e-05,0.0006215760299439171,0.007086789773896402,0.006345266763900546,0.001022965034306794,0.004351557203616881,-0.002447898566951272,0.011676993850784136
0.014431,9.314970031375302e-05,0.0006777438487509312,0.007287377697802283,0.006447137569012582,0.0010793101885794422,0.004475734025399606,-0.0022351997451712205,0.011869153500306068
0.0148966,0.00020117885751438222,0.0007337369831836347,0.007487117224575919,0.00654862770174001,0.0011365839125929058,0.004599960596227931,-0.0020215452371132353,0.012059331376024291
0.0153621,0.00030909759216611544,0.0007895498501467215,0.007685978841070998,0.00664972231870366,0.0011947875677501135,0.004724226219629643,-0.0018069412933291275,0.012247501824084706
0.0158276,0.00041689645897230774,0.0008451769186018865,0.007883933189402954,0.00675040664529874,0.0012539223374624638,0.0048485202339953555,-0.0015913942428592385,0.012433639747638009
0.0162931,0.0005245660792332647,0.0009006127105841982,0.008080951075189201,0.0068506659795319925,0.0013139892253323856,0.004972832014732006,-0.0013749104952935898,0.012617720614434556
0.0167586,0.000632097142766654,0.0009558518021873877,0.008277003475763153,0.006950485695821071,0.0013749890533704238,0.005097150976375462,-0.0011574965429001658,0.012799720464158976
0.0172241,0.0007394804097853952,0.0010108888245180232,0.008472061548360353,0.007049851248754528,0.001436922460247742,0.005221466574662073,-0.0009391589628178448,0.012979615915501666
0.0176897,0.0008467067127327957,0.0010657184646185658,0.008666096638274981,0.0071487481768108254,0.001499789899584929,0.005345768308559094,-0.0007199044193114679,0.013157384172964517
0.0181552,0.0009537669580747491,0.0011203354663593284,0.008859080286984919,0.00724716210603485,0.0015635916382779808,0.005470045722253925,-0.0004997396660865039,0.013333003033398464
0.0186207,0.00106065212804885,0.00117473463129938,0.009050984240243544,0.007345078753670442,0.0016283277548623212,0.005594288407102159,-0.0002786715486607423,0.01350645089227059
0.0190862,0.0011673532823703212,0.001228910819516466,0.009241780456136302,0.007442483931747558,0.001693998137915719,0.005718486003534434,-5.6707006790418404e-05,0.01367770674965869
0.0195517,0.0012738615598946908,0.0012828589504060282,0.00943144111310008,0.007539363550622726,0.0017606024845009361,0.005842628202922121,0.00016614692305185223,0.013846750215971242
0.0200172,0.0013801681802371956,0.0013365740034494327,0.009619938617903293,0.007635703622471477,0.0018281402986489398,0.005966704749401884,0.00038988310514998165,0.014013561517390869
0.0204828,0.001486264445348932,0.0013900510189515313,0.00980724561358457,0.007731490264731531,0.0018966108898834937,0.006090705441659229,0.0006144943019708366,0.014178121501039526
0.0209483,0.001592141741049817,0.0014432850987477048,0.009993334987347828,0.007826709703495461,0.001966013371787939,0.006214620134671195,0.000839973171546888,0.01434041163986381
0.0214138,0.0016977915385184778,0.001496271406880546,0.010178179878411462,0.007921348276851595,0.0020363466606149573,0.006338438741408394,0.0010663122648178114,0.01450041403723923
0.0218793,0.001803205395739232,0.0015490051702463739,0.010361753685809307,0.00801539243817186,0.002107609473940101,0.006462151234496716,0.0012935040229337914,0.014658111431292527
0.0223448,0.0019083749589063643,0.0016014816792117798,0.010544030076140992,0.008108828759345299,0.0021798003293598623,0.00658574764783908,0.0015215407745233073,0.01481348719894138
0.0228103,0.002013291963785931,0.001653696288200433,0.010724982991269203,0.008201643933956062,0.0022529175432350382,0.006709218078197681,0.0017504147329281932,0.014966525359651024
0.0232759,0.0021179482370353355,0.0017056444162503951,0.010904586655961291,0.008293824780404638,0.002326959229480132,0.006832552686737227,0.0019801179934087923,0.01511721057890724
0.0237414,0.002222335697480931,0.001757321547542218,0.01108281558547264,0.008385358244971237,0.0024019232983995185,0.0069557417005297,0.0022106425303220403,0.015265528171405142
0.0242069,0.002326446357353888,0.0018087232318981293,0.011259644593069105,0.008476231404820223,0.002477807455571082,0.007078775414021171,0.002441980194275327,0.015411464103953124
0.0246724,0.002430272323484583,0.0018598450852526354,0.011435048797485727,0.008566431470944604,0.0025546092007780147,0.0072016441904612215,0.0026741227092589898,0.015555004998091192
0.0251379,0.0025338057984557595,0.0019106827900949067,0.011609003630318877,0.008655945791049434,0.0026323258269894487,0.007324338463295439,0.002907061669760315,0.015696138132422897
0.0256034,0.0026370390817147204,0.001961232095883346,0.011781484843348861,0.008744761852373077,0.002710954419390575,0.007446848737521481,0.0031407885378619193,0.015834851444660066
0.026069,0.002739964570644813,0.002011488819432773,0.011952468515789984,0.00883286728444517,0.00279049185446288,0.0075691655910091315,0.003375294640327385,0.015971133533379533
0.0265345,0.0028425747615964695,0.0020614488452747066,0.012121931061464872,0.008920249861780185,0.0028709347991151216,0.007691279675784757,0.003610571165677018,0.01610497365949119
0.027,0.002944862250878062,0.002111108125991256,0.01228984923589987,0.009006897506505459,0.002952279709865653,0.007813181719280545,0.003846609161256601,0.016236361747416807
0.0274655,0.003046819735706848,0.0021604626825231944,0.012456200143338177,0.009092798290922743,0.003034522832076683,0.007934862525548918,0.004083399530302007,0.016365288385979487
0.027931,0.0031484400151203006,0.0022095086044528075,0.012620961243667326,0.009177940440002513,0.0031176601992410516,0.008056312976442478,0.004320933029002567,0.01649174482900393
0.0283966,0.0032497159908481473,0.0022582420502621436,0.012784110359257566,0.009262312333810533,0.0032016876323221,0.008177524032759882,0.004559200263566104,0.016615722995628354
0.0288621,0.003350640668145468,0.002306659247567298,0.012945625681707604,0.009345902509866402,0.003286600739147185,0.008298486735358022,0.004798191687288653,0.016737215470329334
0.0293276,0.0034512071565872514,0.002354756493329364,0.013105485778494129,0.009428699665434075,0.0033723949138553993,0.008419192206230948,0.005037897597631978,0.016856215502661247
0.0297931,0.0035514086708248326,0.0024025301540426757,0.013263669599521551,0.009510692659744586,0.0034590653364000353,0.008539631649555927,0.005278308133312099,0.016972717006712105
0.0302586,0.0036512385313046984,0.00244997666590096,0.01342015648356828,0.009591870516151369,0.0035466069721063337,0.008659796352707045,0.005519413271402134,0.01708671456027791
0.0307241,0.003750690164950166,0.0024970925349420167,0.01357492616462579,0.009672222424218647,0.003635014571285057,0.00877967768723682,0.005761202824452814,0.017198203403757762
0.0311897,0.0038497571058064635,0.0025438743371715405,0.013727958778126702,0.009751737741743522,0.0037242826689024102,0.008899267109826237,0.006003666437634048,0.017307179438772472
0.0316552,0.0039484329956497545,0.0025903187186666916,0.013879234867057956,0.009830405996712362,0.0038144055843068285,0.00901855616320368,0.0062467935859008995,0.017413639226509636
0.0321207,0.004046711584560624,0.002636422395660048,0.01402873538795507,0.009908216889192177,0.0039053774210131556,0.009137536477033206,0.00649057357118729,0.01751757998579874
0.0325862,0.004144586731462514,0.002682182154604567,0.014176441716773397,0.009985160293157639,0.003997192066544717,0.009256199768772686,0.00673499551963074,0.017618999590920136
0.0330517,0.0042420524046255965,0.002727594852220202,0.01432233565463219,0.01006122625825445,0.004089843192333789,0.009374537844502314,0.006980048378831408,0.017717896569152066
0.0335172,0.004339102682136501,0.002772657415522829,0.014466399433427287,0.010136405011499745,0.004183324253680955,0.0094925425997241,0.007225720915148643,0.017814270098060143
0.0339828,0.004435731752334344,0.002817366841836153,0.014608615721308223,0.010210686958920193,0.0042776284897738295,0.009610206020132961,0.007472001711038292,0.0179081200025339
0.0344483,0.00453193391421343,0.0028617201987872587,0.014748967628015582,0.010284062687128401,0.0043727489237656075,0.009727520182360132,0.007718879162433957,0.01799944675157513
0.0349138,0.0046277035777930195,0.0029057146242864916,0.014887438710074427,0.010356522964838227,0.004468678362913909,0.009844477254689642,0.007966341476175408,0.01808825145484285
0.0353793,0.004723035264454541,0.002949347326492355,0.015024012975839796,0.010428058744319587,0.00456540939878033,0.009961069497748604,0.008214376667487358,0.018174535858959714
0.0358448,0.004817923607246612,0.0029926155837621347,0.015158674890390238,0.010498661162793325,0.004662934407491117,0.010077289265172113,0.008462972557511725,0.018258302343584734
0.0363103,0.00491236335115821,0.0030355167445889684,0.015291409380265452,0.010568321543766758,0.004761245550059352,0.010193129004243467,0.008712116770896504,0.01833955391725707
0.0367759,0.00500634935336031,0.003078048227526113,0.015422201838044191,0.010637031398310537,0.004860334772769007,0.010308581256510458,0.008961796733444268,0.018418294213015583
0.0372414,0.005099876583416291,0.0031202075210991524,0.015551038126758654,0.010704782426277494,0.004960193807621166,0.010423638658378415,0.009211999669823319,0.018494527483798828
0.0377069,0.0051929401234613315,0.0031619921837069257,0.015677904584141575,0.010771566517464139,0.0050608141728427335,0.01053829394168068,0.009462712601344363,0.01856825859763005
0.0381724,0.005285535168351025,0.0032033998435119335,0.01580278802670237,0.010837375752715461,0.005162187173457851,0.0106525399342271,0.009713922343805581,0.018639493032591808
0.0386379,0.00537765702577938,0.003244428198321011,0.01592567575362865,0.01090220240497373,0.005264303901922239,0.01076636956033112,0.00996561550540886,0.018708236871594838
0.0391034,0.005469301116366353,0.003285075015457034,0.01604655555050951,0.010966038940271929,0.005367155238820636,0.01087977584131592,0.010217778484749926,0.01877449679694588
0.039569,0.005560462973715027,0.003325338131622419,0.016165415692877067,0.011028878018672436,0.005470731853627462,0.010992751895999976,0.010470397468885055,0.018838280084719345
0.0400345,0.005651138244438527,0.0033652154527551536,0.01628224494956276,0.0110907124951515,0.005575024205530796,0.01110529094116234,0.010723458431476983,0.018899594598938047
0.0405,0.005741322688156773,0.00340470495387808,0.016397032585865154,0.011151535420430065,0.005680022544319738,0.011217386291987838,0.010976947131022624,0.018958448785568374
0.0409655,0.005831012177463177,0.003443804678942129,0.01650976836652616,0.011211340041751356,0.005785716911335163,0.011329031362492305,0.011230849109165171,0.0190148516663356
0.041431,0.005920202697861425,0.003482512740664186,0.01662044255851282,0.011270119803605705,0.005892097140483906,0.011440219665927884,0.011485149689093142,0.019068812832365015
0.0418966,0.006008890347672545,0.0035208273203602538,0.01672904593360194,0.011327868348402959,0.005999152859316307,0.011550944815168369,0.01173983397402896,0.019120342437654415
0.0423621,0.006097071337912486,0.0035587466677745616,0.01683556977076508,0.011384579517092888,0.006106873490167087,0.011661200523074506,0.011994886845809617,0.01916945119238357
0.0428276,0.006184741992140468,0.003596269100905244,0.016940005858351384,0.011440247349733913,0.006215248251359472,0.0117709806028391,0.012250292963561971,0.019216150356066115
0.0432931,0.0062718987462784155,0.003633393005827192,0.01704234649606597,0.011494866086010571,0.006324266158472446,0.011880278968311772,0.012506036762475284,0.019260451730549247
0.0437586,0.006358538148401802,0.0036701168365126558,0.017142584496741532,0.011548430165700053,0.006433916025671025,0.011989089634303085,0.012762102452673497,0.019302367652866626
0.0442241,0.006444656858502261,0.003706439114650148,0.017240713187901102,0.011600934229088122,0.0065441864670993674,0.01209740671686779,0.013018474018189764,0.0193419109879496
0.0446897,0.006530251648222359,0.0037423584294621853,0.01733672641310984,0.011652373117334823,0.006655065898336599,0.012205224433566858,0.013275135216045697,0.019379095121201985
0.0451552,0.0066153194005629384,0.003777873437522358,0.017430618533113902,0.01170274187279025,0.006766542537915111,0.012312537103707905,0.013532069575437691,0.01941393395094332
0.0456207,0.00669985710956346,0.003812982862572209,0.01752238442676445,0.011752035739260758,0.006878604408901151,0.012419339148563548,0.01378926039703267,0.019446441880725595
0.0460862,0.006783861879955791,0.0038476854953383775,0.01761201949172513,0.01180025016222589,0.006991239340537436,0.012525625091567147,0.014046690752375406,0.019476633811528248
0.0465517,0.00686733092679184,0.003881980193350441,0.01769951964496148,0.011847380789006368,0.0071044349699475465,0.012631389558485315,0.014304343483409497,0.019504525133836145
0.0470172,0.006950261575045452,0.003915865880759849,0.01778488132301094,0.011893423468883429,0.007218178743901821,0.012736627277566526,0.014562201202113979,0.01953013171960523
0.0474828,0.007032651259188978,0.003949341548160341,0.017868101482032224,0.011938374253169811,0.007332457920644422,0.012841333079665085,0.014820246290257407,0.01955346991412036
0.0479483,0.007114497522744896,0.003982406252410195,0.017949177597632912,0.011982229395232722,0.007447259571781274,0.012945501898339625,0.015078460899271168,0.019574556527749903
0.0484138,0.007195798017812877,0.004015059116456651,0.01802810766447426,0.012024985350469029,0.007562570584228491,0.013049128769925195,0.015336826950243602,0.01959340882760159
0.0488793,0.007276550504572617,0.00404729932916283,0.018104890195652153,0.012066638776233004,0.007678377662220949,0.013152208833577953,0.015595326134036488,0.01961004452908412
0.0493448,0.007356752850762777,0.004079126145137439,0.018179524221853358,0.012107186531716883,0.007794667329380565,0.01325473733129138,0.015853939911525294,0.019624481787378942
0.0498103,0.007436403031136316,0.004110538884567551,0.018252009290286197,0.012146625677784531,0.007911425930843895,0.013356709607882917,0.016112649513964513,0.019636739188826656
0.0502759,0.0075154991268924455,0.004141536933054687,0.018322345463385077,0.012184953476758471,0.008028639635448576,0.01345812111095003,0.016371435943479333,0.019646835742232374
0.0507414,0.0075940393250854546,0.004172119741454441,0.01839053331728845,0.012222167392160579,0.008146294437978171,0.013558967390794631,0.01663027997368474,0.019654790870094373
0.0512069,0.007672021918010584,0.004202286825719821,0.018456573940089958,0.012258265088406672,0.008264376161464894,0.013659244100314898,0.01688916215043312,0.019660624399760226
0.0516724,0.007749445302567123,0.0042320377667484695,0.01852046892986254,0.01229324443045524,0.008382870459549713,0.013758946994863533,0.01714806279269139,0.019664356554514636
0.0521379,0.007826307979598926,0.0042613722102338835,0.018582220392455377,0.012327103483410597,0.0085017628188993,0.013858071932071562,0.017406961993548572,0.019666007944603013
0.0526034,0.007902608553212571,0.004290289866520736,0.018641830939063648,0.012359840512080689,0.00862103856167926,0.013956614871636809,0.01766583962135485,0.0196655995581948
0.053069,0.007978345730073479,0.004318790510464362,0.018699303683571315,0.012391453980489764,0.008740682848083069,0.014054571875076376,0.01792467532099292,0.019663152752290382
0.0535345,0.008053518318680352,0.004346873981294449,0.018754642239667458,0.012421942551346132,0.00886068067891615,0.014151939105442725,0.018183448515282634,0.019658689243575417
0.054,0.008128125228618449,0.0043745401824829755,0.018807850717737364,0.012451305085465192,0.008981016898234462,0.014248712827003221,0.018442138406519634,0.019652231099226144
0.0544655,0.008202165469792187,0.004401789081616378,0.018858933721530104,0.012479540641147924,0.00910167619603699,0.014344889404883347,0.018700723978148884,0.019643800727669334
0.054931,0.008275638151637644,0.0044286207102719344,0.018907896344605164,0.012506648473515016,0.009222643111011545,0.014440465304674032,0.018959183996573686,0.019633420869300335
0.0553966,0.00834854248231545,0.0044550351638983215,0.018954744166561236,0.01253262803379672,0.009343902033333233,0.01453543709200377,0.01921749701310094,0.019621114587162723
0.0558621,0.008420877767884647,0.00448103260170026,0.018999483249050837,0.012557478968578577,0.009465437207515009,0.014629801432076359,0.0194756413660233,0.019606905257593028
0.0563276,0.008492643411457971,0.004506613246527154,0.019042120131584666,0.012581201119003151,0.009587232735309727,0.014723555089175416,0.019733595182838824,0.019590816560834
0.0567931,0.008563838912339132,0.004531777384765588,0.019082661827130008,0.01260379451992798,0.009709272578663122,0.01481669492613718,0.019991336382608832,0.019572872471619856
0.0572586,0.008634463865142668,0.004556525366235511,0.01912111581750766,0.012625259399039995,0.009831540562717156,0.014909217903793447,0.020248842678454573,0.019553097249736986
0.0577241,0.008704517958897052,0.004580857604089938,0.019157490048591904,0.012645596175926727,0.009954020378863176,0.015001121080386835,0.02050609158019334,0.019531515430563605
0.0581897,0.008774000976131784,0.004604774574717948,0.01919179292531808,0.012664805461104753,0.010076695587844377,0.015092401610960725,0.020763060397114595,0.019508151815591818
0.0586552,0.008842912791949235,0.004628276817650792,0.01922403330650226,0.012682888055005833,0.010199549622907103,0.015183056746726396,0.021019726240896656,0.019483031462935608
0.0591207,0.008911253373082023,0.004651364935470851,0.019254220499477632,0.012699844946921288,0.010322565793000664,0.015273083834409857,0.02127606602866441,0.019456179677828322
0.0595862,0.00897902277693667,0.004674039593723221,0.019282364254552115,0.01271567731390534,0.010445727286025355,0.015362480315580842,0.021532056486188632,0.01942762200311324
0.0600517,0.009046221150624298,0.0046963015208296675,0.019308474759291882,0.012730386519638096,0.010569017172128431,0.015451243725966587,0.021787674151227336,0.019397384209730827
0.0605172,0.009112848729979098,0.004718151508004639,0.01933256263263553,0.012743974113249101,0.010692418407047816,0.015539371694752847,0.022042895377009677,0.019365492287206267
0.0609828,0.009178905838565314,0.004739590409173034,0.01935463891884372,0.012756441828102445,0.01081591383550335,0.01562686194387471,0.022297696335862774,0.019331972434140803
0.0614483,0.009244392886673567,0.004760619140889362,0.019374715081289167,0.012767791580544533,0.010939486194635353,0.015713712287299588,0.02255205302298189,0.019296851048710376
0.0619138,0.009309310370307326,0.004781238682257905,0.01939280299609184,0.012778025468615783,0.011063118117490308,0.01579992063030482,0.022805941260344152,0.019260154719175138
0.0623793,0.009373658870160418,0.004801450074853485,0.019408914945604466,0.01278714577072756,0.01118679213655343,0.015885484968752292,0.02305933670076606,0.01922191021440328
0.0628448,0.009437439050586482,0.0048212544226423695,0.0194230636117533,0.012795154944305822,0.011310490687327908,0.015970403388362437,0.023312214832104796,0.01918214447441274
0.0633103,0.00950065165856127,0.0048406528919028675,0.019435262069239363,0.012802055624402953,0.011434196111960518,0.016054674063990006,0.023564550981603313,0.019140884600934407
0.0637759,0.009563297522638715,0.004859646711145137,0.01944552377860515,0.012807850622279302,0.011557890662913272,0.016138295258903996,0.02381632032037887,0.019098157848000605
0.0642414,0.00962537755190163,0.004878237171029738,0.01945386257917214,0.012812542923956026,0.01168155650668074,0.01622126532407416,0.02406749786805463,0.019053991612562587
0.0647069,0.009686892734907825,0.004896425624284459,0.01946029268185429,0.012816135688740784,0.011805175727552599,0.01630358269746643,0.024318058497533723,0.019008413425140796
0.0651724,0.009747844138632404,0.004914213485618987,0.01946482866185276,0.012818632247727774,0.011928730331420879,0.01638524590334964,0.024567976939915137,0.018961450940511666
0.0656379,0.009808232907406926,0.0049316022316369945,0.01946748545123724,0.012820036102273594,0.012052202249631319,0.016466253551615826,0.024817227789550287,0.01891313192843471
0.0661034,0.009868060261856076,0.004948593400745269,0.01946827833141921,0.012820350922450369,0.012175573342878195,0.016546604337116324,0.0250657855092393,0.018863484264423552
0.066569,0.009927327497832476,0.004965188593059527,0.0194672229255226,0.012819580545477485,0.012298825405141931,0.016626297039015966,0.025313624435565535,0.018812535920564543
0.0670345,0.009986035985350196,0.004981389470306615,0.019464335190657347,0.01281772897413328,0.012421940167668746,0.016705330520167427,0.025560718784366887,0.018760314956386578
0.0675,0.010044187167517577,0.004997197755722784,0.019459631410101444,0.012814800375148028,0.012544899302991642,0.01678370372650787,0.025807042656342174,0.01870684950978565
0.0679655,0.01010178255946987,0.005012615233947801,0.019453128185397187,0.012810799077579522,0.01266768442899192,0.016861415686479836,0.026052570042790713,0.01865216778800762
0.068431,0.010158823747302191,0.005027643750914632,0.019444842428367356,0.012805729571172552,0.012790277113000409,0.016938465510478225,0.026297274831482993,0.018596298058692683
0.0688966,0.01021531238700325,0.005042285213734453,0.019434791353057007,0.01279959650470356,0.012912658875937491,0.01701485239032519,0.026541130812660123,0.018539268640984836
0.0693621,0.010271250203390167,0.005056541590576742,0.019422992467606738,0.012792404684311667,0.013034811196490996,0.017090575598774447,0.026784111685159626,0.01848110789670973
0.0698276,0.010326638989044727,0.005070414910544209,0.019409463566063007,0.012784159071817272,0.013156715515330826,0.01716563448904658,0.027026191062664868,0.018421844221624132
0.0702931,0.010381480603251295,0.005083907263542366,0.019394222720131166,0.012774864783029364,0.013278353239359246,0.017240028494396605,0.027267342480075236,0.01836150603674019
0.0707586,0.010435776970936592,0.0050970208001435416,0.019377288270876827,0.012764527086042643,0.013399705745995654,0.017313757127715042,0.027507539399994067,0.018300121779727632
0.0712241,0.010489530081611511,0.005109757731445169,0.01935867882038108,0.012753151399525544,0.013520754387494723,0.01738681998116361,0.027746755219330944,0.018237719896396908
0.0716897,0.010542741988315042,0.005122120328922196,0.01933841322335499,0.012740743291000164,0.013641480495296732,0.017459216725846567,0.027984963276014973,0.018174328832266277
0.0721552,0.01059541480656039,0.005134110924273482,0.0193165105787188,0.012727308475115119,0.013761865384409063,0.017530947111518584,0.028222136855815226,0.01810997702421562
0.0726207,0.010647550713283275,0.005145731909262054,0.019292990221151163,0.012712852811912239,0.013881890357817856,0.017602010966329937,0.028458249199264544,0.018044692892229743
0.0730862,0.010699151945792382,0.005156985735549097,0.019267871712613648,0.012697382305088038,0.014001536710928785,0.01767240819660963,0.028693273508682577,0.01797850483123372
0.0735517,0.010750220800721935,0.0051678749145215785,0.019241174833855713,0.01268090310025084,0.014120785736035991,0.017742138786687,0.02892718295529385,0.017911441203022734
0.0740172,0.010800759632986367,0.0051784020171134,0.01921291957590523,0.01266342148317436,0.01423961872681809,0.017811202798752195,0.029159950686436443,0.017843530328288764
0.0744828,0.010850770854737242,0.005188569673619937,0.019183126131549582,0.012644943878048605,0.014358016982860178,0.017879600372755662,0.029391549832856634,0.017774800478746276
0.0749483,0.010900256934322622,0.005198380573505883,0.01915181488681225,0.012625476845728787,0.014475961814200565,0.017947331726346882,0.029621953516084862,0.017705279869358978
0.0754138,0.010949220395249247,0.005207837465206251,0.01911900641242979,0.012605027081982993,0.014593434545900978,0.018014397154852292,0.029851134855888195,0.017634996650669536
0.0758793,0.010997663815148087,0.005216943155920395,0.019084721455333856,0.012583601415739266,0.014710416522638796,0.018080797031292395,0.030079066977794507,0.017563978901233988
0.0763448,0.011045589824743773,0.00522570051139889,0.01904898093014296,0.012561206807332742,0.01482688911331987,0.01814653180643782,0.030305723020683645,0.017492254620162483
0.0768103,0.011093001106828537,0.0052341124557230955,0.01901180591066849,0.012537850346753412,0.014942833715710277,0.018211602008904138,0.030531076144440776,0.017419851719767787
0.0772759,0.011139900395241237,0.005242181971077173,0.01897321762143948,0.012513539251895035,0.015058231761085386,0.018276008245284973,0.030755099537667047,0.017346798018322947
0.0777414,0.011186290473851952,0.005249912097512338,0.01893323742925035,0.012488280866805703,0.015173064718894574,0.018339751200322895,0.030977766425442664,0.017273121232929355
0.0782069,0.011232174175552672,0.005257305932703067,0.018891886834735937,0.012462082659940497,0.015287314101439863,0.018402831637117555,0.03119905007713729,0.017198848972496322
0.0786724,0.011277554381254478,0.0052643666316949415,0.018849187463977853,0.012434952222416607,0.015400961468566909,0.01846525039737026,0.031418923814262735,0.017124008730833133
0.0791379,0.011322434018891653,0.005271097406643789,0.018805161060146142,0.012406897266271236,0.015513988432366675,0.018527008401664158,0.03163736101836288,0.017048627879854467
0.0796034,0.011366816062433097,0.0052775015265457215,0.01875982947518013,0.012377925622722613,0.015626376661886127,0.01858810664977903,0.03185433513893607,0.01697273366289987
0.080069,0.011410703530901359,0.00528358231695766,0.01871321466151215,0.012348045240434325,0.015738107887846294,0.01864854622103968,0.03206981970138532,0.016896353188167935
0.0805345,0.011454099487399564,0.005289343159707838,0.0186653386638378,0.012317264183783176,0.01584916390736597,0.018708328274696703,0.03228378831499217,0.016819513422265606
0.081,0.011497007038146453,0.005294787492595787,0.018616223610936226,0.01228559063113063,0.01595952658868929,0.018767454050338292,0.03249621468091006,0.01674224118387299
0.0814655,0.011539429331519678,0.005299918809081235,0.01856589170754375,0.01225303287309801,0.016069177875915535,0.01882592486833175,0.03270707260017329,0.01666456313752394
0.081931,0.011581369557107483,0.005304740657961363,0.018514365226284187,0.01221959931084542,0.01617809979372947,0.018883742130293056,0.03291633598171787,0.016586505787502478
0.0823966,0.011622830944768877,0.005309256643035845,0.018461666499658948,0.012185298454354402,0.016286274452130576,0.018940907319582825,0.03312397885041037,0.016508095471855153
0.0828621,0.01166381676370246,0.005313470422759145,0.01840781791210001,0.012150138920714215,0.01639368405115956,0.01899742200182679,0.03332997535508116,0.01642935835651928
0.0833276,0.011704330321524058,0.005317385709879603,0.01835284189208878,0.012114129432411658,0.01650031088562046,0.019053287825458835,0.03353429977655848,0.01635032042956689
0.0837931,0.011744374963353323,0.005321006271064933,0.018296760904343748,0.012077278815624311,0.016606137349796476,0.019108506522284442,0.033736926535700075,0.016271007495564115
0.0842586,0.011783954070909486,0.005324335926513827,0.018239597442079696,0.012039595998516945,0.016711145942157772,0.019163079908062316,0.03393783020141884,0.01619144517004571
0.0847241,0.011823071061616435,0.00532737854955343,0.01818137401934116,0.012001090009540968,0.016815319270059175,0.01921700988310184,0.03413698549869935,0.01611165887410436
0.0851897,0.011861729387717318,0.005330138066222555,0.018122113163412796,0.011961769975736638,0.016918640054425744,0.01927029843287395,0.03433436731660175,0.016031673829094307
0.0856552,0.011899932535398946,0.005332618454840516,0.018061837407309166,0.011921645121037798,0.017021091134424002,0.01932294762863293,0.03452995071624979,0.015951515051449
0.0861207,0.011937684023926304,0.0053348237455615385,0.018000569282346595,0.011880724764578788,0.017122655472116537,0.019374959628046612,0.03472371093879943,0.015871207347612416
0.0865862,0.011974987404787538,0.005336758019914689,0.017938331310799673,0.011839018319003173,0.017223316157097636,0.019426336675832493,0.03491562341338442,0.01579077530908373
0.0870517,0.012011846260849843,0.005338425410329286,0.017875145998645085,0.011796535288773802,0.017323056411107415,0.019477081104397272,0.03510566376503503,0.01571024330757503
0.0875172,0.012048264205526711,0.0053398300996457355,0.017811035828395484,0.011753285268483729,0.017421859592621915,0.019527195334477318,0.035293807822566,0.015629635490281596
0.0879828,0.012084244881956935,0.005340976320611708,0.017746023252026174,0.011709277941167382,0.017519709201416354,0.019576681875777605,0.035480031626429154,0.015548975775264227
0.0884483,0.012119791962195807,0.005341868355363543,0.01768013068399736,0.011664523076611382,0.017616588883098763,0.019625543327606645,0.03566431143652654,0.01546828784694288
0.0889138,0.012154909146418789,0.005342510534892754,0.0176133804943747,0.011619030529664372,0.017712482433610992,0.019673782379504807,0.03584662373997935,0.015387595151700843
0.0893793,0.012189600162137947,0.005342907238497497,0.01754579500205083,0.011572810238545263,0.01780737380369402,0.019721401811863357,0.03602694525884781,0.01530692089359859
0.0898448,0.012223868763431319,0.005343062893218839,0.01747739646807052,0.011525872223149223,0.01790124710331444,0.019768404496531417,0.036205252957797245,0.015226288030196348
0.0903103,0.012257718730185326,0.005342981973261708,0.017408207089061958,0.011478226583350843,0.01799408660604906,0.01981479339740801,0.03638152405170524,0.015145719268484447
0.0907759,0.012291153867350305,0.005342668999400387,0.01733824899077666,0.011429883497303872,0.01808587675342473,0.019860571571016273,0.036555736013204804,0.015065237060920486
0.0912414,0.012324178004209147,0.005342128538368428,0.0172675442217403,0.011380853219736937,0.018176602159210763,0.01990574216705681,0.03672786658015821,0.014984863601572423
0.0917069,0.012356794993658984,0.005341365202232883,0.017196114747016777,0.011331146080244698,0.018266247613661853,0.019950308428937327,0.036897893763056196,0.014904620822366646
0.0921724,0.012389008711505788,0.0053403836477527175,0.017123982442087644,0.011280772481573933,0.018354798087709547,0.019994273694275533,0.03706579585233691,0.014824530389440089
0.0926379,0.012420823055771696,0.005339188575721312,0.017051169086848877,0.011229742897904032,0.018442238737100675,0.020037641395372292,0.03723155142561944,0.014744613699595475
0.0931034,0.012452241946014929,0.0053377847302929675,0.01697769635972696,0.011178067873121466,0.01852855490648122,0.02008041505965209,0.03739513935484685,0.014664891876858675
0.093569,0.0124832693226622,0.005336176898293356,0.016903585831916004,0.011125758019087799,0.018613732133424182,0.02012259831006767,0.03755653881333442,0.01458538576913712
0.0940345,0.012513909146353513,0.0053343699085138885,0.01682885896173756,0.011072824013900834,0.018697756152400453,0.020164194865465765,0.03771572928271939,0.01450611594497823
0.0945,0.012544165397299316,0.005332368630989996,0.016753537089124606,0.011019276600148497,0.01878061289869206,0.020205208540910707,0.037872690559809026,0.014427102690426737
0.0949655,0.01257404207465007,0.005330177976263379,0.016677641430231108,0.010965126583154978,0.01886228851224789,0.02024564324796283,0.038027402763324225,0.014348366005979675
0.095431,0.012603543195878248,0.00532780289462826,0.016601193072168296,0.010910384829218616,0.018942769341482632,0.02028550299490858,0.03817984634053599,0.014269925603637773
0.0958966,0.012632672796172926,0.005325248375361706,0.016524212967868785,0.010855062263840951,0.019022041947020188,0.020324791886939236,0.03833000207379169,0.014191800904051994
0.0963621,0.012661434927847128,0.005322519445938121,0.01644672193107944,0.010799169869946352,0.01910009310538311,0.020363514126275437,0.03847785108692807,0.014114011033763849
0.0968276,0.012689833659758088,0.005319621171227951,0.016368740631483778,0.010742718686091671,0.019176909812629577,0.020401674012234403,0.03862337485156784,0.014036574822538098
0.0972931,0.012717873076740556,0.0053165586526807,0.01629028958995463,0.010685719804665397,0.019252479287939474,0.020439275941236956,0.03876655519329635,0.013959510800786556
0.0977586,0.012745557279053283,0.005313337027492328,0.016211389173937586,0.010628184370075743,0.019326788977150986,0.020476324406751407,0.038907374297714965,0.013882837197081617
0.0982241,0.012772890381838682,0.005309961467757114,0.01613205959296572,0.010570123576927253,0.01939982655624895,0.020512823999171294,0.0390458147163677,0.013806571935758256
0.0986897,0.012799876514595602,0.00530643717960407,0.01605232089430595,0.010511548668185284,0.019471579934806138,0.020548779405624204,0.039181859372537514,0.013730732634603197
0.0991552,0.012826519820665128,0.005302769402318032,0.01597219295873739,0.010452470933327823,0.019542037259378364,0.020584195409708836,0.03931549156690863,0.01365533660262993
0.0996207,0.01285282445672912,0.005298963407445516,0.01589169549646192,0.010392901706483977,0.019611186916854314,0.020619076891157703,0.03944669498309116,0.013580400837938274
0.1000862,0.01287879459232124,0.0052950244978855155,0.015810848043147186,0.010332852364558475,0.019679017537760694,0.020653428825422884,0.03957545369300404,0.013505942025657082
0.1005517,0.01290443440935007,0.005290958006965337,0.015729669956102196,0.010272334325341598,0.019745517999523284,0.020687256283182284,0.0397017521621126,0.013431976535968771
0.1010172,0.012929748101633979,0.0052867692975016095,0.01564818041058562,0.01021135904560398,0.019810677429684252,0.020720564429763746,0.039825575254517104,0.013358520422214337
0.1014828,0.01295473987444735,0.005282463760846577,0.015566398396246796,0.010149938019175872,0.01987448520907604,0.020753358524484337,0.03994690823788889,0.01328558941907761
0.1019483,0.0129794139440779,0.005278046815919743,0.015484342713699372,0.010088082775010509,0.019936930974951927,0.020785643919902053,0.040065736788250914,0.013213198940847623
0.1024138,0.01300377453739485,0.0052735239082249315,0.015402031971227394,0.010025804875231314,0.01999800462407336,0.020817426060977046,0.040182046994599506,0.013141364079757965
0.1028793,0.013027825891427954,0.005268900508852774,0.015319484581623624,0.0099631159131627,0.020057696315753916,0.0208487104841394,0.040295825363364554,0.013070099604402094
0.1033448,0.013051572252957408,0.0052641821134686234,0.015236718759159728,0.009900027511344238,0.020115996474859798,0.020879502816260487,0.04040705882270523,0.012999419958223419
0.1038103,0.0130750178781148,0.005259374241285864,0.01515375251668797,0.009836551319528009,0.02017289579476649,0.020909808773524705,0.040515734726638934,0.012929339258079013
0.1042759,0.01309816703199528,0.005254482434024584,0.015070603662873997,0.009772699012659033,0.020228385240271297,0.020939634160198683,0.04062184085900112,0.012859871292875682
0.1047414,0.0131210239882811,0.005249512254855548,0.014987289799560322,0.009708482288838794,0.020282456050461292,0.020968984867295155,0.04072536543723427,0.012791029522277111
0.1052069,0.013143593028876629,0.005244469287329463,0.01490382831926006,0.009643912867272068,0.020335099741536102,0.02099786687112934,0.04082629711600412,0.012722827075480746
0.1056724,0.01316587844355491,0.005239359134291518,0.01482023640278054,0.009579002486197403,0.020386308109584944,0.02102628623176639,0.040924624990641555,0.012655276750063033
0.1061379,0.013187884529615657,0.005234187416781214,0.014736531016976388,0.009513762900801859,0.0204360732333172,0.021054249091359382,0.04102033860040833,0.012588391010891736
0.1066034,0.013209615591554561,0.005228959772917568,0.014652728912631686,0.009448205881120695,0.020484387476745778,0.02108176167237812,0.041113427931585005,0.012522181989104191
0.107069,0.0132310759407437,0.005223681856769775,0.014568846622470722,0.00938234320992291,0.020531243491822386,0.02110883027572948,0.04120388342037916,0.012456661481150532
0.1075345,0.013252269895122775,0.005218359337213491,0.01448490045929684,0.009316186680583611,0.020576634221023852,0.021135461278770477,0.04129169595565205,0.012391840947901358
0.108,0.013273201778900803,0.005212997896772896,0.014400906514258726,0.009249748094944285,0.020620552899888484,0.021161661133215142,0.04137685688146154,0.012327731513819514
0.1084655,0.01329387592226788,0.005207603230448752,0.014316880655243402,0.009183039261162157,0.020662993059501488,0.021187436362936546,0.041459357999419244,0.012264343966196018
0.108931,0.013314296661116557,0.005202181044532682,0.01423283852539511,0.009116071991549842,0.020703948528928314,0.02121279356166529,0.041539191570859495,0.012201688754450279
0.1093966,0.013334468336772364,0.0051967370554079385,0.014148795541759117,0.009048858100406608,0.02074341343759475,0.021237739390585954,0.04161635031881765,0.012139775989494839
0.1098621,0.013354395295732907,0.005191276988336931,0.014064766894049376,0.008981409401842558,0.02078138221761254,0.021262280575833167,0.04169082742981502,0.012078615443164851
0.1103276,0.013374081889414947,0.005185806576235819,0.01398076754353886,0.00891373770759708,0.020817849606049158,0.021286423905889376,0.0417626165554476,0.01201821654771257
0.1107931,0.013393532473908823,0.005180331558436472,0.013896812222071363,0.008845854824852927,0.02085281064714037,0.021310176228886694,0.04183171181377574,0.011958588395367137
0.1112586,0.013412751409739559,0.00517485767943614,0.013812915431193399,0.00877777255404721,0.020886260694444034,0.021333544449815573,0.04189810779051186,0.011899739737960028
0.1117241,0.01343174306163396,0.005169390687635165,0.013729091441404833,0.008709502686680536,0.020918195412933504,0.021356535527643432,0.04196179954000369,0.011841678986616495
0.1121897,0.01345051179829289,0.005163936334063126,0.013645354291526723,0.008641057003125495,0.020948610781028842,0.021379156472346547,0.04202278258601028,0.011784414211513413
0.1126552,0.013469061992167866,0.005158500371093816,0.013561717788184878,0.008572447270435619,0.020977503092564048,0.021401414341858535,0.0420810529222679,0.011727953141703927
0.1131207,0.013487398019241014,0.005153088551149496,0.013478195505407579,0.008503685240155856,0.021004868958688347,0.021423316238938797,0.04213660701284277,0.01167230316500936
0.1135862,0.013505524258807277,0.005147706625394846,0.013394800784335912,0.008434782646135598,0.021030705309699502,0.021444869307964232,0.042189441792267086,0.011617471327978812
0.1140517,0.01352344509325778,0.005142360342421079,0.013311546733045174,0.008365751202345211,0.02105500939680705,0.02146608073164752,0.04223955466545482,0.011563464335916927
0.1145172,0.013541164907863052,0.0051370554469206235,0.013228446226475819,0.008296602600697013,0.021077778793823193,0.02148695772768514,0.04228694350739323,0.011510288552980304
0.1149828,0.013558688090554827,0.005131797678352817,0.013145511906472384,0.008227348508871588,0.021099011398779025,0.02150750754533838,0.042331606662606255,0.011457950002343046
0.1154483,0.013576019031705097,0.005126592769600965,0.013062756181928849,0.008158000568150286,0.021118705435463608,0.021527737461950407,0.04237354294438586,0.011406454366431873
0.1159138,0.013593162123900979,0.005121446445621125,0.012980191229038818,0.008088570391254749,0.021136859454883476,0.021547654779402486,0.042412751633787854,0.011355806987231373
0.1163793,0.013610121761713901,0.0051163644220829346,0.01289782899164893,0.008019069560194225,0.021153472336639965,0.021567266820512257,0.04244923247838892,0.011306012866659835
0.1168448,0.013626902341461581,0.005111352404002737,0.012815681181713823,0.007949509624121385,0.021168543290221904,0.02158658092537687,0.042482985690802506,0.011257076667016192
0.1173103,0.013643508260961194,0.005106416084369275,0.012733759279850933,0.007879902097197283,0.02118207185621108,0.021605604447663886,0.04251401194695153,0.011209002711498604
0.1177759,0.013659943919272112,0.0051015611427621425,0.012652074535993327,0.00781025845646602,0.021194057907398114,0.021624344750852568,0.042542312384097135,0.011161794984795166
0.1182414,0.013676213716426515,0.005096793243963157,0.012570637970138692,0.00774059013973967,0.02120450164980649,0.02164280920442819,0.04256788859862347,0.011115457133747318
0.1187069,0.013692322053146173,0.005092118036560786,0.012489460373192514,0.007670908543493883,0.021213403623622736,0.021661005180032073,0.04259074264357934,0.011069992468086468
0.1191724,0.013708273330543712,0.005087541151547717,0.012408552307903392,0.007601225020774645,0.021220764704031024,0.021678940047569966,0.04261087702597836,0.01102540396124441
0.1196379,0.013724071949806625,0.005083068200911605,0.012327924109888406,0.007531550879116557,0.021226586101950745,0.02169662117128135,0.042628294703859704,0.01098169425123812
0.1201034,0.013739722311862386,0.005078704776218996,0.012247585888746401,0.007461897378473037,0.02123086936467573,0.021714055905772325,0.04264299908311254,0.010938865641629531
0.120569,0.013755228817023133,0.005074456447192412,0.012167547529256936,0.00739227572915882,0.021233616376413775,0.021731251592014656,0.04265499401406859,0.010896920102560898
0.1210345,0.013770595864608565,0.005070328760280499,0.012087818692662705,0.007322697089805159,0.021234829358725137,0.021748215553313542,0.04266428378786921,0.010855859271866433
0.1215,0.013785827852545889,0.005066327237221175,0.012008408818033106,0.007253172565328132,0.02123451087085864,0.021764955091246537,0.04267087313261557,0.010815684456260903
0.1219655,0.013800929176945725,0.005062457373597674,0.011929327123706639,0.007183713204910477,0.021232663809984075,0.02178147748157613,0.04267476720931205,0.010776396632605883
0.122431,0.01381590423165316,0.005058724637387406,0.011850582608809865,0.007114329999997402,0.021229291411319497,0.02179778997013847,0.042675971607614126,0.01073799644925444
0.1228966,0.013830757407773151,0.005055134467503576,0.01177218405485068,0.007045033882306824,0.02122439724815209,0.02181389976871069,0.04267449234139214,0.010700484227474981
0.1233621,0.01384549309316962,0.005051692272329536,0.011694140027383702,0.0069758357218545255,0.021217985231751592,0.02182981405085929,0.042670335844122484,0.010663859962954988
0.1238276,0.013860115671937618,0.005048403428245916,0.01161645887774573,0.006906746324994681,0.021210059611175346,0.021845539947771928,0.042663508964117636,0.01062812332738543
0.1242931,0.01387462952384787,0.005045273278150609,0.011539148744859258,0.006837776432476272,0.021200624972964408,0.021861084544074955,0.04265401895960574,0.010593273670126576
0.1247586,0.013889039023763018,0.005042307129971755,0.011462217557102234,0.006768936717515867,0.02118968624073017,0.02187645487363889,0.04264187349367037,0.010559310019955966
0.1252241,0.013903348541024808,0.0050395102551739224,0.011385673034242315,0.00670023778388725,0.02117724867463115,0.021891657915374056,0.042627080629060704,0.010526231086899259
0.1256897,0.013917562438811521,0.005036887887257755,0.01130952268943402,0.00663169016402834,0.021163317870739728,0.021906700589018616,0.042609648822882054,0.01049403526414468
0.1261552,0.013931685073464916,0.0050344452202533896,0.011233773831277282,0.006563304317165911,0.021147899760298735,0.02192158975092158,0.04258958692117637,0.01046272063004172
0.1266207,0.013945720793786025,0.0050321874072079865,0.011158433565935912,0.006495090627458599,0.021131000608867995,0.021936332189823486,0.042566904153401745,0.010432284950184697
0.1270862,0.013959673940299351,0.005030119558667759,0.011083508799314535,0.006427059402158753,0.021112627015361173,0.02195093462263775,0.042541610126819854,0.010402725679581743
0.1275517,0.013973548844484904,0.0050282467411549,0.011009006239292414,0.006359220869793667,0.021092785910973393,0.021965403690235825,0.042513714820799894,0.010374039964909685
0.1280172,0.013987349827977683,0.005026573975639829,0.010934932398012584,0.0062915851783667395,0.02107148455800011,0.021979745953239548,0.04248322858104718,0.010346224646855225
0.1284828,0.014001081201734118,0.005025106236009207,0.0108612935942246,0.006224162393579083,0.021048730548547865,0.02199396788782406,0.04245016211376424,0.010319276262542752
0.1289483,0.014014747265164959,0.005023848447530178,0.01078809595567914,0.00615696249707206,0.021024531803137448,0.022008075881535086,0.04241452647975206,0.01029319104804903
0.1294138,0.01402835230523403,0.00502280548531131,0.010715345421572719,0.006089995384691199,0.02099889656919991,0.02202207622912462,0.04237633308845865,0.010267964941004952
0.1298793,0.014041900595522254,0.0050219821727607115,0.010643047745040725,0.006023270864771896,0.020971833419465808,0.02203597512840955,0.04233559369198202,0.010243593583284466
0.1303448,0.014055396395256338,0.005021383280041822,0.010571208495697008,0.005956798656447277,0.020943351250247967,0.02204977867615832,0.04229232037903406,0.010220072323780697
0.1308103,0.01406884394830156,0.005021013522527364,0.010499833062218205,0.005890588387978589,0.02091345927961793,0.0220634928640106,0.04224652556887201,0.010197396221269204
0.1312759,0.014082247482118256,0.005020877559251938,0.010428926654970923,0.005824649595108485,0.020882167045476265,0.022077123574435253,0.04219822200520335,0.010175560047358265
0.1317414,0.014095611206681692,0.005020979991363743,0.010358494308679921,0.005758991719437578,0.02084948440351692,0.022090676576731673,0.04214742275007015,0.010154558289525996
0.1322069,0.014108939313365326,0.005021325360575843,0.010288540885135228,0.0056936241068246095,0.020815421525085705,0.022104157523079468,0.042094141177718446,0.010134385154244058
0.1326724,0.014122235973787617,0.005021918147617412,0.010219071075936165,0.0056285560058106305,0.020779988894933172,0.022117571944641277,0.04203839096845796,0.010115034570187616
0.1331379,0.014135505338622784,0.0050227627706853255,0.010150089405270131,0.005563796566067556,0.02074319730886214,0.022130925247723393,0.041980186102517324,0.010096500191531197
0.1336034,0.014148751536376125,0.0050238635838964485,0.010081600232723935,0.005499354836871481,0.02070505787127037,0.022144222709998742,0.041919540853899595,0.010078775401329986
0.134069,0.014161978672124657,0.005025224875740964,0.010013607756125364,0.005435239765601158,0.02066558199258902,0.022157469476796525,0.041856469784242734,0.010061853314986088
0.1345345,0.01417519082622394,0.00502685086753704,0.009946116014412662,0.005371460196262049,0.020624781386617583,0.022170670557462756,0.04179098773668937,0.010045726783799166
0.135,0.014188392052982016,0.005028745711887166,0.009879128890529434,0.005308024868036371,0.020582668067756126,0.022183830821795605,0.041723109829770025,0.010030388398600843
0.1354655,0.014201586379301311,0.005030913491136469,0.009812650114342517,0.005244942413859591,0.02053925434813545,0.02219695499655947,0.04165285145130372,0.010015830493472157
0.135931,0.014214777803289442,0.005033358215833346,0.009746683265580229,0.005182221359023821,0.02049455283464587,0.022210047662081442,0.04158022825231961,0.010002045149543311
0.1363966,0.014227970292839724,0.005036083823192755,0.009681231776788406,0.005119870119808519,0.020448576425865086,0.02222311324893375,0.04150525614100309,0.009989024198874855
0.1368621,0.014241167784182385,0.005039094175562536,0.00961629893630165,0.005057897002138944,0.020401338308885766,0.022236156034705794,0.04142795127666958,0.009976759228419377
0.1373276,0.014254374180407363,0.005042393058893175,0.009551887891227169,0.004996310200272779,0.02035285195604326,0.022249180140869237,0.041348330063769076,0.009965241584062713
0.1377931,0.014267593349959749,0.005045984181211431,0.009488001650438723,0.004935117795515348,0.020303131121544072,0.022262189529739834,0.04126640914592406,0.00995446237474357
0.1382586,0.014280829125108809,0.0050498711710983005,0.009424643087578155,0.004874327754963859,0.020252189837995538,0.02227518800153933,0.041182205400003516,0.009944412476650424
0.1387241,0.014294085300391534,0.005054057576171817,0.009361814944062076,0.004813947930281056,0.02020004241283722,0.022288179191560904,0.04109573593023518,0.00993508253749443
0.1391897,0.01430736563103161,0.005058546861575223,0.009299519832091308,0.004753986056498721,0.02014670342467456,0.022301166567441286,0.04100701806235822,0.009926462980857049
0.1396552,0.014320673831334564,0.005063342408471085,0.009237760237660684,0.004694449750851397,0.02009218771951528,0.022314153426542666,0.04091606933781818,0.009918544010611013
0.1401207,0.014334013573059832,0.005068447512541957,0.009176538523566875,0.004635346511640713,0.02003651040690913,0.0223271428934474,0.040822907508005775,0.00991131561541323
0.1405862,0.014347388483770351,0.0050738653824982625,0.009115856932411948,0.00457668371713064,0.01997968685599148,0.022340137917568163,0.04072755052854099,0.009904767573268079
0.1410517,0.014360802145160266,0.005079599138594052,0.009055717589600342,0.00451846862447405,0.019921732691431254,0.022353141270876314,0.040630016553603605,0.009898889456159621
0.1415172,0.01437425809136131,0.005085651811151345,0.00899612250632703,0.004460708368670848,0.019862663789283603,0.022366155545751144,0.04053032393031111,0.00989367063475108
0.1419828,0.014387759807228442,0.005092026339093768,0.008937073582554588,0.004403409961557981,0.019802496272747657,0.022379183152952467,0.04042849119314488,0.009889100283149954
0.1424483,0.014401310726605408,0.005098725568490206,0.008878572609976964,0.004346580290831571,0.019741246507829706,0.022392226319719034,0.040324537058424884,0.009885167383737013
0.1429138,0.014414914230570904,0.005105752251109199,0.008820621274967733,0.004290226119101395,0.019678931098912226,0.022405287087995086,0.04021848041883341,0.009881860732057364
0.1433793,0.014428573645666147,0.005113109042984816,0.00876322116151067,0.004234354082977935,0.019615566884229392,0.022418367312787395,0.04011034033798778,0.009879168941771701
0.1438448,0.014442292242104674,0.005120798502994751,0.008706373754110444,0.0041789706921921445,0.019551170931249938,0.022431468660654968,0.04000013604506196,0.009877080449665758
0.1443103,0.014456073231965183,0.005128823091451409,0.008650080440681314,0.004124082328748088,0.019485760531968474,0.022444592608333664,0.03988788692945678,0.009875583520715903
0.1447759,0.014469919767368257,0.005137185168706724,0.008594342515411657,0.004069695246108597,0.019419353198106552,0.022457740441497735,0.03977361253551814,0.009874666253208788
0.1452414,0.014483834938637738,0.005145886993771488,0.008539161181602247,0.004015815568414018,0.01935196665622486,0.022470913253660373,0.0396573325573025,0.009874316583912832
0.1457069,0.014497821772447479,0.005154930722949942,0.00848453755447617,0.003962449289734151,0.019283618842748224,0.02248411194521517,0.039539066833388765,0.009874522293299314
0.1461724,0.014511883229954123,0.005164318408490389,0.00843047266395833,0.003909602273353432,0.0192143278989054,0.02249733722262025,0.039418835341735375,0.009875271010810769
0.1466379,0.01452602220491658,0.0051740519972526015,0.0083769674574225,0.0038572802510893904,0.019144112165585918,0.022510589597726817,0.03929665819458143,0.009876550220174403
0.1471034,0.01454024152180296,0.005184133329392803,0.008324022802403892,0.003805488822644432,0.01907299017811644,0.022523869387253585,0.03917255563339034,0.009878347264758192
0.147569,0.014554543933885824,0.005194564137066992,0.008271639489275319,0.003754233454990945,0.01900098066095939,0.02253717671240849,0.03904654802383436,0.00988064935296736
0.1480345,0.014568932121326721,0.005205346043153377,0.008219818233884952,0.003703519481789737,0.018928102522336537,0.02255051149865879,0.03891865585081827,0.009883443563678955
0.1485,0.014583408689251327,0.005216480559994665,0.008168559680153823,0.00365335210284179,0.018854374848780307,0.022563873475650705,0.038788899713540374,0.00988671685171224
0.1489655,0.014597976165816555,0.005227969088160925,0.008117864402631202,0.0036037363835733256,0.018779816899615425,0.022577262177279466,0.03865730032058859,0.009890456053332618
0.149431,0.014612637000271229,0.005239812915233712,0.008067732909006068,0.0035546772545541508,0.018704448101373398,0.022590676941910585,0.038523878485069725,0.009894647891786863
0.1498966,0.014627393561011923,0.005252013214612159,0.008018165642572907,0.0035061795110492592,0.018628288042142185,0.022604116912753,0.038388655119769396,0.00989927898286737
0.1503621,0.014642248133635672,0.005264571044341699,0.007969162984650174,0.003458247812603653,0.018551356465853243,0.022617581038384727,0.03825165123234028,0.009904335840503266
0.1508276,0.014657202918991127,0.005277487345966149,0.0079207252569499,0.003410886682660347,0.018473673266508017,0.022631068073431473,0.03811288792051627,0.009909804882376123
0.1512931,0.014672260031229772,0.005290762943403893,0.007872852723897051,0.0033641005082115103,0.018395258482345876,0.022644576579398567,0.037972386367350106,0.009915672435558107
0.1517586,0.01468742149585873,0.005304398541848946,0.007825545594897374,0.0033178935394826943,0.018316132289955482,0.02265810492565661,0.037830167836472174,0.009921924742170412
0.1522241,0.0147026892477967,0.005318394726697699,0.007778804026552526,0.003272269889650093,0.01823631499833152,0.022671651290580977,0.03768625366736889,0.009928547965059785
0.1526897,0.014718065129434573,0.005332751962502204,0.007732628124821307,0.0032272335345907687,0.018155827042878832,0.022685213662845247,0.037540665270679306,0.009935528193491078
0.1531552,0.014733550888702292,0.005347470591950839,0.007687017947125796,0.003182788312665767,0.018074688979365885,0.022698789842868484,0.037393424123509746,0.009942851448853679
0.1536207,0.014749148177143496,0.005362550834877274,0.007641973504401184,0.0031389379245360454,0.017992921477829677,0.022712377444416124,0.03724455176476739,0.00995050369037973
0.1540862,0.014764858547999492,0.005377992787298645,0.0075974947630880535,0.0030956859330110898,0.017910545316434042,0.022725973896354133,0.037094069790514494,0.009958470820872013
0.1545517,0.014780683454304045,0.005393796420483871,0.0075535816470659,0.0030530357629301222,0.017827581375283473,0.022739576444555886,0.03694199984934597,0.009966738692439392
0.1550172,0.014796624246990393,0.005409961580053074,0.007510234039526684,0.0030109907010757433,0.01774405063019453,0.022753182153960994,0.03678836363779362,0.00997529311223765
0.1554828,0.014812682173011855,0.005426487985109063,0.007467451784787318,0.0029695538961198495,0.017659974146427,0.022766787910785267,0.03663318289576099,0.009984119848213579
0.1559483,0.014828858373477496,0.005443375227401875,0.007425234690040027,0.0029287283586016343,0.017575373072376985,0.022780390424880823,0.03647647940199317,0.009993204634850086
0.1564138,0.01484515388180432,0.005460622770527342,0.00738358252703965,0.002888516960937468,0.01749026863323407,0.02279398623224511,0.03631827496958589,0.010002533178910044
0.1568793,0.014861569621887595,0.00547822994916068,0.007342495033726986,0.0028489224374624272,0.01740468212460485,0.022807571697677612,0.03615859144153858,0.010012091165176588
0.1573448,0.014878106406291019,0.005496195968326107,0.007301971915787342,0.002809947384503227,0.017318634906105114,0.022821143017582778,0.03599745068635566,0.010021864262187468
0.1578103,0.014894764934458508,0.005514519902703437,0.00726201284814349,0.002771594260482306,0.01723214839492327,0.02283469622291759,0.03583487459370051,0.010031838127960997
0.1582759,0.01491154579094945,0.005533200695972654,0.007222617476382232,0.0027338653860527933,0.017145244059357734,0.022848227182282004,0.03567088507010623,0.01004199841571113
0.1587414,0.014928449443699228,0.00555223716019744,0.007183785418113862,0.0026967629442641,0.01705794341233129,0.022861731605150416,0.03550550403474729,0.010052330779549142
0.1592069,0.014945476242306872,0.005571627975248591,0.0071455162642638775,0.002660288980757869,0.01697026800488557,0.02287520504524211,0.035338753415275606,0.010062820880169326
0.1596724,0.014962626416351621,0.005591371688268278,0.007107809580296386,0.002624445403994008,0.01688223941965889,0.02288864290402846,0.0351706551437248,0.01007345439051613
0.1601379,0.014979900073740204,0.005611466713176102,0.007070664907368814,0.0025892339855065633,0.01679387926435067,0.022902040434374535,0.03500123115248588,0.01008421700143006
0.1606034,0.014997297199086622,0.0056319113302178226,0.00703408176341767,0.0025546563601891656,0.016705209165175747,0.022915392744312583,0.03483050337035797,0.010095094427269661
0.161069,0.015014817652126311,0.005652703685557685,0.00699805964417532,0.0025207140266098123,0.016616250760311927,0.02292869480094475,0.03465849371867751,0.010106072411506815
0.1615345,0.015032461166166631,0.005673841790915226,0.0069625980241179485,0.0024874083473547396,0.01652702569334435,0.022941941434472292,0.03448522410752948,0.01011713673229257
0.162,0.015050227346575814,0.005695323523247441,0.006927696357345168,0.0024547405494011617,0.016437555606710532,0.022955127342348423,0.034310716432044544,0.010128273207990608
0.1624655,0.015068115669312633,0.005717146624477132,0.006893354078391917,0.002422711724518649,0.016347862135150302,0.022968247093551875,0.03413499256878582,0.010139467702675447
0.162931,0.015086125479499302,0.005739308701268316,0.006859570602973471,0.0023913228296989315,0.016257966899165168,0.02298129513297815,0.03395807437222917,0.010150706131592458
0.1633966,0.01510425599004016,0.0057618072248494774,0.006826345328664463,0.0023605746876139157,0.016167891498491734,0.022994265785945454,0.033779983671340934,0.010161974466576709
0.1638621,0.015122506280288833,0.005784639530885485,0.00679367763551288,0.0023304679871017095,0.01607765750559393,0.023007153262812163,0.03360074226625677,0.010173258741427759
0.1643276,0.015140875294766617,0.005807802819398965,0.006761566886590015,0.0023010032836804414,0.015987286459178622,0.023019951663702562,0.03342037192506542,0.010184545057237563
0.1647931,0.015159361841934765,0.005831294154741895,0.006730012428477406,0.002272181000089679,0.015896799857739206,0.0230326549833374,0.03323889438070072,0.010195819587668676
0.1652586,0.015177964593023357,0.005855110465618192,0.006699013591691823,0.0022440014268592223,0.01580621915313159,0.02304525711596582,0.03305633132794519,0.010207068584180072
0.1657241,0.01519668208091935,0.005879248545158067,0.006668569691049417,0.002216464722905058,0.01571556574418686,0.023057751860394923,0.03287270442054817,0.010218278381197963
0.1661897,0.015215512699116251,0.005903705051044918,0.006638680025970143,0.002189570916152242,0.015624860970364784,0.023070132925113136,0.03268803526846136,0.010229435401229054
0.1666552,0.015234454700727856,0.00592847650569549,0.006609343880723633,0.0021633199041844594,0.01553412610545225,0.023082393933503358,0.03250234543519452,0.010240526159913749
0.1671207,0.015253506197568373,0.005953559296494048,0.006580560524617752,0.002137711454920004,0.015443382351310516,0.023094528429141795,0.032315656435293626,0.010251537271016901
0.1675862,0.015272665159301223,0.005978949676081279,0.006552329212131055,0.002112745207313904,0.01535265083167506,0.023106529881178155,0.032127989731943876,0.010262455451353757
0.1680517,0.015291929412658738,0.006004643762698636,0.00652464918299041,0.0020884206720858975,0.015261952586011714,0.023118391689792923,0.03193936673469957,0.010273267525648772
0.1685172,0.015311296640734986,0.006030637540588784,0.006497519662195123,0.00206473723247396,0.015171308563432604,0.023130107191727044,0.0317498087973427,0.0102839604313251
0.1689828,0.015330764382353751,0.00605692686045285,0.006470939859988896,0.0020416941450130716,0.015080739616675299,0.023141669665879425,0.03155933721587195,0.010294521223222547
0.1694483,0.0153503300315137,0.006083507439965065,0.006444908971781007,0.0020192905403389125,0.01499026649614845,0.023153072338967386,0.03136797322662349,0.01030493707824186
0.1699138,0.015369990836912617,0.0061103748643454355,0.006419426178018114,0.0019975254240161664,0.014899909844047047,0.023164308391245225,0.031175738004525035,0.010315195299913276
0.1703793,0.015389743901552485,0.006137524586991031,0.006394490644008151,0.0019763976773911176,0.014809690188540305,0.023175370962275746,0.03098265266148409,0.010325283322887265
0.1708448,0.015409586182427062,0.006164951930166476,0.00637010151969779,0.001955906058468222,0.014719627938035053,0.023186253156749725,0.03078873824491136,0.010335188717345447
0.1713103,0.015429514490293514,0.0061926520857541485,0.006346257939405007,0.0019360492028103376,0.014629743375517354,0.023196948050348127,0.030594015736380018,0.010344899193329732
0.1717759,0.015449525489529542,0.0062206201160646115,0.006322959021508291,0.0019168256244623005,0.014540056652975,0.023207448695641758,0.030398506050421267,0.010354402604987725
0.1722414,0.015469615698077378,0.006248850954707718,0.006300203868094098,0.0018982337168975355,0.014450587785903314,0.02321774812802312,0.030202230033456623,0.01036368695473248
0.1727069,0.015489781487475806,0.006277339407524788,0.006277991564564186,0.0018802717539873955,0.01436135664789663,0.023227839371665032,0.03000520846286696,0.010372740397314714
0.1731724,0.01551001908298134,0.006306080153582237,0.006256321179204464,0.001862937890992915,0.014272382965327639,0.023237715445500712,0.02980746204619821,0.010381551243805645
0.1736379,0.015530324563779525,0.006335067746226924,0.006235191762717068,0.0018462301655786683,0.014183686312116747,0.02324736936922,0.029609011420503522,0.010390107965488584
0.1741034,0.015550693863287175,0.006364296614203517,0.006214602347717354,0.001830146498848421,0.014095286104593326,0.02325679416927648,0.02940987715182123,0.010398399197657523
0.174569,0.015571122769546341,0.006393761062834072,0.006194551948197555,0.0018146846964022525,0.01400720159645073,0.023265982884900352,0.029210079734788008,0.010406413743320879
0.1750345,0.015591606925710514,0.0064234552752599865,0.006175039558958864,0.0017998424494148233,0.013919451873796772,0.023274928574112192,0.02900963959238624,0.01041414057680866
0.1755,0.015612141830623613,0.006453373313746452,0.006156064155013729,0.0017856173357344522,0.013832055850301245,0.023283624319732903,0.028808577075824453,0.010421568847281331
0.1759655,0.015632722839492037,0.006483509121049454,0.006137624690960134,0.001772006821002648,0.013745032262441942,0.02329206323538523,0.028606912464549314,0.010428687882138658
0.176431,0.01565334516465003,0.006513856521845368,0.006119720100329694,0.001759008259793734,0.013658399664850475,0.023300238471482312,0.02840466596638768,0.010435487190326855
0.1768966,0.015674003876418437,0.006544409224223123,0.006102349294911352,0.001746618896774192,0.013572176425759145,0.023308143221198587,0.02820185771781672,0.010441956465542385
0.1773621,0.015694693904056797,0.006575160821238851,0.006085511164052519,0.0017348358678813446,0.013486380722549905,0.02331577072641842,0.027998507784359975,0.010448085589330873
0.1778276,0.015715410036808576,0.006606104792532934,0.006069204573939431,0.00172365620152099,0.01340103053740639,0.023323114283657524,0.027794636161107014,0.010453864634079693
0.1782931,0.015736146925039232,0.006637234506009259,0.006053428366858556,0.001713076819783594,0.013316143653069873,0.02333016724995231,0.027590262773354007,0.010459283865903009
0.1787586,0.015756899081466647,0.006668543219576484,0.006038181360440815,0.001703094539678656,0.013231737648699874,0.023336923048712363,0.02738540747736241,0.010464333747418253
0.1792241,0.015777660882483377,0.006700024082951041,0.006023462346890387,0.0016937060743868586,0.01314782989584006,0.023343375175531242,0.027180090061232624,0.010469004940413272
0.1796897,0.015798426569570014,0.006731670139521566,0.0060092700921998395,0.0016849080345296198,0.013064437554489907,0.023349517203950985,0.026974330245889414,0.010473288308403555
0.1801552,0.01581919025079886,0.006763474328274389,0.0059956033353533,0.0016766969294556694,0.012981577569282558,0.023355342791175716,0.02676814768617569,0.010477174919079141
0.1806207,0.015839945902427086,0.006795429485779676,0.005982460787519336,0.0016690691685442838,0.012899266665769156,0.023360845683729974,0.026561561972050837,0.010480656046640975
0.1810862,0.015860687370578424,0.006827528348237748,0.005969841131235177,0.001662021062524814,0.012817521346809836,0.02336601972305743,0.026354592629889873,0.01048372317402664
0.1815517,0.01588140837301257,0.006859763553585097,0.005957743019583873,0.0016555488248121521,0.012736357889071416,0.023370858851055627,0.02614725912387936,0.010486367995025453
0.1820172,0.015902102500981275,0.006892127643659554,0.00594616507536593,0.0016496485728577884,0.012655792339631773,0.023375357115542467,0.02593958085750601,0.010488582416283063
0.1824828,0.015922763221170345,0.006924613066424058,0.005935105890266915,0.0016443163295161137,0.012575840512690747,0.023379508675650248,0.02573157717513362,0.010490358559195726
0.1829483,0.015943383877726605,0.006957212178248438,0.005924564024022477,0.0016395480244256275,0.012496517986387316,0.023383307807142845,0.02552326736366394,0.010491688761694467
0.1834138,0.015963957694369056,0.006989917246248581,0.005914538003582171,0.0016353394954047125,0.012417840099722658,0.023386748907651897,0.0253146706542768,0.010492565579919457
0.1838793,0.015984477776583465,0.007022720450682341,0.005905026322273471,0.001631686489861634,0.012339821949588617,0.02338982650182758,0.025105806224244874,0.010492981789784951
0.1843448,0.016004937113899748,0.007055613887401463,0.0058960274389672634,0.0016285846662184196,0.012262478387900979,0.023392535246399723,0.02489669319881822,0.010492930388435209
0.1848103,0.016025328582251572,0.0070885895703587795,0.0058875397772461206,0.0016260295953482663,0.01218582401883688,0.023394869935144943,0.02468735065317358,0.010492404595591913
0.1852759,0.016045644946417664,0.007121639434169853,0.0058795617245766,0.001624016762026108,0.012109873196175493,0.023396825503755634,0.024477797614423414,0.010491397854793654
0.1857414,0.01606587886254445,0.007154755336728257,0.0058720916314868015,0.0016225415663919784,0.01203464002074118,0.023398397034606836,0.02426805306367941,0.01048990383452814
0.1862069,0.016086022880749572,0.007187929061873603,0.005865127810750347,0.0016215993254267802,0.011960138337948043,0.02339957976141701,0.02405813593816523,0.010487916429257805
0.1866724,0.016106069447805765,0.007221152322111407,0.005858668536577967,0.0016211852744400803,0.011886381735444835,0.023400369073798992,0.023848065133372957,0.010485429760339567
0.1871379,0.01612601090990467,0.007254416761383843,0.005852712043817784,0.0016212945685695364,0.011813383540859071,0.023400760521697424,0.02363785950525777,0.010482438176839484
0.1876034,0.016145839515499954,0.007287713957890409,0.00584725652716543,0.001621922284291565,0.011741156819639097,0.023400749819708928,0.023427537872465223,0.010478936256243103
0.188069,0.016165547418229252,0.007321035426957494,0.005842300140385038,0.0016230634209428703,0.01166971437299284,0.023400332851281243,0.023217119018585267,0.010474918805062296
0.1885345,0.01618512667991426,0.007354372623955816,0.005837840995542152,0.001624712902252459,0.01159906873592183,0.02339950567278751,0.023006621694427135,0.010470380859339445
0.189,0.016204569273638385,0.0073877169472646945,0.005833877162249544,0.0016268655778837746,0.011529232175349072,0.02339826451747168,0.02279606462030917,0.010465317685049777
0.1894655,0.016223867086901184,0.007421059741282069,0.005830406666926925,0.0016295162249865948,0.011460216688339303,0.023396605799260974,0.0225854664883575,0.010459724778402745
0.189931,0.016243011924848866,0.007454392299479181,0.005827427492075474,0.0016326595497583628,0.011392034000410112,0.023394526116441407,0.02237484596480722,0.01045359786604331
0.1903966,0.016261995513579895,0.007487705867498775,0.005824937575568072,0.0016362901890146224,0.011324695563932506,0.023392022255192595,0.022164221692299868,0.010446932905154005
0.1908621,0.016280809503524653,0.007520991646295674,0.005822934809956123,0.0016404027117682596,0.011258212556619483,0.02338909119297857,0.02195361229217077,0.010439726083458644
0.1913276,0.016299445472898053,0.007554240795318517,0.00582141704179377,0.001644991620817255,0.011192595880101268,0.023385730101791697,0.021743036366719832,0.01043197381912859
0.1917931,0.01631789493122383,0.007587444435731455,0.005820382070980288,0.001650051354340677,0.011127856158585973,0.023381936351247218,0.021532512501459263,0.010423672760592492
0.1922586,0.01633614932292922,0.007620593653674549,0.005819827650121405,0.0016555762875026597,0.011064003737604607,0.023377707511526374,0.021322059267331748,0.010414819786250468
0.1927241,0.016354200031008577,0.007653679503561549,0.005819751483910233,0.0016615607340641147,0.011001048682839451,0.02337304135616611,0.021111695222892447,0.010405412004093716
0.1931897,0.016372038380754458,0.007686693011413756,0.00582015122852849,0.0016679989480019525,0.010939000779035079,0.023367935864693348,0.020901438916448196,0.010395446751230568
0.1936552,0.0163896556435546,0.00771962517822857,0.005821024491068608,0.001674885125135579,0.010877869528991365,0.023362389225101837,0.020691308888147207,0.010384921593320074
0.1941207,0.016407043040753102,0.007752466983381351,0.005822368828977303,0.001682213404760447,0.010817664152637955,0.02335639983616948,0.02048132367201256,0.01037383432391415
0.1945862,0.01642419174757406,0.007785209388059164,0.005824181749521149,0.001689977871288445,0.010758393586189727,0.023349966309614313,0.020271501797912775,0.010362182963709422
0.1950517,0.01644109289710589,0.007817843338725004,0.0058264607092746385,0.0016981725558948993,0.01070006648138292,0.02334308747208774,0.0200618617934628,0.010349965759709914
0.1955172,0.01645773758434439,0.007850359770611014,0.005829203113631169,0.0017067914381719573,0.010642691204791695,0.023335762367004492,0.019852422185848817,0.010337181184301714
0.1959828,0.01647411687029265,0.0078827496112392,0.0058324063163373695,0.0017158284477881132,0.010586275837224952,0.023327990256209602,0.019643201503570382,0.01032382793424083
0.1964483,0.016490221786115873,0.007915003783968115,0.005836067619051133,0.0017252774661536277,0.01053082817320333,0.023319770621483445,0.019434218278093388,0.010309904929555478
0.1969138,0.01650604333734902,0.007947113211563895,0.005840184270923692,0.0017351323280915822,0.010476355720516231,0.02331110316588657,0.019225491045407356,0.010295411312364049
0.1973793,0.016521572508155294,0.007979068819794,0.005844753468206036,0.0017453868235143032,0.010422865699858744,0.02330198781494647,0.01901703834748057,0.010280346445610069
0.1978448,0.016536800265633207,0.008010861541041971,0.005849772353879926,0.001756034699104889,0.010370365044548233,0.023292424717689098,0.01880887873360685,0.010264709911715486
0.1983103,0.01655171756417009,0.00804248231794148,0.005855238017313757,0.0017670696600035807,0.010318860400320349,0.023282414247518493,0.01860103076163825,0.010248501511153682
0.1987759,0.016566315349839694,0.008073922107027943,0.00586114749394345,0.0017784853714987107,0.010268358125204121,0.02327195700294839,0.01839351299909861,0.010231721260943646
0.1992414,0.016580584564841454,0.00810517188240597,0.005867497764978591,0.0017902754607219808,0.010218864289475698,0.023261053808189935,0.01818634402417362,0.010214369393066807
0.1997069,0.016594516151978912,0.008136222639430993,0.005874285757133943,0.001802433518347824,0.010170384675690328,0.02324970571359973,0.017979542426573836,0.01019644635280806
0.2001724,0.01660810105917475,0.00816706539840339,0.005881508342386495,0.0018149531002966237,0.010122924778792097,0.0232379139959925,0.01777312680826748,0.010177952797022608
0.2006379,0.01662133024401983,0.0081976912082735,0.005889162337758158,0.0018278277294415696,0.010076489806300921,0.02322568015882253,0.017567115784080493,0.010158889592330276
0.2011034,0.016634194678353593,0.008228091150355934,0.005897244505124213,0.0018410508973189532,0.010031084678576264,0.023213005932237782,0.01736152798216163,0.010139257813239039
0.201569,0.016646685352873048,0.008258256342051639,0.0059057515510475824,0.0018546160658417066,0.009986714029157006,0.02319989327301055,0.01715638204431123,0.010119058740199588
0.2020345,0.01665879328176745,0.008288177940576168,0.005914680126639049,0.0018685166690160125,0.009943382205176817,0.02318634436434831,0.016951696626172862,0.010098293857592784
0.2025,0.016670509507375832,0.008317847146692637,0.005924026827443453,0.0018827461146608223,0.009901093267854336,0.02317236161558828,0.01674749039728806,0.010076964851651998
0.2029655,0.01668182510486431,0.008347255208447778,0.005933788193351926,0.0018972977861301291,0.009859850993057435,0.023157947661779085,0.016543782041015156,0.010055073608322354
0.203431,0.016692731186920107,0.008376393424909477,0.005943960708540231,0.0019121650440378506,0.009819658871940785,0.023143105363152828,0.01634059025431423,0.010032622211058958
0.2038966,0.01670321890845917,0.00840525314990413,0.005954540801433217,0.001927341227985184,0.009780520111655902,0.023127837804490736,0.01613793374740086,0.010009612938566205
0.2043621,0.016713279471344364,0.008433825795752067,0.00596552484469545,0.0019428196582902937,0.00974243763613287,0.023112148294385543,0.01593583124327177,0.00998604826248026
0.2048276,0.016722904129111364,0.008462102836999255,0.005976909155248011,0.001958593637720198,0.009705414086932884,0.023096040364403672,0.01573430147710571,0.009961930844996735
0.2052931,0.0167320841916995,0.008490075814143409,0.005988689994311493,0.0019746564532247103,0.009669451824170715,0.023079517768150305,0.015533363195542979,0.009937263536445485
0.2057586,0.016740811030184998,0.008517736337352567,0.006000863567475158,0.0019910013776722776,0.009634552927506203,0.023062584480240293,0.015333035155847028,0.009912049372814454
0.2062241,0.016749076081514096,0.008545076090174143,0.006013426024792281,0.002007621671587562,0.009600719197203799,0.023045244695177748,0.015133336124951689,0.009886291573224333
0.2066897,0.01675687085323369,0.008572086833232342,0.006026373460901591,0.0020245105848905862,0.009567952155259218,0.023027502826146906,0.014934284878397368,0.009859993537355808
0.2071552,0.01676418692821708,0.008598760407911908,0.0060397019151747855,0.0020416613586372537,0.009536253046592174,0.02300936350371682,0.014735900199159681,0.00983315884283109
0.2076207,0.01677101596938258,0.008625088740026035,0.006053407371890022,0.0020590672267610413,0.00950562284030419,0.02299083157446223,0.01453820087637396,0.009805791242551414
0.2080862,0.01677734972440284,0.008651063843466318,0.006067485760431281,0.0020767214178156615,0.009476062231000408,0.022971912099502802,0.014341205703958998,0.009777894661992213
0.2085517,0.016783180030402984,0.008676677823832588,0.006081932955513447,0.002094617156718483,0.009447571640174336,0.022952610352962775,0.0141449334791434,0.009749473196457638
0.2090172,0.01678849881864568,0.008701922882040502,0.006096744777432935,0.0021127476664944923,0.00942015121765447,0.02293293182035311,0.013949403000897859,0.009720531108296175
0.2094828,0.016793298119201265,0.008726791317904768,0.006111916992343656,0.002131106170020584,0.009393800843111637,0.02291288219687797,0.013754633068276644,0.00969107282407916
0.2099483,0.016797570065601057,0.008751275533695892,0.0061274453125580355,0.0021496858917699653,0.009368520127625957,0.02289246738566739,0.013560642478671597,0.009661102931744034
0.2104138,0.01680130689947198,0.00877536803766829,0.0061433253968727905,0.0021684800595564635,0.009344308415312301,0.02287169349593771,0.013367450025981756,0.009630626177704259
0.2108793,0.016804500975150526,0.008799061447557632,0.006159552850919102,0.0021874819062785342,0.009321164785003062,0.022850566841081377,0.013175074498701814,0.009599647463927802
0.2113448,0.01680714476427399,0.00882234849404527,0.006176123227536767,0.002206684671662757,0.00929908805198708,0.022829093936687434,0.012983534677932472,0.009568171844986189
0.2118103,0.016809230860346927,0.008845222024187568,0.006193032027171884,0.0022260816040066177,0.009278076769803537,0.022807281498493908,0.01279284933531574,0.009536204525076046
0.2122759,0.01681075198328053,0.008867675004807899,0.0062102746982975595,0.002245665961920375,0.009258129232089643,0.02278513644027319,0.012603037230898173,0.009503750855015099
0.2127414,0.016811700983902708,0.008889700525849104,0.0062278466378570966,0.0022654310160678025,0.009239243474480888,0.022762665871651346,0.012414117110924897,0.009470816329214513
0.2132069,0.016812070848436368,0.00891129180368409,0.006245743191729114,0.002285370050905596,0.009221417276562631,0.022739877095862237,0.012226107705567313,0.00943740658262944
0.2136724,0.01681185470294339,0.008932442184382244,0.006263959655213971,0.002305476366421227,0.009204648163871808,0.022716777607437233,0.012039027726587234,0.009403527387689532
0.2141379,0.016811045817731622,0.008953145146929235,0.006282491273540888,0.0023257432798690168,0.009188933409947482,0.022693375089831196,0.01185289586494017,0.009369184651211207
0.2146034,0.016809637611722213,0.008973394306397745,0.006301333242395088,0.0023461641275041834,0.009174270038428979,0.02266967741298552,0.011667730788320438,0.009334384411293362
0.215069,0.0168076236567744,0.008993183417066588,0.006320480708464293,0.0023667322663146065,0.009160654825200289,0.022645692630828915,0.011483551138650617,0.0092991328341982
0.2155345,0.016804997681964917,0.009012506375485587,0.006339928770003886,0.002387441075750031,0.009148084300579416,0.022621428978716808,0.011300375529517934,0.00926343621121884
0.216,0.0168017535778192,0.009031357223483543,0.006359672477419993,0.0024082839594484263,0.009136554751551318,0.022596894870810017,0.011118222543559984,0.0092273009555353
0.2164655,0.01679788540049142,0.009049730151116563,0.006379706833869778,0.002429254346959201,0.009126062224043064,0.022572098897393516,0.010937110729802212,0.009190733599060483
0.216931,0.01679338737589053,0.009067619499553937,0.006400026795878205,0.002450345695462971,0.009116602525239853,0.02254704982213593,0.01075705860094948,0.009153740789277668
0.2173966,0.01678825390374951,0.009085019763898717,0.006420627273970509,0.002471551491487567,0.009108171225940547,0.022521756579290397,0.010578084630634034,0.00911632928607102
0.2178621,0.01678247956163511,0.009101925595940075,0.0064415031333196,0.002492865252619978,0.009100763662951438,0.02249622827083712,0.01040020725062209,0.009078505958550576
0.2183276,0.016776059108895777,0.009118331806834487,0.00646264919440761,0.002514280529213924,0.009094374941516974,0.022470474163567965,0.010223444847981223,0.009040277781873123
0.2187931,0.016768987490545437,0.009134233369712643,0.006484060233700816,0.00253579090609276,0.009088999937786293,0.022444503686113303,0.010047815762210716,0.009001651834060384
0.2192586,0.016761259841081157,0.00914962542220898,0.006505730984337109,0.002557390004247418,0.009084633301314425,0.022418326425910868,0.009873338282336962,0.008962635292815898
0.2197241,0.01675287148823277,0.009164503268910613,0.006527656136825203,0.0025790714825291027,0.009081269457597073,0.022391952126116586,0.009700030643975966,0.00892323543234198
0.2201897,0.016743817956642638,0.009178862383722411,0.006549830339754791,0.0026008290393364623,0.0090789026106379,0.02236539068245687,0.009527911026365002,0.008883459620158131
0.2206552,0.0167340949714737,0.009192698412144866,0.006572248200516776,0.002622656414296971,0.009077526745547218,0.02233865214002194,0.00935699754936537,0.008843315313922281
0.2211207,0.016723698461943978,0.009206007173461409,0.006594904286032769,0.0026445473899422587,0.009077135631171008,0.022311746689999384,0.009187308270438217,0.008802810058256094
0.2215862,0.016712624564785578,0.009218784662831802,0.0066177931234929835,0.002666495793377143,0.009077722822749254,0.02228468466634736,0.009018861181595344,0.008761951481575636
0.2220517,0.01670086962762636,0.009231027053288293,0.006640909201101701,0.002688495497942106,0.009079281664602774,0.022257476542406555,0.008851674206326885,0.008720747292928557
0.2225172,0.016688430212292365,0.009242730697631318,0.006664246968829433,0.002710540424868963,0.009081805292847795,0.02223013292745027,0.008685765196507664,0.008679205278838927
0.2229828,0.016675303098029264,0.009253892130221653,0.006687800839170916,0.0027326245449294825,0.009085286638137713,0.02220266456317175,0.008521151929284104,0.008637333300160758
0.2234483,0.016661485284641286,0.009264508068666057,0.0067115651879080885,0.002754741880076684,0.009089718428431585,0.02217508232010809,0.008357852103943403,0.00859513928894126
0.2239138,0.016646973995546124,0.009274575415393711,0.006735534354877183,0.002776886505078544,0.00909509319178896,0.022147397193999826,0.008195883338766755,0.008552631245294776
0.2243793,0.01663176668074453,0.009284091259120933,0.006759702644739071,0.0027990525491438205,0.009101403259190644,0.02211962030208547,0.008035263167868284,0.008509817234288336
0.2248448,0.01661586101970329,0.009293052876201913,0.006784064327752003,0.0028212341975396783,0.009108640767385053,0.022091762879330394,0.007876009038021358,0.008466705382839734
0.2253103,0.0165992549241503,0.009301457731863432,0.0068086136405458835,0.002843425693200808,0.009116797661759766,0.022063836274589358,0.007718138305473869,0.008423303876629018
0.2257759,0.016581946540780414,0.009309303481321663,0.006833344786897269,0.0028656213383296907,0.00912586569923804,0.022035851946702247,0.007561668232754035,0.008379620957024282
0.2262414,0.016563934253870732,0.009316587970779345,0.006858251938504238,0.002887815495987662,0.009135836451200061,0.022007821460522648,0.007406615985468246,0.00833566491802261
0.2267069,0.01654521668780377,0.009323309238301696,0.006883329235760364,0.0029100025916764453,0.00914670130642889,0.021979756482879056,0.0072529986290923625,0.008291444103207042
0.2271724,0.01652579270949703,0.009329465514569417,0.006908570788526967,0.002932177114909805,0.009158451474081038,0.021951668778468603,0.007100833125757871,0.008246966902720396
0.2276379,0.01650566143073753,0.009335055223507208,0.006933970676902921,0.0029543336207749956,0.009171077986681684,0.021923570205683234,0.006950136331034205,0.008202241750256753
0.2281034,0.016484822210419733,0.009340076982786138,0.006959522951991287,0.002976466731483708,0.009184571703144441,0.021895472712368205,0.006800924990708483,0.008157277120071384
0.228569,0.016463274656685505,0.009344529604198282,0.006985221636662068,0.002998571137912221,0.009198923311815637,0.021867388331512652,0.006653215737563876,0.008112081524009844
0.2290345,0.016441018628964625,0.009348412093902025,0.007011060726310475,0.0030206416011305053,0.009214123333542927,0.021839329176871758,0.006507025088157755,0.00806666350855689
0.2295,0.01641805423991443,0.009351723652536652,0.007037034189610083,0.0030426729539200573,0.00923016212476808,0.021811307438519993,0.006362369439600735,0.008021031651905828
0.2299655,0.01639438185725706,0.009354463675205005,0.007063135969260332,0.0030646601022802705,0.009247029880643756,0.021783335378334833,0.006219265066337686,0.00797519456104884
0.230431,0.016370002105512822,0.009356631751323341,0.007089359982727851,0.0030865980269231836,0.009264716638174044,0.021755425325410343,0.006077728116931776,0.007929160868888795
0.2308966,0.01634491586762801,0.009358227664337875,0.0071157001229811235,0.0031084817847564557,0.009283212279378512,0.02172758967140013,0.005937774610852525,0.007882939231373001
0.2313621,0.01631912428649544,0.009359251391307935,0.007142150259217982,0.003130306510354424,0.009302506534479503,0.021699840865789365,0.005799420435268901,0.007836538324649341
0.2318276,0.01629262876636593,0.009359703102356242,0.007168704237585478,0.003152067417417102,0.009322588985112333,0.021672191411095883,0.005662681341848422,0.007789966842245223
0.2322931,0.01626543097414891,0.009359583159987327,0.007195355881891665,0.003173759800216961,0.009343449067558015,0.021644653858000622,0.00552757294356321,0.007743233492269809
0.2327586,0.016237532840600363,0.009358892118275647,0.007222098994308901,0.0031953790350333603,0.009365076075998045,0.02161724080040829,0.005394110711503968,0.007696346994639982
0.2332241,0.016208936561396343,0.009357630721925443,0.00724892735606834,0.0032169205815744625,0.009387459165790753,0.021589964870439484,0.005262309971702806,0.007649316078330512
0.2336897,0.0161796445980905,0.009355799905204751,0.007275834728145331,0.00323837998438646,0.00941058735676865,0.02156283873335597,0.0051321859019658285,0.007602149478648918
0.2341552,0.01614965967895399,0.009353400790756179,0.007302814851935486,0.003259752874249933,0.009434449536556151,0.02153587508242127,0.00500375352871641,0.007554855934535516
0.2346207,0.016118984799696465,0.009350434688287225,0.0073298614499212305,0.003281034969563148,0.00945903446390702,0.021509086633698746,0.004877027723850039,0.007507444185889139
0.2350862,0.01608762322406692,0.009346903093142933,0.007356968226328688,0.003302222077712074,0.009484330772060802,0.021482486120789443,0.004752023201601637,0.007459922970918974
0.2355517,0.016055578484333352,0.009342807684763733,0.00738412886777483,0.003323310096426908,0.009510326972117483,0.021456086289512177,0.004628754515426207,0.007412301023522954
0.2360172,0.01602285438164035,0.009338150325031387,0.00741133704390484,0.0033442950151248547,0.009537011456429595,0.021429899892528435,0.004507236054893675,0.007364587070693105
0.2364828,0.015989454986243927,0.00933293305650597,0.007438586408019695,0.0033651729162389155,0.009564372502010914,0.021403939683914935,0.004387482042598762,0.00731678982994818
0.2369483,0.01595538463762315,0.009327158100556919,0.00746587059769396,0.0033859399765324358,0.009592398273960896,0.021378218413687203,0.004269506531086697,0.007268918006793969
0.2374138,0.015920647944468232,0.00932082785539119,0.007493183235383889,0.0034065924683991376,0.009621076828903969,0.021352748822277837,0.0041533233997955695,0.007220980292211624
0.2378793,0.015885249784544905,0.009313944893981624,0.00752051792902584,0.0034271267611483895,0.00965039611844275,0.02132754363497371,0.004038946352016077,0.007172985360174402
0.2383448,0.01584919530443501,0.009306511961898608,0.007547868272625042,0.0034475393222754666,0.009680343992624274,0.021302615556316584,0.003926388911869409,0.00712494186519327
0.2388103,0.0158124899191532,0.009298531975048164,0.007575227846834741,0.0034678267187165687,0.00971090820341828,0.0212779772644718,0.0038156644213039686,0.007076858439891866
0.2392759,0.015775139311639663,0.009290008017319629,0.007602590219525694,0.003487985618088378,0.009742076408206608,0.021253641405569748,0.0037067860371115978,0.007028743692611358
0.2397414,0.01573714943212864,0.009280943338146067,0.00762994894634605,0.003508012789911943,0.009773836173282749,0.02122962058802486,0.003599766727963951,0.00698060620504579
0.2402069,0.015698526497392683,0.009271341349980628,0.0076572975712717135,0.003527905106820688,0.009806174977360579,0.02120592737683671,0.0034946192714696246,0.006932454529908541
0.2406724,0.0156592769898626,0.009261205625692038,0.007684629627147429,0.0035476595457523174,0.009839080215091356,0.021182574287877776,0.0033913562512526132,0.006884297188630527
0.2411379,0.015619407656623271,0.009250539895882459,0.007711938636219036,0.0035672731891243986,0.009872539200587982,0.021159573782172262,0.003289990054052669,0.006836142669090806
0.2416034,0.015578925508285726,0.009239348046130979,0.007739218110657468,0.0035867432259933797,0.009906539170955622,0.02113693826017039,0.0031905328668480797,0.006787999423380213
0.242069,0.01553783781773622,0.009227634114165969,0.0077664615530752676,0.0036060669531968103,0.009941067289827755,0.02111468005602249,0.0030929966740013922,0.0067398758655986485
0.2425345,0.015496152118763248,0.009215402286969562,0.007793662457036471,0.0036252417764785394,0.009976110650906709,0.021092811431857296,0.0029973932544285946,0.0066917803696866065
0.243,0.015453876204563854,0.009202656897817529,0.007820814307560847,0.0036442652115966858,0.010011656281507799,0.02107134457206901,0.002903734178792221,0.006643721267291506
0.2434655,0.015411018126130707,0.009189402423257791,0.007847910581623515,0.003663134885414203,0.010047691146106173,0.02105029157761761,0.0028120308067188554,0.006595706845669327
0.243931,0.015367586190521592,0.009175643480030823,0.007874944748651037,0.003681848536971857,0.010084202149885474,0.021029664460347135,0.002722294284041502,0.006547745345622048
0.2443966,0.015323588959013049,0.00916138482193521,0.007901910271015094,0.0037004040185434346,0.010121176142287453,0.02100947513732661,0.0026345355400672456,0.0064998449594713395
0.2448621,0.015279035245139806,0.009146631336641599,0.00792880060452482,0.003718799296673011,0.010158599920561626,0.020989735425218266,0.00254876528487064,0.006452013829068916
0.2453276,0.015233934112621734,0.009131388042458291,0.007955609198918958,0.0037370324531940577,0.010196460233314103,0.020970457034677634,0.0024649940066132203,0.0064042600438439
0.2457931,0.015188294873179879,0.009115660085051724,0.007982329498358934,0.003755101686230181,0.010234743784054742,0.020951651564790084,0.0023832319688895363,0.0063565916388875245
0.2462586,0.015142127084243206,0.009099452734125007,0.008008954941924015,0.0037730053111772284,0.01027343723474177,0.02093333049754824,0.0023034892081000634,0.0063090165930754435
0.2467241,0.015095440546547685,0.009082771380057688,0.008035478964109706,0.0037907417616664957,0.010312527209323066,0.020915505192374687,0.002225775530851348,0.006261542827227861
0.2471897,0.015048245301629268,0.009065621530509866,0.00806189499533056,0.0038083095905087293,0.010352000297273324,0.02089818688069428,0.0021501005113837156,0.00621417820230765
0.2476552,0.015000551629212381,0.009048008806993716,0.008088196462428577,0.0038257074706186185,0.010391843057126373,0.020881386660560275,0.002076473489026858,0.006166930517656637
0.2481207,0.014952370044495452,0.009029938941415464,0.008114376789188372,0.0038429341959194596,0.01043204202000201,0.020865115491338456,0.002004903565683599,0.006119807509270206
0.2485862,0.014903711295335029,0.009011417772590779,0.008140429396860311,0.003859988682227681,0.010472583693126761,0.020849384188453245,0.0019353996033421436,0.006072816848110357
0.2490517,0.014854586359330004,0.008992451242736515,0.008166347704692795,0.003876869968116921,0.010513454563348066,0.020834203418199686,0.0018679702216170997,0.006025966138457376
0.2495172,0.014805006440807615,0.00897304539394171,0.008192125130474888,0.003893577215761366,0.010554641100641289,0.020819583692625102,0.0018026237953195647,0.005979262916300262
0.2499828,0.014754982967712877,0.008953206364620677,0.008217755091090493,0.003910109711758061,0.01059612976160901,0.020805535364484127,0.0017393684520565734,0.005932714647766072
0.2504483,0.014704527588403333,0.008932940385951011,0.008243231003085272,0.003926466867927933,0.010637906992971959,0.020792068622270763,0.0016782120698602071,0.005886328727588332
0.2509138,0.014653652168350973,0.008912253778299283,0.008268546283247493,0.0039426482220952415,0.010679959235050891,0.020779193485330996,0.0016191622748466686,0.005840112477614671
0.2513793,0.014602368786753186,0.008891152947637157,0.008293694349204003,0.003958653438845179,0.010722272925238611,0.020766919799059425,0.001562226438905639,0.00579407314535385
0.2518448,0.014550689733054588,0.008869644381950613,0.008318668620032513,0.003974482310259325,0.01076483450146136,0.020755257230183406,0.0015074116774202399,0.00574821790256232
0.2523103,0.014498627503381501,0.008847734647644915,0.008343462516891382,0.003990134756628621,0.010807630405628614,0.02074421526213808,0.0014547248470179342,0.00570255384387045
0.2527759,0.014446194796890747,0.00882543038594794,0.008368069463668075,0.004005610827143532,0.010850647087070323,0.020733803190535614,0.0014041725433527105,0.005657087985448556
0.2532414,0.014393404512034363,0.008802738309314403,0.008392482887647436,0.004020910700561003,0.010893871005960466,0.02072403011873196,0.0013557610989189035,0.005611827263712806
0.2537069,0.014340269742741841,0.008779665197833478,0.00841669622020093,0.004036034685847824,0.01093728863672583,0.020714904953494154,0.0013094965808970141,0.005566778534071082
0.2541724,0.014286803774521463,0.0087562178956423,0.008440702897498034,0.004050983222799985,0.01098088647143871,0.020706436400771144,0.0012653847890318967,0.005521948569708834
0.2546379,0.014233020080482377,0.008732403307347734,0.008464496361240836,0.004065756882637584,0.011024651023192217,0.020698632961570953,0.0012234312535436863,0.005477344060414938
0.2551034,0.014178932317279128,0.008708228394458777,0.008488070059422969,0.004080356368574801,0.01106856882945684,0.02069150292794691,0.001183641233071844,0.005432971611447551
0.255569,0.014124554320980556,0.008683700171831907,0.008511417447113936,0.004094782516364473,0.011112626455416792,0.020685054379095482,0.0011460197126526924,0.005388837742439946
0.2560345,0.014069900102865022,0.008658825704131587,0.00853453198726989,0.004109036294816715,0.011156810497284824,0.020679295177568096,0.001110571401730817,0.005344948886346277
0.2565,0.014014983845144081,0.008633612102308093,0.008557407151571836,0.0041231188062910516,0.011201107585594169,0.020674232965599275,0.0010773007322047016,0.005301311388427304
0.2569655,0.01395981989661683,0.008608066520094798,0.008580036421292245,0.004137031287161477,0.011245504388466478,0.02066987516155312,0.0010462118565069537,0.005257931505276036
0.257431,0.013904422768257117,0.008582196150526892,0.008602413288191021,0.004150775108253869,0.011289987614854663,0.020666228956490135,0.0010173086457194826,0.005214815403883307
0.2578966,0.013848807128735855,0.00855600822248356,0.008624531255441669,0.004164351775255165,0.011334544017759612,0.02066330131085615,0.0009905946877239772,0.005171969160743242
0.2583621,0.013792987799880533,0.008529509997255517,0.008646383838588519,0.0041777629290937176,0.011379160397419747,0.020661098951294934,0.00096607328538804,0.005129398760998592
0.2588276,0.013736979752074099,0.008502708765139711,0.008667964566535765,0.004191010346290227,0.01142382360447247,0.020659628367586027,0.0009437474547873336,0.005087110097625864
0.2592931,0.013680798099595258,0.008475611842063016,0.008689266982569027,0.004204095939278649,0.011468520543086473,0.020658895809708963,0.0009236199234641026,0.005045108970660133
0.2597586,0.01362445809590236,0.008448226566236602,0.008710284645410063,0.004217021756696479,0.01151323817406395,0.02065890728503516,0.0009056931287224455,0.005003401086459411
0.2602241,0.013567975128863081,0.008420560294842661,0.008731011130305218,0.00422978998364381,0.011557963517911624,0.02065966855564835,0.0008899692159607252,0.004961992057008391
0.2606897,0.013511364715932131,0.008392620400755097,0.008751440030148118,0.004242402941910584,0.011602683657879555,0.020661185135794433,0.0008764500370415202,0.004920887399261416
0.2611552,0.013454642499279223,0.008364414269295727,0.008771564956637003,0.004254863090171468,0.011647385742966667,0.02066346228946143,0.0008651371486995358,0.0048800925345244455
0.2616207,0.013397824240869619,0.00833594929502751,0.008791379541467081,0.004267173024147806,0.011692056990891937,0.02066650502809009,0.0008560318109879109,0.004839612787875857
0.2620862,0.013340925817499431,0.008307232878586278,0.008810877437558177,0.004279335476736182,0.011736684691030213,0.0206703181084156,0.0008491349857633764,0.0047994533876258814
0.2625517,0.013283963215787852,0.0082782724235524,0.008830052320317892,0.004291353318103135,0.011781256207311713,0.020674906030440605,0.0008444473352107394,0.004759619464814492
0.2630172,0.013226952527128407,0.008249075333363809,0.00884889788894044,0.00430322955574568,0.011825758981084386,0.020680273035539733,0.0008419692204071856,0.004720116052747541
0.2634828,0.013169909942601345,0.008219649008271738,0.008867407867741258,0.004314967334517322,0.011870180533938303,0.020686423104695605,0.0008417006999269063,0.004680948086570952
0.2639483,0.01311285174784925,0.008190000842340488,0.008885576007527422,0.004326569936619332,0.011914508470491452,0.02069335995686632,0.0008436415284865751,0.004642120402882754
0.2644138,0.01305579431791804,0.008160138220492552,0.008903396087003869,0.0043380407815570895,0.011958730481136323,0.02070108704748425,0.0008477911556322144,0.004603637739382685
0.2648793,0.012998754112065596,0.008130068515600344,0.008920861914215343,0.004349383426061324,0.012002834344746803,0.020709607567085987,0.0008541487244679959,0.00456550473455911
0.2653448,0.01294174766854035,0.008099799085625723,0.008937967328023955,0.004360601563974087,0.012046807931345126,0.020718924440073026,0.0008627130704275355,0.004527725927412942
0.2658103,0.012884791599332143,0.00806933727080845,0.008954706199622124,0.004371699026099287,0.012090639204728785,0.020729040323602822,0.0008734827200882439,0.0044903057572182456
0.2662759,0.012827902584897646,0.008038690390904662,0.008971072434080714,0.0043826797800176455,0.012134316225057527,0.020739957606609617,0.0008864558900292961,0.0044532485633191465
0.2667414,0.012771097368862614,0.00800786574247639,0.008987059971932032,0.00439354792986587,0.012177827151400691,0.020751678408954356,0.0009016304857337839,0.004416558584962692
0.2672069,0.01271439275270321,0.00797687059623304,0.009002662790787328,0.004404307716079967,0.012221160244245168,0.020764204580702886,0.0009190041005356103,0.004380239961167243
0.2676724,0.012657805590408674,0.007945712194425742,0.00901787490698838,0.0044149635151025214,0.012264303867964389,0.020777537701531488,0.0009385740146116824,0.004344296730626017
0.2681379,0.012601352783127632,0.007914397748295358,0.009032690377292683,0.004425519839053876,0.012307246493248776,0.02079167908025868,0.0009603371940199559,0.004308732831645365
0.2686034,0.012545051273800274,0.007882934435574949,0.009047103300591657,0.004435981335367095,0.012349976699498178,0.02080662975450202,0.0009842902897838838,0.004273552102117385
0.269069,0.012488918041778707,0.007851329398047367,0.009061107819661273,0.004446352786386642,0.012392483177176844,0.02082239049045856,0.0010104296370238234,0.004238758279526459
0.2695345,0.012432970097437667,0.007819589739158613,0.00907469812294436,0.004456639108930688,0.012434754730131488,0.0208389617828074,0.001038751254135961,0.004204355000989279
0.27,0.012377224476777785,0.007787722521687569,0.009087868446363825,0.004466845353816947,0.012476780277873157,0.020856343854732857,0.0010692508420193194,0.004170345803327914
0.2704655,0.01232169823602355,0.007755734765472603,0.00910061307516593,0.004476976705351949,0.012518548857823653,0.02087453665806661,0.001101923783351422,0.004136734123175424
0.270931,0.012266408446218032,0.007723633445195498,0.009112926345792681,0.004487038480783643,0.012560049627527397,0.020893539873547216,0.0011367651419131985,0.004103523297113499
0.2713966,0.012211372187816531,0.007691425488223127,0.009124802647782345,0.004497036129717181,0.012601271866829685,0.02091335291119551,0.0011737696619637207,0.004070716561841591
0.2718621,0.012156606545281248,0.0076591177725072014,0.00913623642569698,0.0045069752334937286,0.01264220498002235,0.020933974910804346,0.001212931767665378,0.0040383170543769565
0.2723276,0.012102128601679077,0.0076267171245424144,0.009147222181075915,0.004516861504532123,0.012682838497957653,0.020955404742541123,0.0012542455625601059,0.004006327812285055
0.2727931,0.012047955433284593,0.007594230317383212,0.009157754474413922,0.004526700785633161,0.012723162080131283,0.020977641007661516,0.001297704829097288,0.003974751773939712
0.2732586,0.011994104104190276,0.007561664068719421,0.009167827927162885,0.004536499049246303,0.012763165516735153,0.02100068203933264,0.001343303028213967,0.003943591778812484
0.2737241,0.011940591660925915,0.007529025039010878,0.009177437223755623,0.004546262396698577,0.012802838730680588,0.021024525903563924,0.0013910332989680015,0.00391285056779066
0.2741897,0.011887435127089204,0.007496319829681171,0.00918657711365055,0.004555997057385449,0.012842171779592463,0.02104917040024371,0.0014408884582248103,0.0038825307835233646
0.2746552,0.011834651497989445,0.007463554981370514,0.009195242413395768,0.004565709387923425,0.012881154857774618,0.021074613064279768,0.0014928610003983507,0.0038526349707952478
0.2751207,0.011782257735306357,0.007430736972247733,0.009203428008711191,0.004575405871264187,0.012919778298146839,0.021100851166841673,0.0015469430972469714,0.003823165576927276
0.2755862,0.011730270761765901,0.00739787221638127,0.00921112885658718,0.004585093115770013,0.012958032574153611,0.021127881716702997,0.001603126597724777,0.0037941249522041747
0.2760517,0.011678707455835076,0.007364967062169043,0.009218339987398221,0.00459477785425027,0.012995908301644684,0.021155701461681158,0.0016614030278891373,0.00376551535032808
0.2765172,0.01162758464643749,0.007332027790826928,0.009225056507030061,0.004604466942958707,0.013033396240727416,0.02118430689017272,0.0017217635908649601,0.003737338928897962
0.2769828,0.0115769191076915,0.007299060614935601,0.009231273599018762,0.004614167360551267,0.013070487297590774,0.02121369423278186,0.0017841991668663423,0.003709597749914384
0.2774483,0.011526727553672608,0.007266071677045418,0.009236986526700023,0.004623886207004084,0.013107172526300722,0.0212438594640397,0.0018487003132761986,0.0036822937803091204
0.2779138,0.011477026633201715,0.0072330670483389155,0.00924219063536717,0.004633630702491345,0.013143443130566694,0.021274798304212077,0.001915257264784464,0.003655428892499143
0.2783793,0.011427832924660802,0.007200052727350552,0.009246881354436107,0.004643408186222651,0.013179290465478662,0.02130650622119328,0.001983859933585462,0.003629004864964471
0.2788448,0.011379162930837662,0.007167034638743217,0.009251054199615546,0.004653226115239474,0.013214706039214335,0.02133897843248309,0.0020544979096350307,0.003603023382849353
0.2793103,0.011331033073801199,0.0071340186321410684,0.009254704775080771,0.0046630920631703515,0.013249681514715835,0.021372209907244536,0.00212716046096799,0.0035774860385861967
0.2797759,0.011283459689808959,0.007101010481018182,0.009257828775649218,0.00467301371894438,0.013284208711335175,0.02140619536843948,0.0022018365340765456,0.0035523943325416777
0.2802414,0.01123645902424859,0.007068015881642527,0.009260421988956033,0.00468299888546263,0.013318279606447738,0.02144092929503913,0.002278514754350224,0.003527749673684395
0.2807069,0.011190047226614928,0.007035040452074748,0.009262480297627844,0.00469305547822711,0.013351886337032921,0.02147640592430653,0.002357183426577933,0.0035035533802734537
0.2811724,0.011144240345524529,0.007002089731221274,0.009263999681452884,0.00470319152392693,0.013385021201220999,0.02151261925414788,0.002437830535512751,0.0034798066805673215
0.2816379,0.01109905432376943,0.006969169177941207,0.009264976219545636,0.004713415158981419,0.013417676659805174,0.021549563045529775,0.002520443746500052,0.0034565107135523204
0.2821034,0.011054504993411927,0.006936284170206471,0.009265406092504109,0.004723734628039936,0.013449845337717752,0.021587230824959558,0.002605010406169566,0.0034336665296901313
0.282569,0.011010608070922105,0.006903440004314669,0.00926528558455785,0.004734158282438264,0.01348152002546928,0.021625615887026165,0.0026915175431919992,0.0034112750916836915
0.2830345,0.010967379152359806,0.006870641894154066,0.009264611085704763,0.004744694578611462,0.013512693680549415,0.021664711296999033,0.002779951869100813,0.003389337275260897
0.2835,0.010924833708602647,0.006837894970520132,0.009263379093834798,0.004755352076463208,0.013543359428788253,0.021704509893482722,0.0028702997791797747,0.0033678538699755097
0.2839655,0.010882987080621652,0.006805204280482982,0.00926158621683857,0.004766139437691711,0.013573510565676742,0.021745004291124945,0.0029625473534168854,0.003346825580024678
0.284431,0.010841854474806057,0.006772574786805065,0.00925922917469893,0.004777065424072381,0.013603140557644803,0.021786186883375643,0.0030566803575252798,0.0033262530250824656
0.2848966,0.010801450958338819,0.006740011367408385,0.009256304801563501,0.004788138895697535,0.013632243043295727,0.021828049845295003,0.003152684244031685,0.0033061367411487794
0.2853621,0.010761791454624423,0.006707518814890518,0.00925281004779623,0.004799368809173486,0.013660811834595417,0.021870585136408327,0.003250544153433022,0.003286477181413079
0.2858276,0.010722890738770552,0.006675101836088669,0.00924874198200599,0.004810764215775427,0.013688840918015083,0.021913784503605715,0.0033502449154216925,0.0032672747171322604
0.2862931,0.010684763433125296,0.006642765051691007,0.009244097793050368,0.004822334259560595,0.013716324455625886,0.021957639484084603,0.0034517710501800873,0.0032485296385220985
0.2867586,0.010647424002871485,0.006610512995894515,0.009238874792012844,0.004834088175440188,0.013743256786144114,0.022002141408333044,0.0035551067697448353,0.00323024215566162
0.2872241,0.01061088675167976,0.006578350116108616,0.0092330704141516,0.004846035287210595,0.01376963242592541,0.02204728140315163,0.0036602359794412702,0.003212412399409766
0.2876897,0.01057516581742197,0.006546280772703818,0.009226682220818284,0.004858185005544494,0.013795446069906589,0.02209305039471197,0.0037671422793885746,0.003195040422333698
0.2881552,0.010540275167946466,0.00651430923880467,0.009219707901345063,0.004870546825942372,0.01382069259249373,0.022139439111649784,0.0038758089660760374,0.003178126199648063
0.2886207,0.010506228596916821,0.006482439700126313,0.009212145274898394,0.0048831303266450654,0.013845367048395176,0.02218643808819081,0.003986219034010837,0.003161669630164524
0.2890862,0.010473039719715449,0.006450676254853948,0.009203992292297956,0.004895945166507882,0.013869464673398198,0.022234037667308235,0.004098355177437741,0.0031456705372508377
0.2895517,0.010440721969413588,0.00641902291356454,0.009195247037799227,0.004909001082836858,0.013892980885088073,0.022282228003910522,0.004212199792131085,0.0031301286697987393
0.2900172,0.010409288592808971,0.006387483599190162,0.009185907730838242,0.004922307889187691,0.013915911283508267,0.022330999068058865,0.004327734977259383,0.003115043703199881
0.2904828,0.010378752646532477,0.006356062147022372,0.009175972727737113,0.004935875473127846,0.013938251651760538,0.02238034064821337,0.004444942537322909,0.003100415240329068
0.2909483,0.010349126993224983,0.006324762304757109,0.009165440523368927,0.004949713793962305,0.013959997956543678,0.022430242354507128,0.004563803984164543,0.003086242812534045
0.2914138,0.01032042429778557,0.006293587732579601,0.009154309752780648,0.004963832880423408,0.01398114634862962,0.02248069362204727,0.004684300539054196,0.003072525880631117
0.2918793,0.010292657023692217,0.006262542003288842,0.009142579192772669,0.004978242828325188,0.014001693163275602,0.02253168371424194,0.004806413134847059,0.0030592638359059027
0.2923448,0.010265837429396102,0.006231628602461193,0.009130247763433694,0.004992953798182572,0.014021634920571019,0.022583201726152045,0.00493012241821595,0.0030464560011185843
0.2928103,0.010239977564790672,0.006200850928652708,0.009117314529629625,0.005007976012795812,0.0140409683257175,0.02263523658786675,0.00505540875195798,0.00303410163151303
0.2932759,0.010215089267756591,0.006170212293639725,0.009103778702445161,0.005023319754800504,0.014059690269240735,0.02268777706790176,0.00518225221737572,0.00302219991582918
0.2937414,0.010191184160783743,0.006139715922697328,0.009089639640576788,0.0050389953641835775,0.014077797827132373,0.022740811776619643,0.005310632616733061,0.0030107499773181137
0.2942069,0.010168273647671361,0.00610936495491518,0.009074896851675902,0.005055013235765725,0.014095288260920363,0.022794329169671477,0.005440529475785903,0.002999750874759195
0.2946724,0.01014636891030742,0.0060791624435502555,0.009059549993640845,0.005071383816650813,0.01411215901766598,0.02284831755145922,0.005571922046387758,0.0029892016034787187
0.2951379,0.010125480905528306,0.0060491113564159074,0.009043598875856672,0.005088117603642909,0.01412840772988579,0.022902765078618288,0.005704789309170353,0.002979101096369473
0.2956034,0.010105620362059769,0.006019214576306696,0.009027043460381514,0.005105225140631681,0.014144032215396837,0.022957659763519888,0.005839109976299258,0.002969448224910666
0.296069,0.010086797777540117,0.0059894749014583375,0.009009883863078442,0.005122717015947007,0.014159030477083287,0.023012989477792945,0.0059748624943045,0.0029602418001876685
0.2965345,0.010069023415626509,0.0059598950460420935,0.008992120354691767,0.005140603859683683,0.014173400702582693,0.023068741955865453,0.006112025046986114,0.002951480573911013
0.297,0.010052307303185166,0.005930477640692876,0.008973753361866765,0.005158896340997234,0.014187141263890016,0.023124904798525272,0.006250575558394497,0.0029431632394341218
0.2974655,0.010036659227566299,0.005901225233070259,0.008954783468111785,0.00517760516537186,0.0142002507168775,0.02318146547650047,0.00639049169588542,0.0029352884327691967
0.297931,0.010022088733964412,0.005872140288451584,0.008935211414701747,0.005196741071861578,0.014212727800728464,0.02323841133405924,0.006531750873249471,0.0029278547336007437
0.2983966,0.010008605122864594,0.0058432251903563145,0.008915038101522027,0.005216314830305659,0.014224571437283335,0.023295729592629547,0.006674330253915674,0.0029208606662961953
0.2988621,0.00999621744757535,0.005814482241200721,0.008894264587851742,0.005236337238519485,0.014235780730296412,0.023353407354438777,0.006818206754229006,0.002914304700913108
0.2993276,0.009984934511848419,0.0057859136629820436,0.008872892093085494,0.0052568191194619675,0.014246354964602453,0.023411431606173656,0.006963357046801434,0.0029081852542023954
0.2997931,0.009974764867585948,0.005757521597991237,0.008850921997392678,0.005277771318380694,0.014256293605192687,0.023469789222660974,0.007109757563936112,0.002902500690607061
0.3002586,0.00996571681263536,0.005729308109553407,0.008828355842313517,0.005299204699935986,0.014265596296200453,0.023528466970569515,0.007257384501124284,0.0028972493232558823
0.3007241,0.00995779838867214,0.005701275182795069,0.008805195331291095,0.0053211301453050825,0.014274262859797108,0.023587451512133588,0.007406213820614411,0.0028924294149515095
0.3011897,0.009951017379170736,0.005673424725437347,0.008781442330138651,0.00534355854926768,0.014282293294999165,0.023646729408898524,0.007556221255052992,0.0028880391791524366
0.3016552,0.009945381307463683,0.005645758568614231,0.008757098867441512,0.00536650081727407,0.014289687776387885,0.02370628712548857,0.007707382311196508,0.0028840767809483327
0.3021207,0.009940897434889106,0.0056182784677150195,0.008732167134893071,0.005389967862497144,0.014296446652742814,0.023766111033397538,0.007859672273693837,0.002880540338028225
0.3025862,0.009937572759026663,0.005590986103250111,0.008706649487564258,0.005413970602869507,0.014302570445591032,0.023826187414802566,0.008013066208938446,0.002877427921641037
0.3030517,0.009935414012022038,0.005563883081739261,0.008680548444106028,0.005438519958107012,0.01430805984767411,0.023886502466401283,0.008167538968989634,0.002874737557548009
0.3035172,0.009934427659000057,0.005536970936621442,0.008653866686884436,0.0054636268467199494,0.014312915721334857,0.02394704230327263,0.00832306519556199,0.0028724672269665667
0.3039828,0.00993461989656649,0.0055102511291854235,0.00862660706204791,0.005489302183013149,0.01431713909682608,0.024007792962761565,0.008479619324082187,0.002870614867505227
0.3044483,0.009935996651398554,0.005483725049520142,0.008598772579526376,0.005515556874076215,0.014320731170543463,0.024068740408387742,0.008637175587812166,0.0028691783740891924
0.3049138,0.00993856357892412,0.005457394017483934,0.008570366412961966,0.0055424018167650755,0.014323693303184807,0.024129870533778578,0.008795708022037685,0.0028681555998763047
0.3053793,0.009942326062089545,0.005431259283691636,0.008541391899571059,0.005569847894675992,0.014326027017837785,0.024191169166626864,0.008955190468321168,0.0028675443571630696
0.3058448,0.00994728921021599,0.005405322030518556,0.008511852539937467,0.0055979059751131805,0.014327733997998348,0.02425262207267347,0.009115596578817685,0.0028673424182804573
0.3063103,0.009953457857944062,0.0053795833731203205,0.00848175199773663,0.005626586906051163,0.014328816085521884,0.024314214959715405,0.009276899820652874,0.002867547516479189
0.3067759,0.009960836564266596,0.005354044360467559,0.008451094099390736,0.005655901513092946,0.01432927527850926,0.024375933481639512,0.009439073480361538,0.0028681573468042087
0.3072414,0.009969429611649335,0.005328705976394424,0.008419882833654713,0.00568586059642507,0.014329113729129766,0.024437763242482046,0.009602090668385604,0.002869169566958042
0.3077069,0.009979241005239257,0.005303569140659917,0.008388122351133113,0.005716474927770585,0.014328333741383094,0.02449968980051428,0.009765924323630057,0.0028705817981527653
0.3081724,0.009990274472160271,0.005278634710021017,0.008355816963727964,0.005747755247340995,0.014326937768802494,0.024561698672354453,0.00993054721807543,0.0028723916259503364
0.3086379,0.010002533460896006,0.005253903479316623,0.008322971144017694,0.00577971226078817,0.014324928412101359,0.02462377533710647,0.010095931961445414,0.0028745966010910767
0.3091034,0.010016021140759312,0.00522937618256134,0.008289589524567337,0.005812356636157244,0.014322308416765489,0.02468590524052589,0.010262051005928035,0.0028771942403101017
0.309569,0.01003074040144816,0.0052050534940481655,0.00825567689717023,0.00584569900084147,0.014319080670593277,0.024748073799213847,0.01042887665094889,0.00288018202714151
0.3100345,0.01004669385268753,0.005180936029459149,0.008221238212021505,0.005879749938539944,0.014315248201185973,0.02481026640483949,0.010596381047994782,0.0028835574127101292
0.3105,0.010063883823956881,0.00515702434698313,0.008186278576823766,0.005914519986219111,0.014310814173390075,0.024872468428391407,0.010764536205486177,0.0028873178165106116
0.3109655,0.010082312364302733,0.005133318948439672,0.00815080325582533,0.005950019631078915,0.014305781886693786,0.024934665224458297,0.010933313993696769,0.002891460627173667
0.311431,0.010101981242235951,0.005109820280408353,0.008114817668791548,0.005986259307524455,0.01430015477257947,0.024996842135538988,0.011102686149718414,0.002895983203219218
0.3118966,0.01012289194571322,0.005086528735362601,0.008078327389909651,0.006023249394144026,0.014293936391833947,0.025058984496381623,0.011272624282469685,0.0029008828737962936
0.3123621,0.01014504568220221,0.005063444652807273,0.008041338146627608,0.006061000210694435,0.014287130431818526,0.02512107763835173,0.01144309987774623,0.0029061569394094665
0.3128276,0.01016844337882998,0.005040568320419182,0.008003855818427497,0.006099522015094581,0.014279740703700671,0.025183106893828543,0.011614084303311081,0.0029118026726316485
0.3132931,0.010193085682614133,0.005017899975189819,0.007965886435533854,0.006138825000428258,0.01427177113964931,0.025245057600628867,0.01178554881402313,0.0029178173188030964
0.3137586,0.010218972960776234,0.004995439804569434,0.007927436177557505,0.0061789192919572255,0.01426322578999579,0.02530691510645753,0.011957464557001966,0.002924198096716467
0.3142241,0.010246105301137077,0.00497318794761168,0.007888511372075333,0.006219814944145572,0.014254108820362562,0.02536866477338311,0.01212980257682733,0.002930942199287796
