Time,Rectus Femoris right,Rectus Femoris left,Hamstrings right,Hamstrings left,TibilaisÂ Anterior right,TibilaisÂ Anterior left,Gastrocnemius right,Gastrocnemius left
0.0,0.0003690900797861732,0.0012050619852148482,-0.0028188184915613605,-0.0006817830626046488,0.0015565840279657005,0.0013722837416692939,-0.058508879537293695,0.0012908080620419144
0.0004655,0.000409529401442753,0.0012178086859819621,-0.0025348933425629345,-0.0005237013988455419,0.0019035699354519324,0.0014838828645753414,-0.057343423124339224,0.0013618613679177239
0.000931,0.0004501982403027885,0.0012305132017065873,-0.0022490850200286463,-0.00036550671834262424,0.0022506918608600967,0.0015957469493205923,-0.05617883188635919,0.0014326363399089481
0.0013966,0.000491093715999387,0.0012431731571704025,-0.001961398297942908,-0.00020721870253072932,0.0025979052908670862,0.0017078609829372863,-0.05501523402353878,0.0015031226128493457
0.0018621,0.0005322129065453679,0.0012557861805359291,-0.0016718379756782524,-4.885707227917937e-05,0.0029451656796227227,0.0018202098317567448,-0.05385275711429342,0.0015733099181361161
0.0023276,0.0005735528487950106,0.0012683499041641617,-0.0013804088748733234,0.00010955841728868638,0.0032924284624034125,0.0019327782446604722,-0.05269152807636246,0.0016431880882375053
0.0027931,0.0006151105389053087,0.0012808619654360318,-0.001087115836395273,0.0002680079819603625,0.003639649069274086,0.0020455508563706143,-0.051531673128388196,0.0017127470611877746
0.0032586,0.000656882932795928,0.0012933200075773037,-0.0007919637173926893,0.00042647181357922335,0.003986782938749417,0.0021585121907783853,-0.050373317752006715,0.00178197688506712
0.0037241,0.0006988669466071073,0.0013057216804864987,-0.0004949573884449726,0.0005849300851657523,0.004333785531445566,0.002271646664309064,-0.04921658665447592,0.0018508677224641382
0.0041897,0.0007410594571547752,0.0013180646415654293,-0.00019610173081380963,0.0007433629560111414,0.004680612343713965,0.0023849385893221506,-0.04806160373186533,0.0019194098549184552
0.0046552,0.0007834573023821999,0.0013303465565519322,0.00010459836619791165,0.0009017505767396726,0.005027218921249,0.0024983721775452957,-0.04690849203283136,0.001987593687341162
0.0051207,0.0008260572818075489,0.001342565100354369,0.00040713800777475694,0.0010600730943365227,0.005373560872661788,0.002611931543540601,-0.045757373723000684,0.0020554097524107195
0.0055862,0.000868856156966793,0.0013547179578874754,0.0007115122960003238,0.0012183106571378795,0.005719593883012561,0.0027256007082019232,-0.044608370049983345,0.0021228487149420276
0.0060517,0.0009118506518514561,0.0013668028249091296,0.0010177163321474397,0.0013764434197804977,0.006065273727294467,0.0028393636022818387,-0.0434616013090365,0.002189901376226387
0.0065172,0.0009550374533407577,0.0013788174088576162,0.0013257452188429927,0.0015344515481080533,0.006410556283861919,0.0029532040699469537,-0.04231718680939844,0.0022565586783401172
0.0069828,0.000998413211627738,0.0013907594296889648,0.0016355940621037071,0.0016923152240318818,0.00675539754779689,0.003067105872360287,-0.041175244841311937,0.002322811708419623
0.0074483,0.0010419745406389902,0.001402626620713948,0.001947257973239439,0.0018500146503438797,0.007099753644206904,0.003181052691289478,-0.04003589264375498,0.002388651702900738
0.0079138,0.0010857180184476473,0.0014144167294343213,0.002260732070620827,0.002007530055479545,0.007443580841448716,0.003295028132739615,-0.0388992463728955,0.002454070051720201
0.0083793,0.001129640187679296,0.0014261275183778917,0.002576011481308351,0.002164841698229294,0.007786835564271961,0.003409015730609484,-0.03776542107128526,0.0025190583024771685
0.0088448,0.001173737555910496,0.001437756765931996,0.0028930913425400536,0.002321929872396345,0.008129474406877243,0.0035229989503700785,-0.03663453063780669,0.002583608164552693
0.0093103,0.0012180065960596023,0.0014493022671749616,0.003211966803075318,0.0024787749113995795,0.008471454145883309,0.003636961192764236,-0.03550668779838467,0.0026477115131851763
0.0097759,0.0012624437467695867,0.001460761834705121,0.0035326330243922155,0.0026353571928199,0.008812731753198072,0.0037508857975262887,-0.03438200407747485,0.0027113603934998476
0.0102414,0.0013070454127825796,0.001472133299466944,0.003855085181736004,0.002791657142888708,0.009153264408788383,0.0038647560471206234,-0.0332605897703386,0.002774547024490371
0.0107069,0.0013518079653058652,0.0014834145115738464,0.004179318465016377,0.0029476552409172193,0.009493009513343434,0.00397855517049806,-0.03214255391611454,0.002837263802950748
0.0111724,0.0013967277423690902,0.0014946033411272492,0.0045053280795510865,0.0031033320236654393,0.009831924700826887,0.0040922663468689535,-0.03102800427169497,0.0028995033073557085
0.0116379,0.0014418010491724523,0.0015056976790314646,0.004833109246653581,0.003258668089649718,0.01016996785091276,0.004205872709491909,-0.02991704728641451,0.0029612583016878193
0.0121034,0.0014870241584256478,0.0015166954378040191,0.00516265720406228,0.003413644103387889,0.010507097101300286,0.004319357349477011,-0.028809788077556575,0.003022521739209559
0.012569,0.0015323933106773566,0.001527594552381045,0.00549396720620908,0.00356824079958105,0.010843270859903107,0.004432703319602419,-0.027706330406681703,0.003083286766178653
0.0130345,0.0015779047146350282,0.0015383929809173798,0.005827034524324671,0.003722438987231095,0.011178447816908382,0.004545893638143194,-0.02660677665678017,0.0031435467255049804
0.0135,0.0016235545474747452,0.0015490887055810388,0.006161854446378225,0.0038762195536931007,0.011512586956701544,0.004658911292711194,-0.025511227810250517,0.003203295160347424
0.0139655,0.0016693389551409358,0.0015596797333417125,0.006498422276848939,0.004029563468661699,0.01184564756965272,0.004771739244104864,-0.02441978342770455,0.0032625258176490596
0.014431,0.0017152540526357307,0.0015701640967529587,0.006836733336326965,0.0041824517880905895,0.012177589263760944,0.004884360430167741,-0.02333254162759891,0.0033212326516091485
0.0148966,0.0017612959242977804,0.0015805398547277642,0.007176782960941194,0.004334865658044422,0.012508371976152422,0.004996757769654503,-0.0222495990666927,0.0033794098270904104
0.0153621,0.0018074606240703899,0.001590805093307166,0.0075185665016114685,0.004486786318482359,0.012837955984429172,0.00510891416610341,-0.021171050921330294,0.0034370517229601006
0.0158276,0.00185374417575888,0.0016009579264216456,0.007862079323122785,0.004638195106972784,0.013166301917864422,0.005220812511714059,-0.020096990869547977,0.0034941529353634234
0.0162931,0.0019001425732771357,0.0016109964966450345,0.00820731680301914,0.004789073462338764,0.013493370768441124,0.005332435691229456,-0.019027511074002662,0.0035507082809278154
0.0167586,0.0019466517808833456,0.0016209189759406864,0.008554274330314734,0.004939402928234061,0.013819123901730112,0.005443766585821442,-0.017962702165720462,0.0036067127998966235
0.0172241,0.001993267733404978,0.0016307235663996864,0.00890294730402035,0.005089165156649668,0.014143523067604464,0.005554788076978634,-0.016902653228662374,0.0036621617591907018
0.0176897,0.002039986336453069,0.0016404085009708717,0.009253331131482734,0.005238341911351024,0.01446653041078692,0.005665483050396027,-0.01584745178510358,0.0037170506553964562
0.0181552,0.0020868034666258976,0.0016499720441824335,0.009605421226534913,0.005386915071246266,0.01478810848122733,0.005775834399865451,-0.014797183781822267,0.003771375217678871
0.0186207,0.002133714971702136,0.00165941249285488,0.009959213007455378,0.00553486663368603,0.015108220244307384,0.005885825031166136,-0.013751933577093096,0.003825131410618064
0.0190862,0.0021807166708235574,0.0016687281768051245,0.010314701894734069,0.005682178717695484,0.015426829090870096,0.005995437865954692,-0.012711783928479953,0.003878315436967928
0.0195517,0.0022278043546673618,0.0016779174595414682,0.010671883308643056,0.005828833567139386,0.01574389884707159,0.006104655845653916,-0.011676815981422088,0.0039309237403354
0.0200172,0.002274973785608175,0.0016869787389492455,0.011030752666609769,0.005974813553821068,0.016059393784052804,0.006213461935340017,-0.010647109258607434,0.003982953007778899
0.0204828,0.0023222206978697753,0.0016959104479669185,0.011391305380390588,0.006120101180516335,0.01637327862742878,0.006321839127627957,-0.009622741650126573,0.0040344001723244625
0.0209483,0.002369540797666581,0.0017047110552524168,0.011753536853042538,0.006264679083943295,0.01668551856659308,0.006429770446554764,-0.008603789404400654,0.004085262415398119
0.0214138,0.0024169297633349182,0.00171337906583955,0.012117442475690774,0.0064085300376692175,0.016996079263834847,0.006537238951460775,-0.0075903271198763545,0.004135537169173056
0.0218793,0.0024643832454541,0.0017219130217843354,0.012483017624089654,0.0065516369549555534,0.017304926863266037,0.00664422774086879,-0.006582427737480883,0.004185222118830158
0.0223448,0.002511896866957313,0.0017303115028010933,0.012850257654975213,0.006693982891542312,0.01761202799955643,0.006750719956361237,-0.005580162533829866,0.004234315204730539
0.0228103,0.0025594662232323044,0.0017385731268881668,0.01321915790220707,0.006835551048373041,0.017917349806474178,0.006856698786455466,-0.004583601115180761,0.004282814624498736
0.0232759,0.0026070868822118463,0.0017466965509431273,0.013589713672698105,0.006976324774261694,0.018220859925230006,0.0069621474704773855,-0.0035928114121242284,0.004330718835015289
0.0237414,0.0026547543844539522,0.001754680471367319,0.013961920242130603,0.007116287568502736,0.01852252651262354,0.007067049302433694,-0.0026078596750055915,0.0043780265543174116
0.0242069,0.0027024642432118117,0.001762523624659591,0.01433577285045802,0.007255423083425867,0.018822318248990756,0.007171387634882992,-0.001628810470068229,0.004424736763406514
0.0246724,0.002750211944493409,0.0017702247879990553,0.014711266697192114,0.00739371512689674,0.019120204345951977,0.007275145882806105,-0.0006557266763104366,0.0044708487079612854
0.0251379,0.0027979929471108065,0.0017777827798167059,0.01508839693647575,0.007531147664765066,0.01941615455396033,0.007378307527476006,0.00031133051695294255,0.004516361899955094
0.0256034,0.0028458026827190602,0.0017851964603557283,0.015467158671942273,0.007667704823261472,0.01971013916965091,0.007480856120327682,0.0012723016118330473,0.004561276119176431
0.026069,0.0028936365558447337,0.0017924647322203275,0.015847546951362923,0.007803370891344412,0.020002129042991087,0.007582775286828305,0.0022271288029227913,0.004605591414651208
0.0265345,0.0029414899439039596,0.0017995865409128975,0.01622955676108436,0.007938130322998387,0.020292095584232454,0.007684048730348027,0.003175755977675152,0.00464930810596575
0.027,0.002989358197209985,0.0018065608753593668,0.016613183020258885,0.008071967739484693,0.020580010770664806,0.007784660236031651,0.004118128716113273,0.004692426784489379
0.0274655,0.003037236638970111,0.0018133867684225486,0.016998420574870405,0.008204867931545803,0.020865847153172495,0.007884593674671432,0.005054194289881744,0.004734948314495594
0.027931,0.003085120565271928,0.0018200632974033294,0.017385264191559523,0.008336815861564487,0.021149577862593402,0.007983833006581136,0.005983901660648427,0.0047768738341808815
0.0283966,0.0031330052450587224,0.0018265895845295237,0.017773708551251335,0.00846779666567871,0.021431176615880756,0.00808236228547151,0.00690720147786619,0.004818204756580323
0.0288621,0.0031808859200939473,0.0018329647974322277,0.01816374824258964,0.008597795655853337,0.021710617722068035,0.0081801656623272,0.007824046075903866,0.004858942770379171
0.0293276,0.0032287578049146285,0.0018391881496094898,0.01855537775518129,0.00872679832190965,0.021987876088037272,0.008277227389285106,0.008734389470555775,0.004899089840619704
0.0297931,0.003276616086773601,0.0018452589008771223,0.018948591472654482,0.008854790333513702,0.02226292722409113,0.008373531823514142,0.009638187354939081,0.004938648209302699
0.0302586,0.003324455925570511,0.0018511763578064778,0.01934338366553495,0.008981757542124536,0.022535747249329087,0.008469063431096253,0.010535397094788217,0.004977620395882914
0.0307241,0.003372272453771588,0.0018569398741490124,0.019739748483944497,0.009107685982903315,0.022806312896828027,0.008563806790908518,0.01142597772315562,0.005016009197658043
0.0311897,0.0034200607763182514,0.0018625488512474747,0.020137679950126944,0.009232561876584416,0.023074601518627686,0.008657746598506115,0.01230988993452792,0.005053817690050658
0.0316552,0.00346781597052473,0.0018680027384335592,0.02053717195080731,0.009356371631309566,0.0233405910905212,0.008750867670005859,0.013187096078366664,0.0050910492267827205
0.0321207,0.003515533085964983,0.001873301033411884,0.020938218229390942,0.009479101844426064,0.023604260216650897,0.008843154945969954,0.01405756015208271,0.005127707439942244
0.0325862,0.003563207144349314,0.0018784432826301732,0.02134081237800983,0.009600739304250181,0.023865588133909457,0.008934593495289574,0.014921247793453255,0.005163796239941767
0.0330517,0.0036108331393911986,0.0018834290816355434,0.021744947829423798,0.0097212709917968,0.024124554716146315,0.009025168519067798,0.015778126272490537,0.005199319815368315
0.0335172,0.0036584060366648945,0.0018882580754168124,0.022150617848784405,0.009840684082476394,0.024381140478179027,0.009114865354501359,0.01662816448277129,0.005234282632724506
0.0339828,0.0037059207734544664,0.0018929299587327657,0.022557815525269392,0.009958965947760483,0.024635326579609103,0.00920366947876062,0.01747133293223607,0.005268689436060486
0.0344483,0.0037533722585948626,0.0018974444764263243,0.022966533763595486,0.010076104156816696,0.024887094828441807,0.00929156651286711,0.01830760373346772,0.005302545246496362
0.0349138,0.0038007553723056935,0.0019018014237245733,0.023376765275417186,0.010192086478114629,0.02513642768450892,0.009378542225567854,0.019136950593458428,0.005335855361634817
0.0353793,0.003848064966018365,0.0019060006465246343,0.023788502570619225,0.010306900881003701,0.025383308262693426,0.009464582537205736,0.019959348802874952,0.005368625354863631
0.0358448,0.003895295862197238,0.0019100420416653752,0.02420173794851024,0.010420535537264216,0.025627720335954802,0.009549673523584901,0.020774775224831666,0.0054008610745478235
0.0363103,0.003942442854155507,0.0019139255571850018,0.02461646348892527,0.01053297882263288,0.02586964833815348,0.009633801419830326,0.021583208283181134,0.005432568643111176
0.0367759,0.003989500705866527,0.0019176511925645962,0.02503267104324463,0.010644219318303977,0.026109077366672676,0.009716952624240424,0.022384627950331856,0.005463754456006899
0.0372414,0.004036464151771361,0.001921218998957699,0.025450352225336818,0.010754245812407442,0.026345993184835676,0.009799113702131618,0.0231790157346029,0.0054944251805772405
0.0377069,0.00408332789658335,0.0019246290794060475,0.025869498402433005,0.010863047301465086,0.026580382224116378,0.009880271389673631,0.023966354667125243,0.005524587754801824
0.0381724,0.004130086615090543,0.0019278815890415946,0.026290100685940655,0.01097061299182618,0.026812231586140753,0.009960412597714241,0.02474662928829973,0.005554249385934572
0.0386379,0.0041767349519568455,0.0019309767352749284,0.026712149922203655,0.011076932301083595,0.027041529044476584,0.010039524415592116,0.025519825633822008,0.005583417549029039
0.0391034,0.00422326752152278,0.0019339147779702103,0.027135636683216162,0.011181994859471633,0.02726826304620867,0.010117594114936297,0.026285931220284973,0.00561209998535208
0.039569,0.004269678907606782,0.0019366960296067323,0.02756055125729729,0.01128579051124661,0.02749242271329654,0.010194609153450803,0.02704493503036948,0.005640304700685799
0.0400345,0.004315963663307951,0.0019393208554271846,0.02798688363973365,0.011388309316051186,0.02771399784371139,0.010270557178682789,0.02779682749763417,0.005668039963517771
0.0405,0.004362116310811224,0.0019417896735727097,0.028414623523396527,0.011489541550263384,0.02793297891234883,0.010345426031772634,0.028541600490915513,0.0056953143031196396
0.0409655,0.004408131341195949,0.0019441029552048164,0.028843760289340683,0.011589477708331186,0.028149357071713815,0.010419203751184299,0.029279247298349232,0.005722136507514177
0.041431,0.004454003214248864,0.0019462612246142171,0.02927428299739149,0.011688108504093572,0.028363124152373933,0.010491878576414197,0.030009762611024723,0.005748515621330999
0.0418966,0.004499726358282517,0.0019482650593166705,0.029706180376727443,0.011785424872088881,0.028574272663176952,0.010563438951676805,0.030733142506284578,0.005774460943551121
0.0423621,0.004545295169960198,0.0019501150901359188,0.030139440816464802,0.011881417968851291,0.028782795791228454,0.010633873529565142,0.03144938443068178,0.005799982025140599
0.0428276,0.004590704014128445,0.0019518120012738363,0.03057405235625125,0.011976079174196203,0.028988687401625107,0.010703171174684221,0.032158487182607484,0.0058250886665735645
0.0432931,0.004635947223658203,0.001953356530367913,0.031010002676875443,0.012069400092495347,0.029191942036938975,0.010771320967255495,0.032860450894602565,0.005849790915245038
0.0437586,0.004681019099295675,0.0019547494685362267,0.03144727909089934,0.012161372553942316,0.029392554916448124,0.010838312206690301,0.033555277015366265,0.0058740990627739915
0.0442241,0.004725913909523896,0.0019559916604100554,0.03188586853332008,0.012251988615809244,0.0295905219351085,0.010904134415130204,0.034242968291475294,0.005898023642197229
0.0446897,0.004770625890436018,0.0019570840041542967,0.03232575755226805,0.012341240563695314,0.029785839662261823,0.010968777340952206,0.03492352874882692,0.005921575425054731
0.0451552,0.0048151492456212424,0.001958027451475867,0.032766932299747656,0.012429120912767731,0.029978505340074124,0.011032230962236728,0.03559696367381962,0.0059447654183671815
0.0456207,0.004859478146064326,0.0019588230076202483,0.03320937852242716,0.012515622408995725,0.030168516881699105,0.011094485490196315,0.03626327959428462,0.005967604861506513
0.0460862,0.004903606730059531,0.001959471731356334,0.03365308155248376,0.012600738030378167,0.030355872869160427,0.011155531372563178,0.03692248426018156,0.005990105222960365
0.0465517,0.004947529103139872,0.0019599747349497184,0.03409802629850989,0.012684460988165292,0.030540572550946766,0.011215359296933703,0.037574586624071496,0.006012278196991421
0.0470172,0.004991239338022484,0.0019603331841245696,0.034544197236486766,0.012766784728074942,0.030722615839313322,0.011273960194068195,0.038219596821380056,0.00603413570019267
0.0474828,0.005034731474570931,0.0019605482980141913,0.03499157840083113,0.012847702931503708,0.030902003307283318,0.011331325241144144,0.03885752615046403,0.006055689867939731
0.0479483,0.00507799951977527,0.0019606213491003876,0.035440153375520936,0.012927209516733268,0.031078736185343268,0.011387445864961253,0.03948838705249431,0.006076953050741396
0.0484138,0.005121037447750702,0.0019605536631417167,0.03588990528530599,0.013005298640132074,0.03125281635782599,0.011442313745096579,0.04011219309116823,0.006097937810489641
0.0488793,0.005163839199755661,0.0019603466190907244,0.03634081678700935,0.013081964697352538,0.03142424635897582,0.01149592081700806,0.040728958932264525,0.006118656916610419
0.0493448,0.005206398684230211,0.0019600016490002353,0.03679287006092546,0.013157202324523717,0.03159302936869133,0.01154825927508475,0.041338700323053784,0.006139123342116605
0.0498103,0.0052487097768556725,0.0019595202379187704,0.037246046802320736,0.01323100639943939,0.03175916920794167,0.011599321575642153,0.04194143407157784,0.0061593502595645305
0.0502759,0.005290766320636366,0.0019589039237751433,0.03770032821304282,0.01330337204274139,0.031922670333853924,0.011649100439860983,0.0425371780258115,0.006179351036915597
0.0507414,0.005332562126004427,0.0019581542972522893,0.03815569499324427,0.013374294619097934,0.0320835378344701,0.011697588856667707,0.04312595105272021,0.0061991392333045625
0.0512069,0.005374090970948623,0.0019572730016503524,0.03861212733322694,0.01344376973837665,0.03224177742317358,0.011744780085555179,0.04370777301722741,0.006218728594716111
0.0516724,0.005415346601168115,0.0019562617327390495,0.03906960490541309,0.013511793256811918,0.03239739543278584,0.011790667659341648,0.04428266476110542,0.006238133049571425
0.0521379,0.005456322730252097,0.00195512223859931,0.039528106856449446,0.013578361278166107,0.0325503988093348,0.011835245386866386,0.044850648081803675,0.00625736670422652
0.0526034,0.005497013039886242,0.0019538563194541904,0.039987611799450595,0.01364347015488417,0.03270079510549658,0.01187850735562006,0.04541174571122783,0.006276443838384167
0.053069,0.005537411180086863,0.0019524658274890432,0.0404480978063885,0.013707116489241025,0.032848592473712496,0.011920447934307953,0.045965981294483364,0.006295378900421295
0.0535345,0.005577510769463691,0.0019509526666609323,0.04090954240063484,0.013769297134481044,0.03299379965898364,0.011961061775344057,0.04651337936859693,0.006314186502633822
0.054,0.005617305395512148,0.0019493187924972807,0.04137192254966351,0.013830009195948924,0.03313642599134599,0.012000343817274007,0.04705396534122836,0.006332881416400934
0.0544655,0.005656788614935984,0.0019475662118837566,0.04183521465792077,0.01388925003221108,0.03327648137803008,0.012038289287124818,0.04758776546938611,0.006351478567270852
0.054931,0.0056959539540011395,0.0019456969828414083,0.04229939455987072,0.01394701725616664,0.033413976295311065,0.012074893702679263,0.04811480683815865,0.006369993029970206
0.0553966,0.005734794908921639,0.0019437132142930758,0.04276443751322425,0.01400330873614704,0.0335489217800561,0.012110152874672762,0.04863511733947399,0.006388440023339153
0.0558621,0.005773304946278339,0.0019416170658191102,0.04323031819235953,0.014058122597003037,0.03368132942097787,0.012144062908910448,0.04914872565089935,0.00640683490519439
0.0563276,0.005811477503471278,0.0019394107474024504,0.04369701068194227,0.01411145722117804,0.03381121134960365,0.0121766202083021,0.04965566121449272,0.006425193167122288
0.0567931,0.005849305989206403,0.0019370965191630916,0.04416448847075394,0.014163311249766442,0.033938580230969975,0.012207821474812487,0.050155954215717696,0.006443530429204381
0.0572586,0.005886783784017399,0.001934676691081982,0.04463272444573574,0.014213683583555623,0.034063449254052955,0.012237663711324554,0.05064963556243252,0.006461862434677483
0.0577241,0.005923904240823395,0.0019321536227143766,0.045101690886256186,0.014262573384050346,0.03418583212194443,0.012266144223412805,0.05113673686396423,0.006480205044530787
0.0581897,0.00596066068552327,0.0019295297228926693,0.04557135945860961,0.014309980074478068,0.034305743041783784,0.012293260621024123,0.0516172904102781,0.006498574232042274
0.0586552,0.005997046417627337,0.0019268074494187284,0.04604170121075262,0.01435590334077382,0.03442319671445539,0.012319010820063236,0.052091329151252475,0.00651698607725682
0.0591207,0.006033054710927188,0.0019239893087457528,0.04651268656728529,0.014400343132543174,0.03453820832406188,0.012343393043879826,0.052558886676068596,0.006535456761408397
0.0595862,0.006068678814204496,0.0019210778556496815,0.04698428532468355,0.014443299664001898,0.03465079352718335,0.012366405824654257,0.053019997192724655,0.006554002561288801
0.0600517,0.006103911951979586,0.001918075692890191,0.04745646664678948,0.01448477341489088,0.03476096844193285,0.012388048004678768,0.05347469550768282,0.006572639843565314
0.0605172,0.00613874732530064,0.0019149854708613143,0.04792919906056593,0.014524765131364836,0.034868749636818804,0.012408318737530925,0.05392301700565764,0.006591385059049748
0.0609828,0.006173178112574368,0.0019118098872317217,0.048402450452122485,0.014563275826853397,0.03497415411942449,0.012427217489135946,0.05436499762955386,0.006610254736921307
0.0614483,0.006207197470439049,0.0019085516865747006,0.048876188063019535,0.014600306782893027,0.035077199324914855,0.01244474403871452,0.054800673860561165,0.006629265478905717
0.0619138,0.006240798534680805,0.0019052136599878547,0.049350378486857346,0.014635859549928208,0.03517790310438053,0.012460898479612638,0.055230082698412786,0.006648433953413063
0.0623793,0.0062739744211939945,0.0019017986447025506,0.04982498766615731,0.014669935948080259,0.03527628371302877,0.012475681220009974,0.0556532616418147,0.006667776889636842
0.0628448,0.006306718226986589,0.0018983095236831185,0.0502999808895418,0.014702538067882,0.0353723597982308,0.012489092983503402,0.056070248669051505,0.006687311071616651
0.0633103,0.006339023031231384,0.0018947492252158115,0.05077532278921947,0.014733668270976401,0.035466150387434864,0.012501134809562369,0.05648108221877453,0.0067070533322670595
0.0637759,0.006370881896363853,0.0018911207224875123,0.05125097733878225,0.014763329190777254,0.03555767487595383,0.012511808053853048,0.0568858011709773,0.006727020547375169
0.0642414,0.006402287869227401,0.0018874270331541698,0.05172690785132011,0.014791523733089782,0.035646953014636266,0.012521114388428387,0.057284444828163195,0.006747229629569374
0.0647069,0.006433233982266755,0.0018836712188989423,0.05220307697785952,0.014818255076689019,0.03573400489742958,0.012529055801781435,0.057677052896709234,0.006767697522261869
0.0651724,0.006463713254770172,0.0018798563849800117,0.052679446706131415,0.01484352667385375,0.03581885094884355,0.012535634598759601,0.05806366546842995,0.006788441193567418
0.0656379,0.006493718694161141,0.0018759856797680296,0.05315597835967441,0.014867342250853791,0.035901511911322376,0.01254085340033766,0.0584443230023443,0.006809477630200888
0.0661034,0.006523243297340151,0.001872062294273152,0.0536326325972791,0.014889705808388396,0.0359820088325333,0.012544715143247535,0.05881906630664861,0.006830823831356006
0.066569,0.006552280052077138,0.001868089461661612,0.05410936941277962,0.014910621621973605,0.03606036305257961,0.012547223079463005,0.059187936520897634,0.006852496802567818
0.0670345,0.006580821938455107,0.00186407045676178,0.05458614813519836,0.014930094242276521,0.03613659619114556,0.012548380775537655,0.059550975098395464,0.00687451354956136
0.0675,0.0066088619303654155,0.0018600085955596496,0.05506292742925016,0.014948128495394508,0.036210730134581065,0.012548192111794716,0.0599082237887978,0.006896891072089016
0.0679655,0.006636392997055174,0.001855907234683691,0.05553966529621193,0.014964729483077513,0.03628278702293392,0.012546661281367822,0.060259724620926186,0.006919646357759086
0.068431,0.0066634081047271514,0.0018517697708790028,0.056016319075163676,0.01497990258289178,0.03635278923693745,0.012543792789091979,0.06060551988579453,0.006942796375858088
0.0688966,0.0066899002181925625,0.0018475996404706849,0.05649284544460669,0.014993653448323473,0.03642075938496154,0.012539591450244435,0.06094565211984827,0.00696635807116928
0.0693621,0.006715862302577077,0.0018434003188163655,0.056969200424464184,0.015005988008820805,0.03648672028993539,0.012534062389135231,0.06128016408841595,0.006990348357789906
0.0698276,0.006741287325080332,0.0018391753197478167,0.05744533937846939,0.015016912469773437,0.03655069497625029,0.012527211037547425,0.061609098769372976,0.007014784112949621
0.0702931,0.006766168256789229,0.0018349281950015978,0.05792121701694608,0.015026433312427994,0.03661270665665082,0.012519043133027003,0.06193249933701706,0.007039682170832592
0.0707586,0.006790498074545245,0.001830662533638671,0.05839678739998565,0.015034557293738664,0.036672778719122966,0.012509564717022588,0.06225040914615474,0.007065059316405734
0.0712241,0.006814269762865989,0.0018263819614529496,0.05887200394102495,0.015041291446151912,0.03673093471378765,0.012498782132875292,0.06256287171639809,0.007090932279255501
0.0716897,0.006837476315921197,0.0018220901403687383,0.059346819410828436,0.01504664307732426,0.03678719833980782,0.012486702023659419,0.06286993071667063,0.007117317727435665
0.0721552,0.006860110739563327,0.0018177907678270544,0.05982118594187766,0.015050619769772188,0.03684159343231729,0.012473331329875126,0.06317162994992133,0.007144232261328451
0.0726207,0.0068821660534128725,0.0018134875761608028,0.06029505503317098,0.015053229380453111,0.03689414394937918,0.01245867728699478,0.06346801333804516,0.007171692407521366
0.0730862,0.006903635292998452,0.001809184331958797,0.06076837755543573,0.015054480040276349,0.03694487395898164,0.012442747422865,0.06375912490700905,0.007199714612702022
0.0735517,0.006924511511951699,0.001804884835418606,0.06124110375675461,0.015054380153542863,0.03699380762607842,0.012425549554966773,0.06404500877218144,0.007228315237573264
0.0740172,0.006944787784256908,0.0018005929196882047,0.061713183268608016,0.015052938397312508,0.03704096919968137,0.012407091787536186,0.06432570912386432,0.00725751055079088
0.0744828,0.006964457206555317,0.001796312450196399,0.06218456511233376,0.015050163720697299,0.03708638300001208,0.012387382508548482,0.06460127021302596,0.007287316722926198
0.0749483,0.006983512900503922,0.0017920473239719937,0.06265519770600525,0.0150460653440792,0.03713007340571962,0.012366430386568468,0.06487173633723312,0.007317749820455893
0.0754138,0.007001948015188583,0.0017878014689516684,0.06312502887172947,0.01504065275825072,0.03717206484117112,0.012344244367470721,0.06513715182678068,0.00734882579978132
0.0758793,0.0070197557295911765,0.0017835788432765264,0.0635940058433656,0.01503393572347656,0.037212381763822154,0.012320833671033418,0.06539756103101714,0.0073805605012797594
0.0763448,0.007036929255110472,0.001779383434577281,0.06406207527466538,0.015025924268474412,0.037251048651673405,0.012296207787410023,0.06565300830486319,0.007412969643389868
0.0768103,0.00705346183813636,0.001775219259248044,0.06452918324783624,0.015016628689313,0.03728808999082016,0.012270376473483315,0.06590353799552116,0.007446068816733735
0.0772759,0.007069346762677005,0.00177109036170868,0.06499527528252774,0.015006059548225287,0.03732353026310081,0.012243349749106269,0.06614919442937264,0.007479873478277902
0.0777414,0.007084577353038411,0.0017670008136557143,0.06546029634524246,0.014994227672334853,0.03735739393385024,0.012215137893234407,0.06639002189906124,0.007514398945535744
0.0782069,0.007099146976555878,0.0017629547133017982,0.06592419085917164,0.014981144152293374,0.03738970543976369,0.012185751439954174,0.06662606465075728,0.007549660390813631
0.0786724,0.007113049046376693,0.0017589561846037625,0.06638690271445637,0.014966820340827204,0.03742048917687655,0.012155201174411953,0.0668573668716015,0.007585672835503324
0.0791379,0.007126277024293414,0.0017550093764793085,0.0668483752788742,0.014951267851191146,0.03744976948866507,0.012123498128648352,0.06708397267732438,0.007622451144423048
0.0796034,0.007138824423626999,0.001751118462012378,0.06730855140895145,0.014934498555527618,0.03747757065427282,0.012090653577342257,0.06730592610003776,0.0076600100202096994
0.080069,0.007150684812159013,0.0017472876376472526,0.06776737346150034,0.01491652458312958,0.03750391687686751,0.012056679033469186,0.0675232710761951,0.0076983639977646
0.0805345,0.007161851815112059,0.0017435211223714208,0.06822478330558036,0.01489735831860578,0.037528832272132606,0.012021586243878333,0.06773605143471656,0.007737527438755181
0.081,0.00717231911817757,0.0017398231568872507,0.06868072233488236,0.014877012399947116,0.03755234085689808,0.011985387184792652,0.06794431088527512,0.007777514526174945
0.0814655,0.007182080470589998,0.0017361980027724977,0.0691351314805339,0.014855499716493092,0.037574466537914235,0.01194809405723619,0.06814809300674061,0.00781833925896396
0.081931,0.007191129688246438,0.0017326499416296752,0.06958795122432426,0.014832833406797603,0.03759523310077278,0.011909719282392773,0.06834744123577823,0.007860015446692103
0.0823966,0.007199460656870687,0.001729183274224325,0.0700391216123465,0.014809026856393416,0.03761466419897881,0.011870275496900083,0.06854239885559964,0.007902556704307182
0.0828621,0.007207067335220667,0.0017258023196122085,0.07048858226905466,0.014784093695454999,0.0376327833431776,0.011829775548083104,0.06873300898486472,0.007945976446950023
0.0833276,0.00721394375833817,0.0017225114142554452,0.07093627241173303,0.014758047796359345,0.037649613890539634,0.011788232489130726,0.0689193145667329,0.007990287884838526
0.0837931,0.007220084040839798,0.0017193149111276128,0.07138213086537498,0.014730903271144714,0.037665179034307585,0.011745659574219306,0.0691013583580636,0.008035504018222627
0.0842586,0.007225482380247979,0.0017162171788078363,0.07182609607796799,0.014702674468867265,0.0376795017935086,0.011702070253586867,0.06927918291876513,0.008081637632412035
0.0847241,0.007230133060360854,0.001713222600563884,0.07226810613618166,0.01467337597285568,0.03769260500283533,0.01165747816856154,0.06945283060129226,0.008128701292878612
0.0851897,0.007234030454659789,0.001710335573424292,0.07270809878145548,0.01464302259786411,0.037704511302698994,0.011611897146547812,0.06962234354029179,0.008176707340435192
0.0856552,0.0072371690297532,0.0017075605072395497,0.07314601142648247,0.0146116293871238,0.03771524312945777,0.011565341195974048,0.06978776364239689,0.00822566788649264
0.0861207,0.0072395433488553216,0.0017049018237323696,0.07358178117208486,0.014579211609293933,0.03772482270582359,0.011517824501204723,0.06994913257617139,0.008275594808396968
0.0865862,0.007241148075298481,0.0017023639555371094,0.07401534482447755,0.014545784755312147,0.03773327203145017,0.011469361417420738,0.07010649176220646,0.008326499744848252
0.0870517,0.0072419779760773935,0.0016999513452284267,0.07444663891291432,0.0145113645351453,0.0377406128737052,0.0114199664654711,0.07025988236337306,0.008378394091403143
0.0875172,0.007242027925423931,0.0016976684443392787,0.0748755997077115,0.014475966874441025,0.03774686675862938,0.01136965432669926,0.07040934527523499,0.008431288996062719
0.0879828,0.007241292908410828,0.001695519712368396,0.07530216323864296,0.014439607911080678,0.03775205496208505,0.011318439837747328,0.07055492111662838,0.008485195354947402
0.0884483,0.007239768024582737,0.0016935096157773704,0.07572626531369996,0.0144023039916344,0.03775619850109743,0.011266337985341313,0.0706966502204144,0.008540123808060646
0.0889138,0.007237448491613057,0.0016916426269775022,0.0761478415382082,0.014364071667719079,0.037759318125391496,0.01121336390106046,0.07083457262441151,0.008596084735143106
0.0893793,0.007234329648984966,0.0016899232233065344,0.07656682733429421,0.014324927692260191,0.03776143430912787,0.011159532856093687,0.0709687280625144,0.008653088251618963
0.0898448,0.007230406961695057,0.001688355885995413,0.07698315796069255,0.01428488901565851,0.037762567242841376,0.011104860255986098,0.07109915595600602,0.008711144204636045
0.0903103,0.007225676023978032,0.0016869450991252072,0.07739676853288442,0.01424397278186286,0.03776273682558591,0.011049361635378353,0.0712258954050692,0.008770262169201385
0.0907759,0.007220132563050817,0.0016856953485743307,0.07780759404355772,0.014202196324350262,0.037761962657289656,0.010993052652741683,0.0713489851805052,0.008830451444413844
0.0912414,0.00721377244287452,0.0016846111209562105,0.0782155693833779,0.014159577162014943,0.03776026403132459,0.010935949085111208,0.07146846371566598,0.008891721049795387
0.0917069,0.007206591667932604,0.001683696902547551,0.07862062936205873,0.014116132994967901,0.03775765992729442,0.010878066822820097,0.0715843690986085,0.00895407972172262
0.0921724,0.007198586387023624,0.0016829571782073503,0.07902270872972099,0.014071881700248869,0.037754169004045,0.010819421864237093,0.07169673906447942,0.009017535909960158
0.0926379,0.007189752897066901,0.001682396430286821,0.079421742198527,0.014026841327452697,0.037749809592901404,0.010760030310509754,0.07180561098813874,0.00908209777429737
0.0931034,0.007180087646919501,0.0016820191375303674,0.07981766446457822,0.013981030094272437,0.03774459969113587,0.010699908360315777,0.07191102187703133,0.009147773181290043
0.093569,0.007169587241202891,0.0016818297739677641,0.0802104102300626,0.01393446638196156,0.037738556955670605,0.010639072304624648,0.07201300836431443,0.00921456970110845
0.0940345,0.0071582484441376285,0.0016818328077976687,0.0805999142256382,0.013887168730717927,0.03773169869701965,0.010577538521471839,0.07211160670224954,0.00928249460449328
0.0945,0.007146068183384476,0.001682032700262594,0.08098611123303841,0.01383915583499226,0.03772404187347372,0.010515323470747687,0.072206852755866,0.009351554859820897
0.0949655,0.0071330435538902795,0.0016824339045154683,0.08136893610788418,0.013790446538724018,0.03771560308553174,0.010452443689003036,0.07229878199690319,0.00942175713027925
0.095431,0.007119171821736998,0.0016830408644778964,0.0817483238026877,0.013741059830507598,0.037706398570582784,0.010388915784273636,0.07238742949803811,0.009493107771155862
0.0958966,0.007104450427992249,0.0016838580136902548,0.0821242093900317,0.01369101483869179,0.03769644419784145,0.010324756430925331,0.07247282992740382,0.009565612827239134
0.0963621,0.007088876992559732,0.0016848897741537532,0.08249652808590764,0.013640330826415439,0.03768575546353989,0.010259982364521976,0.07255501754340467,0.009639278030334254
0.0968276,0.007072449318027969,0.001686140555164608,0.08286521527319603,0.013589027186582146,0.037674347486379337,0.010194610376717999,0.07263402618983288,0.009714108796894811
0.0972931,0.007055165393515872,0.0016876147521404643,0.08323020652527113,0.013537123436776752,0.03766223500324388,0.010128657310177503,0.07270988929129078,0.009790110225771243
0.0977586,0.007037023398513694,0.0016893167454392207,0.08359143762971213,0.013484639214126352,0.037649432365179064,0.010062140053521698,0.07278263984892253,0.009867287096077131
0.0982241,0.007018021706718025,0.001691250899170397,0.08394884461210207,0.01343159427010836,0.037635953533637904,0.009995075536306448,0.07285231043645829,0.009945643865174315
0.0986897,0.006998158889859562,0.0016934215599991782,0.08430236375989542,0.013378008465308197,0.03762181207699669,0.00992748072403163,0.07291893319657379,0.010025184666777737
0.0991552,0.006977433721522444,0.0016958330559432616,0.08465193164633437,0.013323901764128931,0.037607021167342845,0.009859372613183967,0.07298253983756682,0.010105913309180852
0.0996207,0.006955845180954029,0.0016984896951626333,0.08499748515439355,0.013269294229455296,0.03759159357753696,0.009790768226314913,0.07304316163035225,0.010187833273602391
0.1000862,0.00693339245686403,0.001701395764742372,0.08533896150073138,0.01321420601727434,0.037575541678550824,0.009721684607155152,0.0731008294057763,0.010270947712655165
0.1005517,0.006910074951212021,0.0017045555294685807,0.08567629825962671,0.013158657371254887,0.03755887743708303,0.009652138815767168,0.07315557355225012,0.01035525944893755
0.1010172,0.006885892282982341,0.0017079732305975352,0.08600943338687844,0.01310266861728795,0.0375416124134535,0.009582147923737348,0.07320742401370227,0.010440770973748226
0.1014828,0.006860844291945485,0.0017116530846181287,0.08633830524364518,0.013046260157990219,0.03752375775977808,0.009511729009408975,0.07325641028784868,0.010527484445924641
0.1019483,0.00683493104240512,0.0017155992820077081,0.08666285262020215,0.0129894524671726,0.03750532421842387,0.009440899153157503,0.07330256142477852,0.010615401690805649
0.1024138,0.006808152826929876,0.0017198159859814052,0.08698301475959268,0.012932266084275848,0.03748632212074602,0.00936967543270936,0.07334590602585328,0.010704524199318683
0.1028793,0.0067805101700690856,0.0017243073312351006,0.08729873138115109,0.012874721608775178,0.03746676138610631,0.00929807491850553,0.07338647224291629,0.010794853127191723
0.1033448,0.006752003832051645,0.0017290774226821955,0.08760994270387489,0.012816839694555798,0.037446651521173595,0.009226114669111078,0.07342428777780863,0.01088638929429028
0.1038103,0.006722634812467171,0.0017341303341844173,0.0879165894696238,0.012758641044261238,0.03742600161950631,0.009153811726671793,0.0734593798821871,0.010979133184079538
0.1042759,0.006692404353928624,0.001739470107276925,0.08821861296612461,0.012700146403616422,0.03740482036141676,0.009081183112419101,0.07349177535763936,0.0110730849432117
0.1047414,0.006661313945715541,0.0017451007498880213,0.08851595504976084,0.01264137655572737,0.03738311601411709,0.009008245822224438,0.07352150055609022,0.011168244381238526
0.1052069,0.006629365327396949,0.0017510262350538019,0.08880855816812766,0.01258235231535947,0.03736089643214644,0.008935016822204307,0.07354858138049333,0.011264610970449056
0.1056724,0.006596560492433045,0.0017572504996280819,0.08909636538233325,0.01252309452319632,0.037338169058078914,0.008861513044377241,0.0735730432858009,0.01136218384583235
0.1061379,0.006562901691754631,0.0017637774429879378,0.08937932038902892,0.012463624040081207,0.0373149409235117,0.008787751382373818,0.07359491128020398,0.011460961805165083
0.1066034,0.006528391437319284,0.0017706109257352074,0.08965736754215071,0.012403961741243273,0.037291218650332796,0.00871374868720093,0.0736142099266352,0.01156094330922374
0.107069,0.00649303250564313,0.0017777547683942793,0.08993045187435646,0.01234412851051052,0.037267008452267734,0.008639521763061517,0.07363096334452486,0.011662126482121084
0.1075345,0.006456827941307125,0.0017852127501065147,0.09019851911814183,0.012284145234511795,0.03724231613670456,0.008565087363231009,0.07364519521180103,0.011764509111766517
0.108,0.00641978106043665,0.0017929886073216577,0.09046151572661998,0.012224032796869929,0.037217147106796265,0.008490462185991712,0.07365692876712342,0.011868088650449884
0.1084655,0.00638189545415323,0.0018010860324866082,0.09071938889394855,0.01216381207238821,0.03719150636383968,0.008415662870626435,0.07366618681234023,0.011972862215548274
0.108931,0.006343174991997161,0.0018095086727319613,0.09097208657538876,0.01210350392123234,0.03716539850992975,0.008340705993472511,0.07367299171515689,0.012078826590355314
0.1093966,0.0063036238253198216,0.0018182601285567433,0.09121955750698132,0.012043129183110067,0.037138827750887816,0.008265608064037446,0.07367736541200454,0.012185978225032399
0.1098621,0.006263246390644511,0.0018273439525117922,0.09146175122482607,0.011982708671450583,0.037111797899462534,0.00819038552117724,0.07367932941109666,0.01229431323768134
0.1103276,0.006222047412994671,0.0018367636478822534,0.09169861808395406,0.011922263167585875,0.037084312378801984,0.008115054729338423,0.07367890479566197,0.012403827415537841
0.1107931,0.0061800319091884015,0.0018465226673696847,0.09193010927678351,0.011861813414936142,0.03705637422619494,0.008039631974864769,0.07367611222734222,0.012514516216285231
0.1112586,0.006137205191098213,0.0018566244117742832,0.09215617685115345,0.01180138011320147,0.0370279860970793,0.007964133462369585,0.07367097194974427,0.012626374769487745
0.1117241,0.006093572868874986,0.0018670722286777612,0.09237677372793242,0.011740983912561929,0.03699915026931532,0.007888575311174458,0.07366350379213707,0.012739397878142676
0.1121897,0.0060491408541350844,0.001877869411127399,0.09259185371820089,0.011680645407888256,0.0369698686477211,0.007812973551815212,0.07365372717328467,0.01285358002035058
0.1126552,0.006003915363109613,0.00188901919632181,0.09280137154000863,0.011620385132965221,0.036940142768867645,0.007737344122615882,0.0736416611054074,0.012968915351102691
0.1131207,0.00595790291975478,0.0019005247642989553,0.09300528283470962,0.011560223554729835,0.03690997380613073,0.007661702866331358,0.07362732419826366,0.013085397704184588
0.1135862,0.005911110358822331,0.0019123892366269331,0.09320354418287773,0.011500181067526446,0.03687936257499686,0.007586065526859387,0.07361073466334513,0.013203020594195222
0.1140517,0.005863544828888998,0.001924615675098084,0.09339611311980694,0.011440277987380799,0.0368483095386204,0.007510447746022549,0.073591910318179,0.013321777218680388
0.1145172,0.005815213795343887,0.0019372070804269535,0.09358294815060023,0.011380534546295078,0.03681681481362906,0.007434865060420738,0.07357086859073173,0.013441660460379824
0.1149828,0.005766125043332664,0.0019501663909526662,0.09376400876485158,0.01132097088656587,0.036784878176174776,0.007359332898354691,0.0735476265239104,0.01356266288958723
0.1154483,0.005716286680657414,0.0019634964813462622,0.09393925545092531,0.011261607055126948,0.03675249906822698,0.007283866576820989,0.07352220078015897,0.013684776766622673
0.1159138,0.0056657071406309685,0.001977200161323559,0.09410864970983635,0.011202462997918751,0.03671967660410529,0.0072084812985789256,0.07349460764614801,0.013807994044416986
0.1163793,0.005614395184884477,0.0019912801743640963,0.0942721540687357,0.011143558554286418,0.03668640957724838,0.007133192149289553,0.07346486303755737,0.01393230637120786
0.1168448,0.005562359906126961,0.002005739196436723,0.09442973209400414,0.011084913451408196,0.03665269646721561,0.0070580140947271814,0.0734329825039513,0.014057705093347379
0.1173103,0.0055096107308555305,0.00202057983473237,0.09458134840395661,0.01102654729875604,0.036618535446917976,0.00698296197806351,0.0733989812337466,0.014184181258220796
0.1177759,0.005456157422014932,0.002035804626404543,0.0947269686811595,0.010968479582590231,0.03658392439007427,0.006908050517224526,0.07336287405927396,0.014311725617276215
0.1182414,0.005402010081605033,0.0020514160373180774,0.09486655968436211,0.010910729660489797,0.0365488608788886,0.006833294302320249,0.07332467546193386,0.014440328629164787
0.1187069,0.005347179153234832,0.0020674164608066774,0.09500008926004355,0.010853316755920581,0.036513342211944605,0.006758707793147339,0.07328439957744777,0.014569980462990986
0.1191724,0.005291675424621558,0.0020838082164397844,0.09512752635357517,0.010796259952842809,0.03647736541231169,0.006684305316764524,0.07324206020120601,0.014700671001672388
0.1196379,0.005235510030033445,0.0021005935487993154,0.09524884101999954,0.01073957819036009,0.03644092723585842,0.006610101065140724,0.07319767079371306,0.014832389845408382
0.1201034,0.005178694452674735,0.0021177746262668277,0.09536400443442575,0.010683290257411842,0.03640402417976778,0.006536109092875721,0.073151244486131,0.014965126315257184
0.120569,0.005121240527011511,0.0021353535398216587,0.09547298890204138,0.010627414787511206,0.03636665249124882,0.006462343314993157,0.07310279408592117,0.015098869456820437
0.1210345,0.005063160441036941,0.0021533323018506044,0.0955757678677411,0.010571970253530535,0.03632880817643898,0.006388817504805576,0.07305233208258408,0.015233608044034648
0.1215,0.005004466738474578,0.0021717128449696907,0.09567231592537201,0.010516974962536538,0.03629048700949099,0.006315545291851191,0.07299987065349728,0.015369330583068608
0.1219655,0.004945172320918389,0.0021904970208586035,0.09576260882659608,0.010462447050677174,0.03625168454183814,0.006242540159902016,0.07294542166985055,0.015506025316325844
0.122431,0.004885290449908197,0.0022096865991083486,0.09584662348936986,0.010408404478122388,0.03621239611163126,0.006169815445042944,0.07288899670267768,0.015643680226551125
0.1228966,0.00482483474893928,0.0022292832660827226,0.09592433800604241,0.010354865024060753,0.036172616853340445,0.006097384333821321,0.07283060702898449,0.01578228304103988
0.1233621,0.004763819205404836,0.002249288623794182,0.09599573165107222,0.010301846281754103,0.03613234170751464,0.006025259861466507,0.07277026363797201,0.015921821235949356
0.1238276,0.00470225817247008,0.0022697041887946973,0.09606078488836371,0.010249365653652233,0.036091565430691586,0.005953454910178933,0.07270797723735457,0.01606228204071027
0.1242931,0.004640166370876691,0.0022905313910821755,0.09611947937822439,0.010197440346569695,0.036050282605450526,0.005881982207488082,0.07264375825977223,0.01620365244253766
0.1247586,0.004577558890676358,0.0023117715730230303,0.09617179798394342,0.010146087366926715,0.036008487650600184,0.0058108543246788175,0.07257761686929726,0.01634591919103955
0.1252241,0.00451445119289215,0.0023334259882914613,0.09621772477799194,0.0100953235160562,0.03596617483149423,0.005740083675285417,0.07250956296803376,0.01648906880292195
0.1256897,0.004450859111106411,0.0023554958008259975,0.09625724504784598,0.010045165385578772,0.03592333827046671,0.005669682513652704,0.07243960620280936,0.01663308756678881
0.1261552,0.004386798852973859,0.0023779820838038456,0.09629034530143264,0.009995629352847663,0.035879971957380005,0.00559966293356358,0.07236775597195713,0.0167779615480353
0.1266207,0.0043222870016585355,0.0024008858186335873,0.09631701327220075,0.009946731576465266,0.03583606976027825,0.005530036866932216,0.07229402143218576,0.01692367659383291
0.1270862,0.004257340517193197,0.0024242078939667564,0.09633723792381743,0.009898487991873062,0.035791625436139195,0.005460816082562203,0.07221841150553514,0.01707021833820476
0.1275517,0.00419197673775975,0.0024479491047288498,0.0963510094544922,0.009850914307016576,0.035746632641717804,0.005392012184968838,0.07214093488641456,0.01721757220718943
0.1280172,0.004126213380889262,0.002472110151170337,0.09635831930093001,0.009804025998087005,0.0357010849444749,0.005323636613264752,0.07206160004872032,0.017365723424091605
0.1284828,0.004060068544580074,0.0024966916379382574,0.09635916014191473,0.009757838305341054,0.03565497583358424,0.005255700640108016,0.07198041525302921,0.017514657014817914
0.1289483,0.003993560708332505,0.002521694073169023,0.09635352590152363,0.009712366229000556,0.0356082987310115,0.005188215370711844,0.0718973885538646,0.017664357813296092
0.1294138,0.003926708734098623,0.0025471178676030643,0.09634141175197372,0.009667624525233405,0.035561047002658525,0.005121191741914995,0.07181252780703183,0.017814810466975774
0.1298793,0.0038595318671455184,0.0025729633337219656,0.09632281411609911,0.00962362770221732,0.03551321396956659,0.005054640521311939,0.07172584067701968,0.017965999442409123
0.1303448,0.0037920497368304925,0.0025992306849087423,0.09629773066945947,0.009580390016287941,0.03546479291917223,0.004988572306441858,0.07163733464446465,0.01811790903090954
0.1308103,0.00372428235728656,0.0026259200346319222,0.09626616034207855,0.009537925468172772,0.035415777116609676,0.0049229975240355755,0.07154701701367498,0.018270523354286573
0.1312759,0.0036562501280166253,0.0026530313956541272,0.09622810331981184,0.009496247799312473,0.03536615981605368,0.004857926429319476,0.0714548949202109,0.018423826370655146
0.1317414,0.0035879738343947056,0.002680564679265871,0.09618356104534216,0.00945537048827099,0.03531593427209694,0.004793369105375531,0.07136097533851803,0.018577801880317175
0.1322069,0.0035194746480725486,0.0027085196945453335,0.09613253621880172,0.009415306747235954,0.03526509375115604,0.004729335462556519,0.07126526508961074,0.018732433531713565
0.1326724,0.003450774127290012,0.002736896147644909,0.09607503279801886,0.00937606951861073,0.03521363154289972,0.0046658352379555556,0.07116777084880246,0.018887704827444483
0.1331379,0.0033818942170875804,0.0027656936411053286,0.09601105599838748,0.009337671471699477,0.03516154097169364,0.004602877994929033,0.07106849915347958,0.019043599130355686
0.1336034,0.0033128572494194423,0.0027949116731982066,0.09594061229235654,0.009300124999486471,0.03510881540805522,0.00454047312267207,0.07096745641091586,0.019200099669688612
0.134069,0.0032436859431655917,0.0028245496372978304,0.09586370940853753,0.009263442215510913,0.035055448280112866,0.004478629835845557,0.07086464890612325,0.01935718954729182
0.1345345,0.0031744034040414645,0.002854606821283046,0.09578035633042754,0.009227634950838318,0.0350014330850636,0.004417357174253894,0.07076008280973599,0.01951485174389121
0.135,0.0031050331244037175,0.002885082406970092,0.09569056329474634,0.00919271475112956,0.03494676340062371,0.004356664002572524,0.07065376418592373,0.01967306912541634
0.1354655,0.003035598982950823,0.0029159754695772156,0.09559434178938574,0.009158692873808529,0.03489143289646689,0.004296559010124408,0.07054569900032982,0.01983182444938014
0.135931,0.0029661252443172487,0.002947284977221912,0.09549170455096996,0.009125580285329287,0.034835435345644816,0.004237050710704563,0.07043589312803038,0.01999110037130934
0.1363966,0.00289663655856004,0.0029790097904515986,0.09538266556202561,0.009093387658543589,0.03477876463598513,0.004178147442451844,0.07032435236150966,0.020150879451223003
0.1368621,0.002827157960536642,0.003011148661808538,0.09526724004775938,0.009062125370169465,0.034721414781462054,0.004119857367767107,0.07021108241864714,0.020311144160156728
0.1373276,0.0027577148691728015,0.003043700235429799,0.095145444472442,0.009031803498361595,0.03466337993353507,0.004062188473276909,0.07009608895071177,0.020471876886730273
0.1377931,0.0026883330866193903,0.003076663046683034,0.09501729653539667,0.009002431820384082,0.03460465439245101,0.004005148569841925,0.0699793775503593,0.020633059943756603
0.1382586,0.002619038797296961,0.003110035521838863,0.09488281516659125,0.008974019810386202,0.03454523261850511,0.003948745292609239,0.06986095375962799,0.020794675574890405
0.1387241,0.0025498585668268466,0.003143815977780619,0.09474202052183373,0.008946576637281628,0.034485109243256644,0.0038929861011077244,0.06974082307792889,0.020956705961314246
0.1391897,0.0024808193408475897,0.0031780026217522084,0.09459493397757217,0.008920111162731574,0.034424279080694745,0.003837878279385734,0.0696189909700259,0.021119133228460627
0.1396552,0.0024119484437154877,0.0032125935511448244,0.09444157812530116,0.008894631939232294,0.03436273713835021,0.003783428936190359,0.06949546287400084,0.02128193945276816
0.1401207,0.00234327357708805,0.0032475867533232295,0.09428197676557927,0.008870147208307312,0.03430047862834911,0.0037296450051875537,0.06937024420919834,0.021445106668470073
0.1405862,0.0022748228183891712,0.0032829801054922963,0.09411615490166314,0.008846664898804759,0.034237498978404106,0.0036765332452224297,0.06924334038414466,0.021608616874413122
0.1410517,0.002206624619154846,0.0033187713746044793,0.09394413873276518,0.008824192625300159,0.03417379384273944,0.003624100240619061,0.0691147568044341,0.02177245204090486
0.1415172,0.0021387078032582777,0.003354958217308868,0.0937659556469436,0.008802737686605009,0.034109359112945596,0.0035723524015191335,0.0689844988805765,0.02193659411658695
0.1419828,0.002071101565013253,0.0033915381799424636,0.09358163421363391,0.008782307064381493,0.03404419092875944,0.0035212959642587716,0.06885257203579867,0.02210102503533226
0.1424483,0.002003835467154655,0.003428508698564312,0.09339120417583228,0.008762907421863616,0.03397828568876581,0.0034709369917828824,0.06871898171379236,0.022265726723163216
0.1429138,0.0019369394386949928,0.0034658670990331086,0.09319469644194123,0.008744545102685068,0.03391164006101622,0.003421281374096322,0.06858373338640099,0.022430681105188754
0.1433793,0.0018704437726558077,0.0035036105971289013,0.09299214307728867,0.008727226129814122,0.03384425099356039,0.0033723348287511903,0.06844683256123703,0.022595870112557197
0.1438448,0.0018043791236728322,0.0035417362987195246,0.09278357729533102,0.00871095620459577,0.03377611572488656,0.0033241029013695283,0.0683082847892212,0.022761275689422166
0.1443103,0.0017387765054737523,0.003580241199972394,0.09256903344855061,0.008695740705901301,0.03370723179426626,0.0032765909662006753,0.06816809567203484,0.022926879799918833
0.1447759,0.0016736672882274313,0.003619122187612297,0.09234854701905766,0.008681584689385456,0.03363759705199965,0.003229804226712522,0.06802627086947642,0.02309266443514757
0.1452414,0.0016090831957634544,0.003658376039225816,0.09212215460890574,0.008668492886851207,0.033567209669557334,0.00318374771621587,0.06788281610671268,0.02325861162016224
0.1457069,0.0015450563026608688,0.003697999423613025,0.09188989393012965,0.008656469705722187,0.03349606814961446,0.0031384262985210873,0.06773773718141514,0.023424703420960223
0.1461724,0.0014816190312050145,0.0037379889011870788,0.0916518037945136,0.008645519228622703,0.033424171335972766,0.003093844668626252,0.06759103997077247,0.023590921951471323
0.1466379,0.0014188041482113695,0.0037783409244223232,0.0914079241030975,0.008635645213065195,0.033351518423366276,0.0030500073534359294,0.06744273043836939,0.023757249380542633
0.1471034,0.0013566447617153682,0.0038190518383515383,0.09115829583542846,0.008626851091244997,0.03327810896714605,0.0030069187125097542,0.06729281464092322,0.02392366793891642
0.147569,0.00129517431752718,0.003860117881112913,0.090902961038564,0.008619139969942168,0.0332039428928397,0.0029645829388399896,0.06714129873486986,0.024090159926197893
0.1480345,0.0012344265956504474,0.003901535184547316,0.09064196281583316,0.008612514630530133,0.033129020505581294,0.0029230040596572157,0.06698818898279092,0.02425670771780971
0.1485,0.0011744357065640002,0.003943299774846423,0.09037534531536094,0.008606977529090844,0.03305334249940758,0.0028821859372633214,0.06683349175967453,0.02442329377192984
0.1489655,0.0011152360873655533,0.003985407573252217,0.09010315371836063,0.008602530796636101,0.03297690996641627,0.002842132269890968,0.06667721355900243,0.02458990063640928
0.149431,0.0010568624977764112,0.004027854396808364,0.08982543422719783,0.00859917623943467,0.03289972440578266,0.0028028465925886994,0.066519360998657,0.024756510955665997
0.1498966,0.000999350016006214,0.004070635959163938,0.08954223405322959,0.008596915339444792,0.0328217877326302,0.002764332278130862,0.06635994082664211,0.0249231074775513
0.1503621,0.0009427340344768027,0.004113747871429963,0.08925360140442132,0.008595749254851641,0.03274310228675102,0.0027265925379514992,0.06619895992661204,0.025089673060184777
0.1508276,0.0008870502554043301,0.004157185643089204,0.08895958547274355,0.00859567882070925,0.03266367084117213,0.002689630423101408,0.06603642532320315,0.025256190678753836
0.1512931,0.000832334686238791,0.004200944682959651,0.0886602364213501,0.00859670454968635,0.03258349661056278,0.0026534488252275357,0.06587234418716255,0.025422643432273954
0.1517586,0.0007786236349601949,0.004245020300212112,0.08835560537153875,0.008598826632915573,0.03250258325947871,0.0026180504775739333,0.0657067238402682,0.02558901455030565
0.1522241,0.0007259537052306282,0.004289407705442348,0.08804574438949529,0.008602044940945323,0.03242093491043896,0.0025834379560034904,0.06553957176003569,0.025755287399624432
0.1526897,0.0006743617914014765,0.004334102011798207,0.08773070647282093,0.008606359024793663,0.03233855615183083,0.0025496136800397225,0.06537089558420758,0.025921445490840158
0.1531552,0.0006238850733750833,0.004379098236162188,0.08741054553684273,0.008611768117103428,0.03225545204563934,0.002516579913927914,0.06520070311502195,0.0260874724849623
0.1536207,0.0005745610113201316,0.004424391300389918,0.08708531640070635,0.00861827113339779,0.032171628134997604,0.0024843387677149723,0.0650290023232583,0.02625335219990822
0.1540862,0.0005264273402400401,0.004469976032605026,0.08675507477325006,0.008625866673435387,0.03208709045155513,0.0024528921983474044,0.06485580135206015,0.026419068616951674
0.1545517,0.0004795220643936791,0.0045158471685509205,0.08641987723865906,0.00863455302266417,0.0320018455226615,0.002422242010786874,0.06468110852053441,0.026584605887108988
0.1550172,0.00043388345156774645,0.004561999353000047,0.08607978124189891,0.00864432815377303,0.03191590037836322,0.0023923898591428276,0.06450493232712827,0.026749948337460718
0.1554828,0.000389550027200198,0.004608427141221184,0.0857348450739278,0.00865518972834025,0.031829262558212036,0.0023633372478217055,0.06432728145278506,0.026915080477406615
0.1559483,0.00034656056835419605,0.004655125000505377,0.0853851278566868,0.008667135098577826,0.03174194011788284,0.0023350855326922334,0.06414816476388116,0.027079987004851806
0.1564138,0.00030495409754212425,0.0047020873117511455,0.08503068952786814,0.008680161309170636,0.031653941635599585,0.002307635922266296,0.0639675913149467,0.027244652812322055
0.1568793,0.00026476987639929844,0.004749308371109541,0.08467159082546177,0.008694265099209413,0.03156527621836719,0.0022809894788948775,0.06378557035117388,0.02740906299300598
0.1573448,0.00022604739920707896,0.00479678239168969,0.08430789327208134,0.008709442904216429,0.03147595350800757,0.002255147119978534,0.06360211131071793,0.02757320284672188
0.1578103,0.00018882638626516022,0.004844503505325378,0.08393965915907105,0.008725690858262795,0.03138598368699768,0.002230109619191868,0.06341722382679611,0.02773705788580701
0.1582759,0.00015314677711288029,0.004892465764403251,0.08356695153039558,0.008743004796176195,0.03129537748410755,0.0022058776077214536,0.0632309177295911,0.02790061384092701
0.1587414,0.0001190487235994628,0.004940663143753155,0.08318983416631598,0.008761380255837819,0.03120414617983637,0.002182451575516649,0.06304320304796504,0.028063856666803423
0.1592069,8.657258280317647e-05,0.004989089542601121,0.0828083715668551,0.008780812480567269,0.0311123016116448,0.002159831872552746,0.06285409001099115,0.028226772547857455
0.1596724,5.575890979947221e-05,0.005037738786585484,0.08242262893505674,0.008801296421594095,0.031019856178981554,0.0021380187101058914,0.06266358904930888,0.028389347903768646
0.1601379,2.6648450278232326e-05,0.005086604629836585,0.08203267216004324,0.008822826740614584,0.030926822848102314,0.0021170121620392502,0.06247171079630903,0.028551569394947424
0.1606034,-7.178669896690358e-07,0.005135680757120465,0.08163856779987644,0.008845397812432444,0.030833215156678688,0.0020968121660999038,0.06227846608915446,0.028713423927920798
0.161069,-2.6298937836246553e-05,0.005184960786046973,0.08124038306422661,0.008869003727681941,0.03073904721819493,0.0020774185252260113,0.062083865969641785,0.028874898660630664
0.1615345,-5.005349053044203e-05,0.005234438269342637,0.08083818579685424,0.008893638295632047,0.03064433372613006,0.002058830908863816,0.061887921684909065,0.029035981007644217
0.162,-7.194009376201057e-05,0.005284106697188683,0.08043204445790852,0.008919295047070099,0.03054908995792317,0.002041048854294114,0.06169064468799398,0.029196658645275774
0.1624655,-9.19171647749226e-05,0.005333959499624524,0.08002202810604625,0.008945967237263514,0.03045333177871992,0.0020240717679678704,0.061492046638246756,0.02935691951661946
0.162931,-0.00010994297764993125,0.005383990049017048,0.07960820638037466,0.00897364784899803,0.03035707564489859,0.002007898926850718,0.06129213940160159,0.02951675183649208
0.1633966,-0.00012597567173594184,0.005434191662596005,0.07919064948222193,0.00900232959569093,0.0302603386073741,0.0019925294797761024,0.061090935050709845,0.02967614409628544
0.1638621,-0.00013997326022980973,0.005484557605055787,0.07876942815673964,0.009032004924577737,0.03016313831467849,0.001977962448806887,0.06088844586493779,0.029835085068727448
0.1643276,-0.00015189363890418117,0.005535081091223904,0.07834461367434288,0.00906266601997087,0.030065493015816406,0.0019641967306052136,0.06068468433023117,0.029993563812551215
0.1647931,-0.00016169459498297306,0.005585755288796402,0.0779162778119944,0.009094304806588826,0.02996742156289399,0.0019512310978104395,0.0604796631388486,0.030151569677071582
0.1652586,-0.0001693338161640531,0.005636573321140504,0.07748449283434058,0.009126912952954438,0.029868943413519804,0.001939064200424946,0.06027339518896505,0.030309092306668537
0.1657241,-0.0001747688997886257,0.005687528270164711,0.07704933147470774,0.009160481874860833,0.029770078632976465,0.0019276945672076205,0.06006589358414651,0.030466121645176966
0.1661897,-0.00017795736215675008,0.005738613179256567,0.07661086691596679,0.009195002738903758,0.02967084789616198,0.0019171206070748023,0.05985717163269642,0.030622647940182258
0.1666552,-0.0001788566479883137,0.005789821056288282,0.0761691727712749,0.00923046646607888,0.029571272489299923,0.00190734061050849,0.059647242846874185,0.030778661747221155
0.1671207,-0.00017742414002866211,0.005841144876690363,0.07572432306470209,0.009266863735442643,0.029471374311417914,0.0018983527509715942,0.0594361209419859,0.030934153933887248
0.1675862,-0.00017361716879794422,0.00589257758659338,0.07527639221175032,0.009304184987835234,0.02937117587559401,0.0018901550863300155,0.05922381983534737,0.031089115683840426
0.1680517,-0.00016739302248308029,0.005944112106037936,0.07482545499977267,0.009342420429664117,0.029270700309970803,0.0018827455602813277,0.05901035364511932,0.031243538500719457
0.1685172,-0.0001587089569711104,0.005995741332252894,0.07437158656829973,0.009381560036746542,0.02916997135853704,0.0018761220037898268,0.05879573668901497,0.03139741421195675
0.1689828,-0.000147522206022545,0.0060474581430018486,0.07391486238928072,0.00942159355820938,0.02906901338167659,0.0018702821365277058,0.05857998348288059,0.031550734972494075
0.1694483,-0.0001337899915832261,0.006099255399997793,0.07345535824724607,0.009462510520444615,0.028967851356484577,0.00186522356832211,0.05836310873914961,0.031703493268397914
0.1699138,-0.00011746953423311747,0.0061511259523859,0.07299315021939844,0.00950430023111881,0.028866510876850375,0.0018609438006078076,0.05814512736517165,0.031855681920372775
0.1703793,-9.851806377036665e-05,0.006203062640294249,0.07252831465563866,0.009546951783234921,0.02876501815330712,0.0018574402278852184,0.05792605446141774,0.03200729408717069
0.1708448,-7.689282992891679e-05,0.006255058298452349,0.07206092815853302,0.009590454059244892,0.02866340001264709,0.001854710139183524,0.05770590531956349,0.032158323268894985
0.1713103,-5.255111322788932e-05,0.006307105759877205,0.07159106756322761,0.009634795735211575,0.028561683897302327,0.0018527507195285882,0.05748469542045171,0.032308763310196296
0.1717759,-2.5450235950915353e-05,0.006359197859626689,0.07111880991731657,0.009679965285018572,0.02845989786448948,0.0018515590514153965,0.05726244043193679,0.03245860840335889
0.1722414,4.452426746438352e-06,0.006411327438619887,0.07064423246067084,0.009725950984626678,0.028358070585117794,0.001851132116284718,0.057039156206612894,0.03260785309127501
0.1727069,3.719943560302769e-05,0.006463487347524082,0.0701674126052356,0.0097727409163756,0.028256231342458856,0.0018514667960036933,0.056814858779428476,0.03275649227030525
0.1731724,7.283327589417988e-05,0.006515670450707978,0.06968842791480546,0.009820322973329661,0.028154410030576824,0.0018525598743500283,0.05658956436518953,0.032904521193022514
0.1736379,0.00011139634595137866,0.006567869630260709,0.06920735608478727,0.0098686848636662,0.02805263715251762,0.0018544080384994782,0.05636328935595405,0.0330519354708371
0.1741034,0.00015293094556158922,0.0066200777900761575,0.06872427492196122,0.00991781411510549,0.02795094381825591,0.0018570078805162865,0.05613605031831991,0.033198731076500176
0.174569,0.00019747926424830173,0.006672287860002033,0.06823926232425143,0.009967698079381023,0.027849361742398826,0.0018603558988462526,0.05590786399060865,0.03334490434648248
0.1750345,0.0002450833694364587,0.006724492800053126,0.06775239626051668,0.010018323936749169,0.02774792324164561,0.0018644484998120887,0.055678747279947774,0.033490451983225374
0.1755,0.00029578519450352355,0.006776685604688106,0.06726375475037243,0.010069678700537226,0.027646661232002833,0.0018692819991107258,0.05544871725925468,0.033635371057260714
0.1759655,0.0003496265267190346,0.006828859307149203,0.0667734158440544,0.01012174922172897,0.027545609225754768,0.001874852623312225,0.055217791164125465,0.033779659009196356
0.176431,0.00040664899507507417,0.0068810069838640036,0.06628145760233421,0.010174522193586834,0.02744480132818887,0.0018811565113599326,0.054985986389632154,0.03392331365156387
0.1768966,0.0004668940580101689,0.0069331217589086,0.06578795807649654,0.01022798415630987,0.02734427223407623,0.0018881897160715107,0.05475332048703235,0.034066333170525445
0.1773621,0.0005304029910292356,0.006985196808531261,0.06529299528838742,0.01028212150172662,0.027244057223906756,0.0018959482056404603,0.05451981116039518,0.03420871612743704
0.1778276,0.0005972168742222886,0.0070372253657357674,0.06479664721054292,0.010336920478022005,0.02714419215987897,0.0019044278651377468,0.05428547626314783,0.03435046146026521
0.1782931,0.0006673765796847453,0.007089200724923463,0.06429899174640706,0.010392367194497314,0.027044713481644115,0.0019136244980131225,0.054050333794547295,0.0344915684848554
0.1787586,0.0007409227588422899,0.007141116246593085,0.06380010671064762,0.010448447626362312,0.026945658201804314,0.0019235338275957383,0.053814401896081346,0.034632036896049836
0.1792241,0.000817895829683376,0.007192965362097339,0.06330006980957768,0.010505147619558487,0.0268470639011642,0.0019341514985936337,0.05357769884780284,0.03477186676865319
0.1796897,0.000898335963902583,0.007244741578455167,0.06279895862169114,0.010562452895612402,0.026748968723735448,0.0019454730785916899,0.05334024306460149,0.034911058558244674
0.1801552,0.0009822830739581471,0.00729643848321859,0.0622968505783194,0.010620349056518201,0.02665141137149337,0.00195749405954763,0.053102053092416494,0.0350496131018354
0.1806207,0.0010697768000471047,0.007348049749392949,0.06179382294441664,0.010678821589648273,0.026554431098884872,0.0019702098592856527,0.052863147604393375,0.0351875316183698
0.1810862,0.0011608564970015608,0.007399569140409334,0.06128995279948094,0.010737855872691158,0.02645806770708692,0.0019836158229872775,0.05262354539698808,0.03532481570907005
0.1815517,0.0012555612211096797,0.007450990515147888,0.060785317018618244,0.01079743717861575,0.02636236153801471,0.001997707224678986,0.0523832653860212,0.03546146735762243
0.1820172,0.0013539297168650443,0.007502307833010671,0.06027999225375649,0.010857550680660884,0.026267353468078875,0.0020124792687162365,0.05214232660268485,0.03559748893020421
0.1824828,0.0014560004036480855,0.007553515159042656,0.059774054915016944,0.010918181457349352,0.026173084901690777,0.002027927091263438,0.05190074818950486,0.03573288317534957
0.1829483,0.0015618113623433049,0.007604606669099424,0.059267581152250004,0.010979314497525467,0.026079597764515003,0.002044045761769473,0.0516585493962607,0.035867653223652686
0.1834138,0.0016714003218960432,0.007655576655060031,0.05876064683674255,0.011040934705415175,0.02598693449646797,0.002060830284438384,0.05141574957586581,0.03600180258730603
0.1838793,0.001784804645812566,0.007706419530083472,0.058253327543103715,0.011103026905707844,0.02589513804446129,0.0020782755996948572,0.051172368180210814,0.0361353351594717
0.1843448,0.0019020613186072697,0.007757129833907164,0.05774569853133615,0.011165575848658883,0.025804251854888428,0.0020963765856441847,0.05092842475597294,0.03626825521348376
0.1848103,0.002023206932200851,0.007807702238185764,0.05723783472909938,0.011228566215212534,0.02571431986585306,0.0021151280595264146,0.05068393894039439,0.036400567401879635
0.1852759,0.002148277672273338,0.007858131551868625,0.05672981071417194,0.011291982622144267,0.025625386499137585,0.002134524779164437,0.050438930457033425,0.03653227675525892
0.1857414,0.0022773093045759443,0.007908412726614127,0.05622170069711886,0.01135580962722245,0.02553749665191013,0.002154561444405775,0.050193419111491416,0.03666338868096842
0.1862069,0.002410337161205771,0.00795854086223909,0.055713578504171024,0.01142003173438902,0.025450695688168296,0.0021752326985578466,0.049947424787119235,0.03679390896161243
0.1866724,0.002547396126847476,0.008008511212201395,0.055205517560322805,0.01148463339895904,0.02536502942991807,0.0021965331298164697,0.04970096744070585,0.036923843753387864
0.1871379,0.0026885206249860926,0.00805831918911387,0.05469759087265436,0.011549599032839022,0.02528054414808635,0.002218457272687399,0.04945406709815196,0.03705319958424412
0.1876034,0.0028337446040952972,0.008107960370287451,0.05418987101388498,0.011614913009763873,0.025197286553165776,0.0022409996094006727,0.049206743850130664,0.03718198335186782
0.188069,0.0029831015238055043,0.008157430503301588,0.05368243010616388,0.01168055967055227,0.02511530378559113,0.0022641545713175484,0.04895901784773729,0.037310202321492965
0.1885345,0.0031366243410562576,0.008206725511599794,0.05317533980510507,0.011746523328380234,0.025034643405847035,0.002287916540329823,0.04871090929812975,0.037437864123536946
0.189,0.003294345496237489,0.00825584150010821,0.052668671284072634,0.01181278827407257,0.024955353384307172,0.0023122798502513155,0.048462438460160635,0.03756497675106307
0.1894655,0.0034562968993243,0.008304774760875051,0.05216249521872297,0.011879338781411912,0.024877482090805734,0.0023372387882013026,0.048213625640002346,0.0376915485570702
0.189931,0.003622509916009989,0.00835352177872873,0.05165688177181035,0.011946159112465094,0.024801078283942086,0.0023627875959796956,0.04796449118676628,0.03781758825161033
0.1903966,0.003793015353842176,0.008402079236952494,0.05115190057826164,0.01201323352292651,0.0247261911001197,0.0023889204714337402,0.047715055488117296,0.03794310489873523
0.1908621,0.0039678434483669265,0.008450444022973375,0.05064762073052604,0.012080546267478206,0.02465287004232051,0.002415631569816032,0.04746533896588492,0.038068107913273155
0.1913276,0.004147023849285914,0.00849861323406322,0.05014411076420512,0.012148081605166294,0.02458116496861574,0.002442915005133641,0.04721536207167335,0.038192607057436816
0.1917931,0.0043305856066317,0.008546584183049545,0.049641438643968104,0.012215823804793262,0.02451112608041439,0.002470764851488156,0.04696514528247188,0.038316612437263954
0.1922586,0.004518557156966305,0.008594354404033873,0.04913967174975697,0.012283757150325694,0.02444280391045073,0.002499175144406476,0.046714709096268084,0.0384401344988916
0.1927241,0.004710966309608267,0.008641921658115196,0.04863887686328583,0.012351865946316749,0.024376249310512386,0.00252813988216221,0.046464074027665815,0.03856318402466564
0.1931897,0.0049078402328934,0.008689283939116145,0.04813912015483833,0.012420134523342728,0.024311513438911,0.0025576530270875687,0.04621326060351044,0.03868577212908747
0.1936552,0.005109205440474454,0.00873643947930937,0.04764046717036663,0.012488547243452929,0.024248647747697628,0.0025877085068756714,0.045962289358523506,0.03880791025460023
0.1941207,0.0053150877776648444,0.00878338675514166,0.04714298281889525,0.012557088505631916,0.02418770396962541,0.0026183002158732026,0.045711180830949244,0.03892961016721708
0.1945862,0.005525512407831603,0.008830124492953208,0.04664673136023269,0.012625742751273171,0.02412873410486231,0.002649422016363371,0.04545995555821565,0.039050883951994644
0.1950517,0.00574050379884268,0.008876651674689486,0.046151776392993234,0.01269449446966307,0.024071790407456783,0.00268106773983912,0.04520863407261284,0.039171744008354596
0.1955172,0.005960085709573692,0.00892296754360308,0.04565818084293114,0.012763328203474034,0.02401692537155948,0.002713231188266542,0.04495723689699154,0.039292203045256366
0.1959828,0.006184281176479271,0.008969071609942827,0.04516600695158903,0.012832228554265584,0.02396419171740412,0.0027459061353384572,0.04470578454048464,0.03941227407622383
0.1964483,0.006413112500234126,0.009014963656627567,0.04467531626526184,0.012901180187992032,0.02391364237705074,0.0027790863277181326,0.044454297494254766,0.039531970414228554
0.1969138,0.006646601232449067,0.009060643744901708,0.044186169624277315,0.012970167840515431,0.023865330479894316,0.002812765486273102,0.04420279622727088,0.03965130566643199
0.1973793,0.0068847681624672665,0.009106112219969863,0.04369862715259378,0.013039176323122367,0.02381930933794194,0.002846937307299057,0.04395130118211656,0.03977029372878867
0.1978448,0.007127633304246118,0.009151369716607691,0.04321274824771544,0.013108190528043084,0.023775632430861376,0.0028815954637337695,0.04369983277083266,0.03988894878051208
0.1983103,0.007375215883330112,0.009196417164746036,0.04272859157092508,0.01317719543397149,0.02373435339080387,0.0029167336063610177,0.043448411370796955,0.04000728527840482
0.1987759,0.007627534323920218,0.009241255795025397,0.04224621503783354,0.013246176111584476,0.023695525987003845,0.0029523453650045165,0.043197057320643446,0.04012531795105402
0.1992414,0.00788460623604531,0.009285887144317695,0.04176567580924527,0.01331511772905893,0.02365920411015803,0.0029884243497118566,0.04294579091622388,0.040243061792893255
0.1997069,0.008146448402841167,0.00933031306121226,0.041287030282338495,0.013384005557584837,0.02362544175658666,0.0030249641519284887,0.042694632406613454,0.04036053205813165
0.2001724,0.008413076767942689,0.009374535711462895,0.04081033408215856,0.01345282497687281,0.023594293012179156,0.0030619583456618325,0.042443601990162845,0.04047774425455115
0.2006379,0.00868450642299499,0.009418557583392813,0.040335642053422216,0.01352156148065435,0.023565812036127207,0.003099400488635612,0.04219271981059801,0.04059471413717274
0.2011034,0.008960751595289104,0.009462381493254292,0.03986300825263071,0.013590200682173087,0.023540053044448093,0.0031372841234345297,0.041942005953169104,0.040711457701792506
0.201569,0.009241825635528082,0.009506010590539807,0.03939248594048887,0.013658728319665272,0.02351707029330157,0.0031756027786394294,0.04169148044084944,0.04082799117838836
0.2020345,0.00952774100572931,0.009549448363241429,0.03892412757462717,0.013727130261827628,0.0234969180621039,0.003214349969953103,0.04144116323058533,0.04094433102439845
0.2025,0.009818509267268955,0.009592698643055281,0.03845798480262341,0.013795392513270765,0.023479650636442785,0.003253519201316949,0.0411910742095972,0.04106049391787206
0.2029655,0.010114141069074429,0.009635765610527805,0.037994108455320454,0.013863501219956165,0.02346532229079722,0.003293103966018756,0.040941233191732845,0.041176496750493896
0.203431,0.01041464613597082,0.00967865380014062,0.03753254854043589,0.013931442674614792,0.02345398727106648,0.003333097747791979,0.04069165991387328,0.04129235662048259
0.2038966,0.010720033257187187,0.00972136810533076,0.037073354236459966,0.013999203322145265,0.023445699776912535,0.003373494021906952,0.04044237403239209,0.04140809082536425
0.2043621,0.011030310275028592,0.009763913783443037,0.03661657388683773,0.01406676976498945,0.023440513943920462,0.0034142862562545066,0.04019339511966904,0.04152371685462191
0.2048276,0.011345484073719702,0.009806296460611277,0.03616225499443196,0.01413412876848323,0.023438483825581582,0.00345546791242252,0.03994474266065893,0.041639252382221964
0.2052931,0.011665560568425727,0.009848522136565157,0.03571044421626378,0.014201267266180142,0.023439663375104055,0.0034970324467658563,0.039696436049516434,0.04175471525901923
0.2057586,0.011990544694456404,0.00989059718935926,0.03526118735852817,0.01426817236514547,0.02344410642705571,0.0035389733114702068,0.03944849458627745,0.04187012350504286
0.2062241,0.012320440396658751,0.009932528380020938,0.03481452937188207,0.014334831351218208,0.023451866678843726,0.0035812839556102834,0.03920093747359758,0.04198549530166617
0.2066897,0.012655250619004197,0.009974322857113494,0.03437051434700277,0.014401231694238282,0.02346299767203588,0.0036239578262028233,0.038953783813547936,0.04210084898366416
0.2071552,0.012994977294375739,0.010015988161211135,0.03392918551041468,0.014467361053236222,0.023477552773528053,0.0036669883692548436,0.03870705260446828,0.04221620303116299
0.2076207,0.013339621334560788,0.010057532229282058,0.033490585220582375,0.014533207281582406,0.02349558515656268,0.003710369030807563,0.0384607627378774,0.04233157606148601
0.2080862,0.013689182620455306,0.010098963398975999,0.033054754964267914,0.014598758432092839,0.023517147781602823,0.0037540932579763803,0.038214932995440515,0.04244698682090108
0.2085517,0.014043659992484935,0.010140290412812494,0.0326217353531505,0.014664002762088348,0.02354229337706683,0.003798154499987278,0.03796958204599361,0.042562454176273835
0.2090172,0.014403051241248858,0.010181522422266095,0.032191566120706415,0.014728928738403993,0.02357107441992866,0.003842546209209992,0.03772472844262469,0.042677997106631935
0.2094828,0.014767353098392234,0.010222668991744689,0.03176428611934727,0.014793525042345327,0.0236035431161891,0.0038872618421882756,0.03748039061981161,0.04279363469464552
0.2099483,0.015136561227713077,0.010263740102457048,0.03133993331781459,0.014857780574588121,0.023639751381223595,0.003932294860667553,0.03723658689061639,0.04290938611802988
0.2104138,0.015510670216509523,0.010304746156165768,0.03091854479882853,0.014921684460018046,0.023679750820012366,0.003977638732620233,0.03699333544393564,0.04302527064087653
0.2108793,0.015889673567173582,0.010345697978821638,0.030500156756988406,0.014985226052506722,0.023723592707258948,0.004023286933268966,0.036750654341806396,0.043141307604920055
0.2113448,0.016273563689037505,0.010386606824075556,0.03008480449692246,0.015048394939620456,0.02377132796740316,0.004069232946108104,0.03650856151676708,0.043257516420748536
0.2118103,0.016662331890478947,0.01042748437666404,0.029672522431684216,0.015111180947257894,0.023823007154534694,0.004115470263923668,0.036267074769273,0.043373916558965914
0.2122759,0.01705596837129117,0.010468342755664413,0.029263344081392292,0.015173574144212755,0.023878680432213337,0.0041619923898121094,0.03602621176516629,0.04349052754131526
0.2127414,0.017454462215324578,0.010509194517615813,0.02885730207211057,0.015235564846657687,0.023938397553202012,0.004208792838198211,0.03578599003320027,0.04360736893177202
0.2132069,0.017857801383405782,0.01055005265950214,0.028454428134965435,0.015297143622545235,0.02400220783911883,0.004255865135852452,0.035546426962618616,0.0437244603276166
0.2136724,0.018265972706540384,0.01059093062159317,0.028054753105496832,0.015358301295921797,0.024070160160014464,0.004303202822908167,0.03530753980078962,0.04384182135049584
0.2141379,0.018678961879405556,0.01063184229014006,0.027658306923239832,0.015419028951150368,0.024142302913881246,0.004350799453878798,0.03506934565089636,0.04395947163748284
0.2146034,0.019096753454138422,0.010672801999921542,0.027265118631533775,0.015479317937037705,0.02421868400610084,0.004398648598675538,0.03483186146968321,0.04407743083214483
0.215069,0.01951933083442599,0.010713824536637153,0.0268752163775561,0.01553915987086153,0.024299350828837458,0.004446743843625623,0.034595104065259535,0.044195718575628325
0.2155345,0.01994667626990239,0.010754925139143955,0.02648862741257834,0.015598546642293232,0.024384350240384267,0.00449507879249153,0.03435909009496128,0.044314354497770936
0.216,0.02037877085085883,0.010796119501533254,0.0261053780924419,0.015657470417211432,0.02447372854447065,0.00454364706749127,0.03412383606327081,0.04443335820824896
0.2164655,0.020815594503271816,0.010837423775043976,0.025725493878251737,0.01571592364140168,0.02456753146953859,0.00459244231031997,0.03388935831979559,0.044552749287769165
0.216931,0.02125712598415476,0.01087885456980943,0.025348999337286043,0.01577389904413748,0.024665804147996614,0.004641458183172909,0.033655673057305914,0.0446725472793133
0.2173966,0.02170334287723815,0.010920428956434355,0.0249759181441203,0.015831389641637824,0.024768591095460188,0.004690688369770153,0.033422796309832074,0.04479277167944337
0.2178621,0.02215422158898328,0.010962164467399256,0.02460627308196423,0.01588838874039665,0.024875936189987957,0.0047401265763829005,0.03319074395082112,0.04491344192967517
0.2183276,0.022609737344934384,0.0110040790982892,0.024240086044210133,0.0159448899403797,0.02498788265132402,0.004789766532861653,0.03295953169135358,0.045034577407927566
0.2187931,0.02306986418641406,0.011046191308844266,0.023877378036190975,0.016000887138084664,0.025104473020156785,0.004839601993666278,0.032729175078420276,0.04515619742005465
0.2192586,0.023534574967566536,0.01108852002382896,0.023518169177146588,0.016056374529460682,0.02522574913740552,0.004889626738898019,0.03249968949325934,0.045278321191467436
0.2197241,0.02400384135275329,0.011131084633717874,0.023162478702396152,0.016111346612683628,0.025351752123545904,0.004939834575333451,0.032271090149753316,0.045400967858851546
0.2201897,0.024477633814305438,0.011173904995194875,0.02281032496571497,0.016165798190783724,0.025482522357986,0.004990219337460356,0.03204339209288602,0.04552415646198723
0.2206552,0.02495592163063722,0.011217001431463085,0.02246172544191349,0.01621972437412223,0.02561809945850395,0.0050407748885154735,0.03181661019725867,0.04564790593567742
0.2211207,0.025438672884724817,0.011260394732362936,0.022116696729616546,0.016273120582714146,0.025758522260758754,0.005091495121523994,0.031590759165664305,0.045772235101789537
0.2215862,0.02592585446295455,0.011304106154295602,0.021775254554240762,0.01632598254839401,0.02590382879788517,0.005142373960340688,0.03136585352771958,0.04589716266141634
0.2220517,0.026417432054344596,0.011348157419949266,0.02143741377116823,0.016378306316822057,0.02605405628018369,0.005193405360692502,0.03114190763855256,0.04602270718716079
0.2225172,0.026913370150144084,0.011392570717825776,0.02110318836911457,0.01643008824932814,0.02620924107491639,0.0052445833112224295,0.030918935677544883,0.046148887115549826
0.2229828,0.027413632043813523,0.011437368701565408,0.020772591473689664,0.016481325024591063,0.026369418686219177,0.0052959018345344515,0.030696951647126602,0.04627572073958134
0.2234483,0.027918179831390194,0.011482574489067606,0.02044563535114929,0.016532013640151222,0.026534623735141007,0.005347354988239306,0.030475969371621756,0.04640322620140881
0.2239138,0.02842697441224213,0.011528211661405685,0.02012233141233601,0.01658215141375499,0.026704889939820557,0.005398936866000853,0.03025600249614275,0.04653142148516738
0.2243793,0.028939975490213925,0.011574304261533653,0.019802690216807584,0.016631735984529838,0.02688025009581095,0.005450641598582772,0.030037064485531485,0.04666032440994507
0.2248448,0.029457141575167684,0.011620876792783454,0.01948672147715123,0.01668076531398987,0.027060736056563183,0.0055024633548953475,0.029819168623345167,0.046789952622902566
0.2253103,0.02997842998492196,0.011667954217151043,0.01917443406348195,0.01672923768687194,0.02724637871407904,0.005554396343042063,0.029602328010884738,0.04692032359254496
0.2257759,0.0305037968475914,0.011715561953369836,0.01886583600812316,0.016777151711803048,0.027437207979744426,0.005606434811365798,0.0293865555662637,0.04705145460214862
0.2262414,0.03103319710432954,0.011763725874770162,0.01856093451046773,0.016824506321799954,0.027633252765354135,0.0056585730494943635,0.029171864023515032,0.04718336274334669
0.2267069,0.031566584512477056,0.011812472306923436,0.01825973594201743,0.016871300774602343,0.027834540964338957,0.0057108053893852,0.028958265931733822,0.04731606490987616
0.2271724,0.03210391164911728,0.011861828025069774,0.017962245851598765,0.01691753465284102,0.028041099433205968,0.005763126206369055,0.028745773654253196,0.047449577791489894
0.2276379,0.03264512991504075,0.011911820251327835,0.017668468970752946,0.016963207864042727,0.028252953973202755,0.005815529920192519,0.028534399367851238,0.04758391786803677
0.2281034,0.03319018953912021,0.011962476651685688,0.017378409219297678,0.01700832064047332,0.028470129312216177,0.0058680109960592836,0.02832415506198688,0.047719101403712834
0.228569,0.03373903958309727,0.01201382533277158,0.017092069711058325,0.017052873538820918,0.02869264908691608,0.005920563945670001,0.028115052538062967,0.04785514444148638
0.2290345,0.034291627946781866,0.01206589483840353,0.016809452759765784,0.01709686743972064,0.028920535825154327,0.005973183328260612,0.027907103408715044,0.04799206279769939
0.2295,0.03484790137366508,0.012118714145916707,0.016530559885118402,0.017140303547122482,0.029153810928629297,0.006025863751639002,0.02770031909712469,0.048129872056847545
0.2299655,0.03540780545694612,0.012172312662267624,0.016255391819005007,0.017183183387503735,0.029392494655825715,0.006078599873219837,0.027494710836356524,0.04826858756654056
0.230431,0.03597128464597377,0.012226720219914186,0.015983948511886104,0.017225508808927415,0.029636606105239605,0.006131386401057444,0.027290289668717854,0.04840822443264447
0.2308966,0.03653828225310256,0.012281967072470718,0.015716229139330077,0.01726728197994804,0.02988616319889778,0.006184218094876586,0.027087066445140355,0.048548797514607146
0.2313621,0.037108740460963886,0.012338083890137115,0.015452232108701317,0.01730850538836606,0.030141182666181182,0.006237089767101007,0.02688505182458327,0.04869032142096803
0.2318276,0.037682600330151986,0.012395101754901246,0.01519195506599697,0.017349181839832348,0.030401680027961064,0.006289996283879641,0.026684256273458055,0.0488328105050526
0.2322931,0.03825980180732473,0.012453052155513853,0.014935394902829174,0.017389314456303914,0.030667669581056847,0.006342932566110335,0.026484690065074673,0.04897627886085192
0.2327586,0.03884028373371901,0.012511966982235253,0.014682547763549509,0.01742890667435216,0.030939164383024242,0.006395893590460989,0.026286363279110117,0.04912074031908713
0.2332241,0.039423983854080344,0.0125718785213532,0.01443340905251245,0.017467962243324763,0.031216176237282144,0.006448874390387957,0.02608928580110016,0.049266208443458394
0.2336897,0.04001083882600622,0.01263281944947139,0.014187973441474572,0.01750648522336235,0.031498715678586545,0.006501870057151542,0.025893467321955323,0.04941269652707757
0.2341552,0.04060078422970262,0.012694822827568217,0.01394623487712624,0.017544479983271036,0.031786791958859646,0.0065548757408284124,0.025698917337502403,0.04956021758908351
0.2346207,0.04119375457815275,0.012757922094825415,0.013708186588752553,0.017581951198251948,0.03208041303338206,0.006607886651320691,0.025505645148052758,0.04970878437143869
0.2350862,0.04178968332769708,0.012822151062226344,0.013473821096020223,0.0176189038474889,0.032379585547355934,0.006660898059361479,0.02531365985799862,0.049858409335905636
0.2355517,0.04238850288902343,0.012887543905923674,0.013243130216887129,0.017655343211595398,0.03268431482284649,0.006713905297516556,0.025122970375438494,0.05000910466120143
0.2360172,0.04299014463856552,0.012954135160376263,0.013016105075631232,0.01769127486992233,0.03299460484610971,0.006766903761182039,0.02493358541183262,0.05016088224032845
0.2364828,0.04359453893030831,0.013021959711254933,0.012792736110995542,0.017726704697727688,0.03331045825531358,0.006819888909577737,0.024745513481689345,0.050313753678078936
0.2369483,0.04420161510799812,0.013091052788116866,0.012573013084445769,0.017761638863209868,0.033631876328660604,0.00687285626673605,0.024558762902282996,0.05046773028871094
0.2374138,0.04481130151775516,0.013161449956848259,0.01235692508853732,0.017796083824406072,0.03395885897291907,0.006925801422486213,0.024373341793403912,0.05062282309379257
0.2378793,0.04542352552108576,0.013233187111874831,0.012144460555388202,0.017830046325957517,0.034291404712370674,0.0069787200334337565,0.024189258077140882,0.05077904282021171
0.2383448,0.046038213508291355,0.013306300468139685,0.011935607265254456,0.017863533395743137,0.034629510678182054,0.007031607823935001,0.024006519477696192,0.050936399898347626
0.2388103,0.046655290912270934,0.013380826552848075,0.01173035235520464,0.017896552341383574,0.03497317259820773,0.007084460587066462,0.023825133521233312,0.0510949044604013
0.2392759,0.04727468222271306,0.013456802196978609,0.011528682327889955,0.01792911074661728,0.0353223847872316,0.007137274185589025,0.02364510753575705,0.051254566338880904
0.2397414,0.04789631100067343,0.013534264526560476,0.01133058306040658,0.01796121646755068,0.03567714013765433,0.0071900445529067165,0.023466448651025897,0.05141539506523898
0.2402069,0.04852009989353351,0.013613250953716372,0.011136039813246772,0.017992877628784393,0.0360374301106336,0.00724276769401996,0.023289163798496285,0.05157739986865756
0.2406724,0.04914597065033534,0.013693799167470926,0.010945037239335343,0.018024102619417514,0.036403244727684206,0.0072954396864731525,0.023113259711298316,0.05174058967497787
0.2411379,0.0497738441374872,0.0137759471243247,0.010757559393148071,0.01805490008893217,0.036774572562744585,0.0073480566812964285,0.02293874292424252,0.05190497310577072
0.2416034,0.05040364035483448,0.013859733038594044,0.010573589739908688,0.01808527894296036,0.037151400734716226,0.00740061490394147,0.022765619773857153,0.05207055847754419
0.242069,0.051035278452089536,0.013945195372517484,0.010393111164860998,0.018115248338935266,0.03753371490048218,0.007453110655211242,0.0225938963984554,0.05223735380108492
0.2425345,0.05166867674561408,0.014032372826129628,0.010216105982612744,0.018144817681629004,0.03792149924841055,0.007505540312183493,0.022423578738231777,0.05240536678092947
0.243,0.052303752735547215,0.01412130432690395,0.010042555946547772,0.018173996618578835,0.038314736492348754,0.007557900329127875,0.022254672535387,0.052574604814961984
0.2434655,0.05294042312327164,0.014212029019166203,0.009872442258303043,0.018202795035403892,0.038713407866113776,0.007610187238416495,0.0220871833342804,0.05274507499413448
0.243931,0.0535786038292105,0.014304586253280462,0.00970574557730698,0.01823122305101452,0.03911749311848373,0.007662397651427681,0.021921116481609004,0.052916784102305776
0.2443966,0.05421821001094698,0.014399015574610097,0.00954244603037557,0.018259291012716613,0.0395269705086954,0.007714528259442719,0.0217564771266123,0.05308973861619499
0.2448621,0.05485915608165866,0.014495356712256241,0.009382523221362626,0.018287009491213427,0.039941816802452394,0.007766575834535244,0.021593270221301756,0.053263944705445175
0.2453276,0.05550135572885828,0.014593649567576503,0.009225956240860617,0.01831438927550785,0.040362007268448165,0.00781853723045294,0.02143150052071405,0.05343940823279257
0.2457931,0.056144721933432666,0.014693934202486962,0.009072723675948507,0.01834144136770833,0.04078751567540778,0.007870409383491142,0.021271172583187066,0.05361613475433647
0.2462586,0.05678916698897138,0.0147962508275508,0.00892280361998312,0.01836817697774193,0.04121831428965215,0.007922189313357935,0.021112290770657613,0.05379412951990483
0.2467241,0.05743460252137686,0.014900639789857211,0.008776173682430607,0.0183946075179783,0.041654373873187926,0.007973874124030297,0.0209548592489799,0.05397339747351087
0.2471897,0.058080939508747584,0.015007141560694498,0.008632810998734714,0.018420744597768435,0.04209566368232619,0.008025461004600859,0.02079888198826377,0.054153943253896386
0.2476552,0.05872808830152575,0.01511579672302167,0.008492692240218638,0.018446600017902333,0.04254215146683266,0.008076947230114867,0.020644362763231717,0.0543357711951584
0.2481207,0.05937595864290126,0.015226645958742893,0.008355793624017342,0.01847218576498961,0.042993803469612214,0.008128330162396922,0.02049130515359359,0.05451888532745647
0.2485862,0.060024459689463246,0.015339730035789293,0.008222090923037407,0.018497514005767057,0.04345058442692979,0.008179607250867044,0.020339712544438025,0.0547032893777989
0.2490517,0.060673500032090516,0.01545508979501274,0.008091559475941618,0.018522597081337126,0.043912457569170095,0.008230776033345617,0.020189588126639436,0.0548889867709067
0.2495172,0.061322987717072036,0.015572766136896123,0.007964174197155624,0.018547447501341137,0.044379384622137724,0.008281834136846673,0.0200409348972795,0.05507598063015426
0.2499828,0.06197283026744837,0.015692800008084838,0.007839909586894256,0.01857207793807096,0.044851325808899334,0.00833277927835896,0.01989375566008206,0.055264273778586205
0.2504483,0.06262293470456481,0.015815232387744262,0.007718739741205194,0.01859650122052267,0.045328239852169105,0.00838360926561412,0.019748053025860666,0.055453868740009425
0.2509138,0.06327320756982703,0.015940104273748208,0.007600638362027848,0.01862073032839564,0.04581008397723845,0.008434321997841287,0.01960382941297802,0.05564476774015941
0.2513793,0.06392355494665002,0.016067456668703513,0.007485578767265406,0.018644778386040322,0.04629681391545062,0.00848491546650739,0.019461087047816916,0.05583697270794027
0.2518448,0.06457388248259187,0.0161973305658162,0.007373533900868121,0.018668658656358007,0.04678838390822056,0.008535387756042364,0.019319827965262246,0.05603048527673807
0.2523103,0.06522409541166399,0.01632976693460483,0.0072644763429258645,0.018692384534655573,0.047284746711600135,0.008585737044548526,0.01918005400919379,0.0562253067858077
0.2527759,0.06587409857681017,0.016464806706466942,0.007158378319768095,0.018715969542458296,0.047785853601388525,0.008635961604493318,0.019041766832989405,0.056421438281733634
0.2532414,0.06652379645254747,0.016602490760104588,0.007055211714069244,0.0187394273212836,0.048291654378787255,0.008686059803384721,0.018904967900038264,0.056618880519965935
0.2537069,0.06717309316776232,0.016742859906815268,0.006954948074957592,0.018762771626378613,0.04880209737659947,0.008736030104428616,0.018769658484263894,0.05681763396643229
0.2541724,0.06782189252865556,0.016885954875654637,0.0068575586281256085,0.01878601632042435,0.049317129465972394,0.008785871067167387,0.01863583967065667,0.05701769879922712
0.2546379,0.0684700980418302,0.01703181629847754,0.006763014285939745,0.01880917536720924,0.049836696063682163,0.00883558134809905,0.01850351235581565,0.05721907491037874
0.2551034,0.06911761293751577,0.017180484694864127,0.006671285657547597,0.018832262825274743,0.050360741139959565,0.008885159701276166,0.018372677248499773,0.057421761907694956
0.255569,0.06976434019292267,0.017332000456937936,0.006582343058980376,0.018855292841535757,0.05088920722685509,0.008934604978883754,0.018243334870188723,0.05762575911668748
0.2560345,0.07041018255571996,0.017486403834082943,0.006496156523248636,0.0188782796448785,0.05142203542714148,0.008983916131795406,0.01811548555565396,0.057831065582575135
0.2565,0.07105504256762904,0.01764373491756687,0.006412695810429139,0.018901237539738464,0.051959165423751855,0.009033092210106813,0.017989129453540618,0.05803768007236584
0.2569655,0.07169882258812622,0.017804033625078083,0.006331930417740816,0.018924180899661046,0.052500535489751386,0.009082132363645924,0.017864266526961103,0.05824560107701707
0.257431,0.07234142481824639,0.01796733968518351,0.0062538295896077695,0.018947124160847477,0.05304608249884032,0.009131035842458975,0.017740896554101323,0.05845482681367439
0.2578966,0.07298275132448064,0.018133692621715138,0.006178362327707335,0.018970081815688603,0.05359574193638633,0.009179801997271702,0.017619019128840386,0.058665355227987534
0.2583621,0.07362270406276114,0.018303131738092424,0.006105497401001241,0.0189930684062891,0.05414944791098426,0.009228430279925044,0.017498633661384797,0.05887718399650307
0.2588276,0.07426118490252692,0.018475696101588016,0.006035203355748034,0.019016098517984668,0.054707133166541265,0.009276920243784646,0.0173797393789181,0.05909031052913295
0.2592931,0.074898095650865,0.018651424527543967,0.005967448525494967,0.01903918677285468,0.055268729094885595,0.009325271544123468,0.017262335326267027,0.059304731971698096
0.2597586,0.07553333807672247,0.018830355563545648,0.005902201041047663,0.019062347823232857,0.05583416574889693,0.009373483938476755,0.017146420366585185,0.05952044520854645
0.2602241,0.07616681393518586,0.019012527473560314,0.00583942884041589,0.019085596345218465,0.05640337185615644,0.009421557286968611,0.017031993182055238,0.059737446865245285
0.2606897,0.07679842499182478,0.01919797822204728,0.005779099678733915,0.019108947032190623,0.05697627483311439,0.009469491552609288,0.01691905227461055,0.05995573331134754
0.2611552,0.07742807304709758,0.01938674545804653,0.005721181138153887,0.01913241458832832,0.057552800799773186,0.009517286801562306,0.01680759596667712,0.060175300663232054
0.2616207,0.07805565996081709,0.01957886649925245,0.005665640637710855,0.01915601372213887,0.05813287459488361,0.009564943203380381,0.01669762240193671,0.060396144787017665
0.2620862,0.07868108767667441,0.019774378316079373,0.005612445443157962,0.019179759139997383,0.05871641979165152,0.009612461031209125,0.016589129546112035,0.060618261301550985
0.2625517,0.07930425824681823,0.019973317515725533,0.005561562676770475,0.019203665539699995,0.05930335871395187,0.00965984066195734,0.016482115187774714,0.06084164558146735
0.2630172,0.07992507385648712,0.020175720326241785,0.00551295932711728,0.019227747604033393,0.05989361245304643,0.009707082576432711,0.01637657693917672,0.06106629276032461
0.2634828,0.0805434368486909,0.020381622580611592,0.005466602258798497,0.019252019994363292,0.06048710088480152,0.009754187359441559,0.016272512237106112,0.0612921977338086
0.2639483,0.08115924974893753,0.020591059700848513,0.005422458222147832,0.019276497344244234,0.0610837426874012,0.00980115569985133,0.016169918343767624,0.06151935516300922
0.2644138,0.08177241529000004,0.02080406668211744,0.005380493862898323,0.019301194253053044,0.06168345535955163,0.00984798839061435,0.016068792347688605,0.061747759477765514
0.2648793,0.08238283643671888,0.021020678076885714,0.005340675731810054,0.019326125279648162,0.06228615523917173,0.009894686328751399,0.01596913116465088,0.06197740488007785
0.2653448,0.0829904164108334,0.02124092797911016,0.005302970294258445,0.019351304936056902,0.06289175752256566,0.009941250515293645,0.015870931538648745,0.062208285347585185
0.2658103,0.08359505871583599,0.021464850008465954,0.005267343939781674,0.019376747681192595,0.06350017628407228,0.009987682055181411,0.0157741900428733,0.06244039463710477
0.2662759,0.0841966671618421,0.021692477294623196,0.005233762991585768,0.019402467914603396,0.06411132449618646,0.010033982157118275,0.015678903080723172,0.06267372628823153
0.2667414,0.08479514589046871,0.021923842461576866,0.005202193716005858,0.0194284799702544,0.06472511405014712,0.010080152133379022,0.015585066886841532,0.06290827362699397
0.2672069,0.08539039939971342,0.022158977612035835,0.005172602331922092,0.019454798110344604,0.06534145577698637,0.010126193399569949,0.015492677528179162,0.06314402976956286
0.2676724,0.08598233256882598,0.022397914311876405,0.0051449550201286415,0.019481436519160057,0.06596025946903354,0.010172107474340053,0.01540173090508328,0.06338098762600894
0.2681379,0.08657085068316435,0.02264068357466576,0.005119217932654226,0.019508409296964395,0.06658143390186783,0.010217895979041582,0.015312222752411623,0.0636191399041048
0.2686034,0.08715585945902649,0.022887315846260633,0.005095357202032577,0.019535730453927855,0.06720488685671246,0.010263560637338517,0.015224148640671278,0.0638584791131664
0.269069,0.08773726506845002,0.023137840989486232,0.005073338950521249,0.019563413904095675,0.0678305251432629,0.010309103274761465,0.01513750397718156,0.06409899756792868
0.2695345,0.0883149741639715,0.0233922882689005,0.005053129299267191,0.019591473459396793,0.06845825462294106,0.010354525818207541,0.01505228400726014,0.06434068739244964
0.27,0.08888889390333683,0.02365068633564845,0.005034694377417523,0.01961992282369354,0.06908798023256692,0.01039983029538382,0.01496848381543146,0.0645835405240368
0.2704655,0.08945893197415529,0.02391306321241134,0.005018000331173906,0.01964877558687294,0.0697196060084387,0.01044501883419297,0.014886098326656405,0.06482754871718929
0.270931,0.09002499661848873,0.02417944627845519,0.005003013332788944,0.019678045218980228,0.07035303511081188,0.010490093662059696,0.014805122307582057,0.06507270354754854
0.2713966,0.09058699665736827,0.024449862254783065,0.0049896995895029935,0.019707745064394974,0.07098816984876696,0.010535057105196624,0.01472555036781023,0.0653189964158501
0.2718621,0.0911448415152299,0.024724337189395408,0.004978025352419737,0.019737888336050197,0.0716249117054556,0.010579911587808214,0.014647376961183393,0.06556641855186886
0.2723276,0.09169844124425972,0.02500289644266257,0.0049679569253188345,0.019768488109694747,0.07226316136371395,0.010624659631231234,0.014570596387086562,0.06581496101834988
0.2727931,0.09224770654863954,0.025285564672813732,0.004959460673403939,0.019799557318199264,0.07290281873203196,0.010669303853010344,0.0144952027917637,0.06606461471491691
0.2732586,0.09279254880868255,0.02557236582154617,0.004952503031984319,0.01983110874590578,0.0735437829708663,0.01071384696590736,0.014421190169647208,0.06631537038195122
0.2737241,0.09333288010484772,0.02586332309975887,0.004947050515088277,0.019863155023021033,0.07418595251928503,0.010758291776842831,0.014348552364699093,0.06656721860443425
0.2741897,0.09386861324162134,0.02615845897341439,0.004943069724006539,0.01989570862005346,0.07482922512193034,0.01080264118576874,0.014277283071762556,0.06682014981574784
0.2746552,0.09439966177125325,0.026457795149532684,0.004940527355763759,0.01992878184229388,0.07547349785628653,0.010846898184471222,0.014207375837922837,0.06707415430142698
0.2751207,0.0949259400173343,0.02676135256232048,0.00493939021151627,0.01996238682433969,0.0761186671602389,0.0108910658553024,0.014138824063876192,0.06732922220286033
0.2755862,0.09544736309820129,0.027069151359439755,0.004939625204874216,0.019996535524662542,0.07676462885990945,0.010935147369840598,0.014071621005306113,0.06758534352093454
0.2760517,0.09596384695015532,0.02738121088841846,0.004941199370146249,0.020031239720219456,0.07741127819775433,0.010979145987478347,0.014005759774265793,0.06784250811961806
0.2765172,0.09647530835047888,0.027697549683206698,0.004944079870504986,0.020066511001107352,0.07805850986090833,0.011023065053937763,0.013941233340566147,0.06810070572948065
0.2769828,0.09698166494023688,0.02801818545088148,0.004948234006071534,0.020102360765261076,0.07870621800976095,0.011066907999713022,0.013878034533168646,0.06835992595114417
0.2774483,0.09748283524684698,0.028343135058503055,0.004953629221917449,0.020138800213195158,0.07935429630674899,0.011110678338439687,0.013816156041582369,0.0686201582586605
0.2779138,0.09797873870640428,0.02867241452012594,0.004960233115982626,0.0201758403427897,0.08000263794535015,0.011154379665190733,0.013755590417264785,0.06888139200281242
0.2783793,0.09846929568574596,0.02900603898396755,0.004968013446907711,0.020213491944121028,0.0806511356792624,0.011198015654699115,0.013696330075025753,0.06914361641433318
0.2788448,0.09895442750424165,0.02934402271973758,0.0049769381417797375,0.020251765594338094,0.08129968185175382,0.011241590059506763,0.013638367294434281,0.06940682060704106
0.2793103,0.09943405645529585,0.029686379106131106,0.004986975303789793,0.020290671652585905,0.08194816842516738,0.011285106708040026,0.01358169422122753,0.06967099358088547
0.2797759,0.09990810582754982,0.030033120618488597,0.004998093219801615,0.020330220254977355,0.08259648701056523,0.011328569502611671,0.013526302868721468,0.06993612422490157
0.2802414,0.10037649992577094,0.0303842588166259,0.005010260367830111,0.02037042130961511,0.08324452889749658,0.011371982417349779,0.013472185119222616,0.07020220132007059
0.2807069,0.10083916409141855,0.030739804332837493,0.005023445424428866,0.020411284491665134,0.08389218508387285,0.01141534949605407,0.01341933272544021,0.07046921354208305
0.2811724,0.10129602472287684,0.031099766860076303,0.005037617271985749,0.020452819238483366,0.08453934630593316,0.011458674849980486,0.013367737311898305,0.07073714946400235
0.2816379,0.10174700929534607,0.03146415514031355,0.005052745005925779,0.020495034744797053,0.08518590306828264,0.011501962655555007,0.01331739037634722,0.0710059975588261
0.2821034,0.10219204638038469,0.031832976953082015,0.005068797941820424,0.020537939957942005,0.08583174567398592,0.011545217152017881,0.013268283291173941,0.07127574620194314
0.282569,0.1026310656650956,0.03220623910420619,0.005085745622402553,0.020581543573157012,0.08647676425469784,0.0115884426389995,0.013220407304811208,0.07154638367348408
0.2830345,0.10306399797095026,0.03258394741472285,0.005103557824486231,0.020625854028936654,0.08712084880081379,0.01163164347402919,0.01317375354314506,0.07181789816056335
0.2835,0.10349077527224478,0.0329661067099954,0.00512220456579059,0.02067087950244372,0.08776388919162244,0.011674824069978081,0.013128313010920942,0.0720902777594103
0.2839655,0.10391133071418232,0.03335272080902535,0.005141656111667034,0.020716627904982562,0.08840577522544438,0.011717988892437223,0.013084076593148634,0.07236351047738704
0.284431,0.10432559863057583,0.033743792513964165,0.005161882981729041,0.020763106877534764,0.08904639664974018,0.011761142457032032,0.013041035056506578,0.07263758423488982
0.2848966,0.10473351456116439,0.03413932359982859,0.0051828559563839,0.020810323786358702,0.08968564319117209,0.011804289326674216,0.012999179050746401,0.07291248686713193
0.2853621,0.10513501526853661,0.03453931480442246,0.005204546083265688,0.020858285718654716,0.09032340458560362,0.011847434108752348,0.012958499110098583,0.07318820612580562
0.2858276,0.105530038754654,0.034943765818467726,0.005226924683568854,0.020906999478297748,0.09095957060802187,0.011890581452262395,0.012918985654680273,0.07346472968062216
0.2862931,0.1059185242769677,0.035352675275947244,0.00524996335828178,0.020956471581639633,0.09159403110236918,0.011933736044879628,0.01288062899190629,0.07374204512072975
0.2867586,0.10630041236412198,0.03576604074466167,0.005273633994319651,0.02100670825338331,0.09222667601127253,0.0119769026099735,0.012843419317904338,0.07402013995600991
0.2872241,0.10667564483123886,0.03618385871700263,0.0052979087705560006,0.021057715422531324,0.09285739540566186,0.01202008590356723,0.01280734671893548,0.07429900161825392
0.2876897,0.10704416479477877,0.036606124600943916,0.0053227601637522316,0.02110949871841122,0.09348607951426992,0.012063290711243919,0.012772401172820871,0.07457861746222175
0.2881552,0.10740591668697319,0.03703283271125233,0.005348160954384439,0.02116206346678025,0.09411261875300801,0.012106521845001128,0.01273857255037579,0.07485897476658628
0.2886207,0.10776084626982542,0.0374639762609196,0.005374084232366835,0.021215414686011833,0.09473690375421229,0.01214978414005591,0.01270585061685192,0.07514006073476673
0.2890862,0.10810890064867715,0.037899547352816684,0.005400503402671082,0.02126955708336609,0.09535882539575537,0.012193082451602348,0.012674225033388857,0.0754218624956555
0.2895517,0.1084500282853384,0.03833953697157152,0.005427392190840856,0.02132449505134675,0.09597827483001853,0.012236421651523693,0.012643685358475739,0.07570436710424305
0.2900172,0.10878417901077934,0.03878393497567165,0.005454724648400973,0.021380232664146435,0.09659514351271886,0.012279806625061148,0.012614221049423857,0.07598756154214578
0.2904828,0.109111304037382,0.03923273008979303,0.005482475158160452,0.02143677367418254,0.09720932323158638,0.012323242267441404,0.012585821463851083,0.07627143271804189
0.2909483,0.10943135597074984,0.03968590989735685,0.005510618439408908,0.02149412150872583,0.09782070613488561,0.012366733480464976,0.012558475861178846,0.07655596746802036
0.2914138,0.10974428882107247,0.040143460833316415,0.005539129553005742,0.021552279266624032,0.09842918475977591,0.012410285169057322,0.01253217340414235,0.07684115255584764
0.2918793,0.11005005801404233,0.040605368177177116,0.005567983906361671,0.021611249715122748,0.09903465206050398,0.012453902237784652,0.01250690316031463,0.07712697467315632
0.2923448,0.11034862040131896,0.04107161604625261,0.0055971572583121566,0.021671035286786277,0.09963700143642149,0.012497589587336256,0.012482654103644951,0.07741342043955989
0.2928103,0.11063993427053612,0.041542187389161565,0.0056266257238824155,0.02173163807652103,0.10023612675982004,0.012541352110975105,0.012459415116012007,0.07770047640269657
0.2932759,0.1109239593548462,0.04201706397956951,0.005656365778943714,0.02179305983870442,0.10083192240357494,0.012585194690958448,0.012437174988792238,0.07798812903820543
0.2937414,0.11120065684199582,0.04249622641018089,0.005686354264760729,0.021855301984422013,0.10142428326858897,0.012629122194930049,0.012415922424443546,0.07827636474963642
0.2942069,0.11146998938292632,0.0429796540869866,0.005716568392429819,0.021918365578815935,0.10201310481102688,0.012673139472285723,0.012395646038104585,0.07856516986829702
0.2946724,0.11173192109989297,0.04346732522377224,0.0057469857472081005,0.021982251338547257,0.10259828306933218,0.012717251350513764,0.012376334359209725,0.07885453065303662
0.2951379,0.11198641759409657,0.0439592168368924,0.005777584292733289,0.022046959629375414,0.10317971469101804,0.012761462631511865,0.012357975833119688,0.07914443328997045
0.2956034,0.11223344595282247,0.0444553047403158,0.005808342375134281,0.022112490463857565,0.10375729695922452,0.012805778087882,0.012340558822767854,0.0794348638921446
0.296069,0.11247297475608148,0.0449555635409464,0.005839238727032533,0.022178843499171035,0.1043309278190356,0.01285020245920484,0.012324071610322122,0.07972580849914347
0.2965345,0.11270497408274809,0.04545996663422508,0.00587025247143427,0.022246018035062154,0.10490050590354984,0.012894740448295168,0.012308502398862201,0.08001725307664118
0.297,0.11292941551619157,0.04596848620001702,0.005901363125513617,0.02231401301192494,0.10546593055969809,0.012939396717439867,0.012293839314072137,0.08030918351589802
0.2974655,0.11314627214939568,0.046481093198789535,0.005932550604286718,0.022382827009013125,0.10602710187380193,0.012984175884620149,0.012280070405947922,0.08060158563320304
0.297931,0.11335551858956205,0.046997757368085265,0.005963795224176891,0.022452458242788957,0.10658392069686537,0.013029082519719787,0.012267183650519934,0.08089444516926292
0.2983966,0.11355713096219226,0.04751844721929593,0.005995077706470847,0.022522904565412026,0.10713628866959217,0.01307412114072122,0.01225516695158999,0.08118774778853827
0.2988621,0.11375108691464239,0.04804313003474131,0.006026379180665978,0.022594163463371272,0.10768410824712048,0.013119296209891568,0.012244008142482703,0.08148147907852708
0.2993276,0.11393736561914436,0.048571771865058254,0.006057681187708674,0.022666232056263187,0.10822728272346627,0.013164612129960684,0.01223369498781086,0.08177562454899606
0.2997931,0.11411594777528733,0.04910433752690436,0.006088965683123618,0.022739107095718997,0.10876571625566668,0.013210073240293387,0.01222421518525451,0.08207016963116005
0.3002586,0.11428681561195352,0.04964079060098082,0.0061202150400340065,0.02281278496448346,0.10929931388761498,0.013255683813058111,0.012215556367353483,0.08236509967681083
0.3007241,0.11444995288870355,0.050181093430378694,0.006151412052072661,0.022887261675647683,0.109827981573579,0.013301448049394097,0.012207706103313114,0.08266039995739602
0.3011897,0.11460534489660706,0.05072520711925271,0.006182539936183995,0.022962532872038203,0.11035162620139632,0.013347370075579268,0.012200651900822984,0.08295605566304991
0.3016552,0.1147529784585166,0.05127309153182658,0.006213582335316847,0.02303859382576441,0.11087015561534003,0.013393453939200802,0.012194381207888636,0.08325205190157749
0.3021207,0.11489284192878382,0.05182470529173347,0.0062445233210081325,0.023115439437926155,0.11138347863864892,0.013439703605330457,0.012188881414676203,0.0835483736973931
0.3025862,0.11502492519241889,0.05238000578169532,0.006275347395857278,0.02319306423848314,0.11189150509571745,0.013486122952706625,0.012184139855370094,0.08384500599041483
0.3030517,0.11514921966369518,0.05293894914354438,0.006306039495891345,0.02327146238628765,0.11239414583393938,0.013532715769925308,0.012180143810043923,0.08414193363491529
0.3035172,0.1152657182842023,0.053501490278590025,0.006336584992820745,0.023350627669281938,0.1128913127451996,0.013579485751642272,0.012176880506544955,0.08443914139832881
0.3039828,0.11537441552035066,0.0540675828483341,0.006366969696185431,0.023430553504861333,0.11338291878700874,0.013626436494788757,0.012174337122392367,0.084736613960015
0.3044483,0.1154753073603308,0.05463717927553729,0.006397179855391435,0.02351123294040405,0.11386887800327426,0.013673571494803178,0.012172500786689753,0.08503433590997769
0.3049138,0.11556839131053094,0.05521023074563935,0.00642720216163763,0.023592658653968427,0.1143491055447023,0.013720894141881261,0.012171358582052247,0.08533229174753812
0.3053793,0.11565366639141622,0.05578668720853555,0.006457023749732535,0.023674822955158287,0.11482351768882333,0.013768407717247133,0.012170897546548806,0.08563046587996101
0.3058448,0.11573113313287396,0.05636649738071154,0.006486632199801024,0.02375771778615675,0.11529203185963578,0.013816115389447913,0.01217110467566006,0.08592884262103238
0.3063103,0.11580079356903006,0.05694960874773859,0.00651601553888077,0.023841334722928792,0.11575456664686168,0.013864020210674404,0.01217196692425226,0.08622740618958803
0.3067759,0.11586265123254251,0.057535967567131224,0.006545162242408246,0.023925664976592688,0.11621104182480961,0.013912125113110543,0.012173471208567774,0.08652614070799196
0.3072414,0.11591671114837837,0.058125518871568624,0.006574061235594147,0.024010699394960235,0.11666137837084083,0.01396043290531433,0.012175604408232586,0.08682503020056456
0.3077069,0.11596297982708142,0.05871820647248136,0.006602701894688095,0.024096428464245635,0.11710549848343575,0.014008946268632822,0.01217835336828117,0.08712405859196046
0.3081724,0.11600146525753785,0.05931397296400453,0.006631074048132537,0.02418284231094269,0.11754332559985854,0.014057667753653741,0.01218170490119912,0.08742320970549648
0.3086379,0.11603217689924741,0.059912759727298225,0.006659167977605786,0.024269930703869905,0.1179747844134186,0.0141065997766962,0.01218564578898381,0.0877224672614303
0.3091034,0.1160551256741072,0.06051450693523618,0.006686974418954179,0.02435768305638286,0.11839980089032784,0.014155744616342895,0.012190162785223366,0.08802181487519047
0.309569,0.11607032395771438,0.06111915355746298,0.006714484563013338,0.02444608842875329,0.11881830228615296,0.014205104410016102,0.012195242617194098,0.08832123605555799
0.3100345,0.11607778557019488,0.0617266373658201,0.006741690056318566,0.024535135530713913,0.11923021716186213,0.014254681150599774,0.012200871987976541,0.08862071420279982
0.3105,0.11607752576656376,0.06233689494014074,0.006768583001704382,0.024624812724168145,0.11963547539946569,0.014304476683109931,0.012207037578590115,0.08892023260675462
0.3109655,0.11606956122662437,0.06294986167441327,0.006795155958793276,0.024715108026063654,0.12003400821725183,0.014354492701415618,0.012213726050146374,0.08921977444487132
0.311431,0.11605391004441336,0.0635654717833125,0.006821401944373752,0.024806009111428547,0.12042574818462036,0.014404730745012554,0.012220924046020657,0.08951932278020151
0.3118966,0.1160305917172002,0.06418365830909796,0.006847314432667734,0.02489750331656891,0.12081062923651942,0.01445519219585164,0.012228618194041953,0.08981886055934693
0.3123621,0.11599962713405067,0.06480435312887796,0.006872887355487398,0.024989577642426458,0.12118858668749172,0.014505878275224426,0.012236795108700642,0.09011837061036362
0.3128276,0.11596103856396438,0.06542748696223785,0.006898115102281498,0.02508221875809489,0.12155955724533857,0.014556790040707616,0.012245441393373769,0.09041783564062464
0.3132931,0.11591484964359797,0.06605298937923094,0.006922992520071235,0.02517541300449373,0.12192347902440982,0.014607928383168581,0.012254543642567515,0.09071723823464264
0.3137586,0.11586108536458511,0.06668078880873038,0.006947514913275638,0.025269146398198324,0.12228029155852817,0.014659294023833822,0.012264088444176542,0.09101656085185487
0.3142241,0.11579977206046502,0.06731081254714073,0.00697167804342644,0.025363404635424646,0.12262993581355545,0.014710887511422202,0.012274062381759876,0.09131578582437254
0.3146897,0.11573093739323088,0.06794298676746827,0.006995478128772361,0.025458173096167564,0.12297235419960777,0.014762709219344703,0.012284452036833067,0.09161489535469768
0.3151552,0.11565461033950887,0.06857723652874964,0.007018911843772705,0.025553436848491113,0.12330749058292527,0.014814759342972404,0.01229524399117643,0.09191387151341053
0.3156207,0.11557082117637767,0.06921348578583908,0.007041976318480098,0.025649180652969426,0.12363529029740196,0.014867037896974454,0.012306424829159055,0.09221269623683163
0.3160862,0.11547960146683794,0.06985165739955533,0.00706466913781217,0.02574538896727696,0.12395570015577952,0.01491954471272779,0.012317981140078284,0.09251135132466287
0.3165517,0.11538098404494122,0.0704916731471902,0.0070869883407119775,0.025842045950926706,0.12426866846050852,0.014972279435800477,0.012329899520514293,0.09280981843761235
0.3170172,0.11527500300058696,0.07113345373338117,0.007108932419196905,0.025939135470155028,0.12457414501427969,0.015025241523510579,0.012342166576699379,0.09310807909500884
