Time,Rectus Femoris right,Rectus Femoris left,Hamstrings right,Hamstrings left,TibilaisÂ Anterior right,TibilaisÂ Anterior left,Gastrocnemius right,Gastrocnemius left
0.0,-0.004323927880325925,-0.0008831387499610504,0.002868754696882304,0.001545921230567533,-0.025081293326909313,0.004222051732276272,0.005443309578949761,-5.5993661314388834e-05
0.0004655,-0.004120126761058449,-0.0008610538209679904,0.002956650500784873,0.0015863134864115152,-0.024644997697772297,0.0043158234131141105,0.0056460244789813575,-2.160880707710609e-05
0.000931,-0.003916930223329206,-0.0008388655903020196,0.0030442795734260696,0.0016266133755616487,-0.024209697900960093,0.004409458670323735,0.005851197024128028,1.2868319366631166e-05
0.0013966,-0.003714366085790863,-0.0008165732207290899,0.003131627510813631,0.0016668147848442815,-0.023775451091485423,0.0045029465208662215,0.006058819722873122,4.7434463273130585e-05
0.0018621,-0.0035124619792563615,-0.0007941758327203005,0.0032186799596196206,0.0017069116188703373,-0.023342314113761968,0.004596276077969001,0.006268884530758808,8.208635794853283e-05
0.0023276,-0.003311245337104326,-0.0007716725040589791,0.00330542262227211,0.0017468978020638048,-0.022910343483537484,0.004689436555969239,0.006481382848173089,0.00011682072562200001
0.0027931,-0.0031107433857686523,-0.0007490622694708463,0.0033918412620347546,0.0017867672806876316,-0.02247959537001151,0.004782417275120776,0.0066963055182491975,0.00015163427831775444
0.0032586,-0.002910983135318839,-0.0007263441202779682,0.0034779217080702306,0.0018265140248658516,-0.02205012557814953,0.004875207666360014,0.006913642824876532,0.00018652371872534808
0.0037241,-0.0027119913701374667,-0.0007035170040771797,0.00356364986048363,0.0018661320306007513,-0.021621989531205255,0.004967797276026278,0.00713338449082253,0.00022148574106758002
0.0041897,-0.0025137946397010462,-0.0006805798244436549,0.0036490116953420697,0.0019056153217838884,-0.021195242253462306,0.005060175770532193,0.007355519675965238,0.0002565170319655212
0.0046552,-0.0023164192494702107,-0.0006575314406602757,0.0037339932696669235,0.001944957952199775,-0.02076993835320626,0.0051523329409797385,0.007580036975636675,0.00029161427130013984
0.0051207,-0.0021198912518950517,-0.0006343706674734368,0.00381858072639528,0.0019841540075210343,-0.020346132005937774,0.0052442587077176726,0.0078069244190774635,0.0003267741330700447
0.0055862,-0.0019242364375411988,-0.0006110962748759019,0.003902760299307454,0.0020231976072938593,-0.01992387693783689,0.005335943124836146,0.008036169468003548,0.0003619932862448779
0.0060517,-0.0017294803263421014,-0.0005877069879173042,0.0039865183179176,0.0020620829069126004,-0.019503226409488043,0.005427376384594392,0.008267759015285966,0.00039726839561389857
0.0065172,-0.001535648158982832,-0.0005642014865428652,0.004069841212324701,0.002100804099582314,-0.01908423319987449,0.005518548821777581,0.00850167938374477,0.00043259612262930183
0.0069828,-0.0013427648884205327,-0.0005405784054608821,0.004152715518021419,0.002139355418268127,-0.018666949590650152,0.005609450917979181,0.008737916325058286,0.00046797312624382144
0.0074483,-0.0011508551715464044,-0.0005168363340395086,0.004235127880658442,0.0021777311376302774,-0.018251427350695897,0.0057000733058054165,0.008976455018788888,0.0005033960637421621
0.0079138,-0.0009599433609938712,-0.0004929738162333284,0.004317065060762117,0.002215925575943716,-0.017837717720966487,0.005790406772998646,0.009217280071526493,0.0005388615915658141
0.0083793,-0.0007700534970972722,-0.0004689893505401832,0.004398513938403257,0.0022539330970011598,-0.017425871399633447,0.00588044226647664,0.009460375516150947,0.0005743663661308133
0.0088448,-0.0005812093000051639,-0.0004448813899886935,0.0044794615178150865,0.0022917481119985096,-0.017015938527528408,0.0059701708962848505,0.00970572481121449,0.0006099070446380295
0.0093103,-0.0003934341619520623,-0.00042064834215688364,0.004559894931958317,0.0023293650814015655,-0.016607968673890836,0.006059583939458827,0.00995331084044539,0.0006454802858755974
0.0097759,-0.0002067511396922205,-0.0003962885692223077,0.004639801447031364,0.0023667785167929747,-0.016202010822423462,0.006148672843794047,0.010203115912373793,0.000681082751013134
0.0102414,-2.1182947098845952e-05,-0.00037180038804406014,0.004719168466923785,0.0024039829826983834,-0.015798113357658395,0.006237429231520561,0.010455121760080822,0.000716711104387422
0.0107069,0.00016324805206798383,-0.0003471820702770453,0.004797983537611046,0.002440973098390782,-0.015396324051636557,0.006325844902880061,0.01070930954107189,0.0007523620142792639
0.0111724,0.0003465198512215498,-0.00032243184251887235,0.004876234351488713,0.0024777435396720476,-0.014996690050902805,0.006413911839603162,0.010965659837275188,0.0007880321536812491
0.0116379,0.000528610807833776,-0.00029754788648973123,0.004953908751644188,0.002514289040630726,-0.014599257863818906,0.006501622208284883,0.011224152655166277,0.0008237182010562067
0.0121034,0.0007094996501425515,-0.0002725283392455895,0.005030994736064077,0.002550604395375115,-0.014204073348196336,0.0065889683636564745,0.011484767426019712,0.0008594168410861663
0.012569,0.0008891654836781646,-0.00024737129342503197,0.005107480461775312,0.0025866844597407473,-0.01381118169925064,0.006675942851751794,0.01174748300628857,0.0008951247654116877
0.0130345,0.001067587797606054,-0.00022207479753003263,0.005183354248918119,0.0026225241529713927,-0.013420627437878908,0.006762538412966561,0.012012277678112717,0.0009308386733614568
0.0135,0.0012447464708832464,-0.00019663685624090682,0.005258604584749013,0.002658118459372737,-0.013032454399261643,0.0068487479850088216,0.012279129149956729,0.0009665552726720694
0.0139655,0.001420621778226039,-0.0001710554307656437,0.0053332201275719734,0.0026934624299379175,-0.012646705721790236,0.006934564705738996,0.012548014557378286,0.0010022712801979325
0.014431,0.0015951943958866842,-0.00014532843922377054,0.005407189710596051,0.0027285511839441204,-0.012263423836320978,0.007019981915897895,0.01281891046392805,0.0010379834226112272
0.0148966,0.0017684454072370353,-0.00011945375706485264,0.005480502345717682,0.0027633799105194435,-0.011882650455756389,0.007104993161721119,0.013091792862182067,0.0010736884370918826
0.0153621,0.0019403563081573012,-9.342921752169407e-05,0.005553147227225979,0.0027979438701792206,-0.011504426564954448,0.00718959219743834,0.013366637174907908,0.0011093830720075208
0.0158276,0.002110909012228248,-6.725261209826906e-05,0.005625113735429362,0.0028322383963309996,-0.01112879241096621,0.007273772987656049,0.013643418256365909,0.0011450640875833465
0.0162931,0.00228008585572535,-4.092169109238369e-05,0.005696391440201842,0.002866258896747338,-0.010755787493602084,0.007357529709622473,0.013922110393746934,0.0011807282565619744
0.0167586,0.002447869602413523,-1.4434164153037406e-05,0.005766970104447353,0.002900000855005591,-0.010385450556326968,0.007440856755373418,0.014202687308748178,0.0012163723648532018
0.0172241,0.0026142434481411917,1.2212299127576039e-05,0.005836839687480517,0.0029334598318938618,-0.010017819577484268,0.007523748733757903,0.014485122159288544,0.001251993212173739
0.0176897,0.002779191025232498,3.902006858751963e-05,0.00590599034832231,0.002966631466782297,-0.009652931761848787,0.007606200472342364,0.014769387541365241,0.001287587612676924
0.0181552,0.002942696406676505,6.59915528341374e-05,0.005974412448909124,0.002999511478958938,-0.0092908235325083,0.007688207019192303,0.015055455491053133,0.001323152395572435
0.0186207,0.003104744110112292,9.312919854879826e-05,0.006042096557213684,0.003032095668929346,-0.008931530523073546,0.00776976364453017,0.015343297486648429,0.0013586844057360218
0.0190862,0.003265319101608843,0.00012043548975752484,0.0061090334502763325,0.003064379919679206,-0.008575087570216335,0.00785086584226827,0.015632884450958288,0.001394180504309264
0.0195517,0.003424406799238718,0.00014791294706768766,0.0061752141171451365,0.00309636019789915,-0.008221528706535239,0.007931509331415443,0.015924186753737826,0.0014296375692893612
0.0200172,0.0035819930764445606,0.00017556412687096102,0.006240629761723239,0.0031280325551710105,-0.007870887153748386,0.008011690057356292,0.016217174214275872,0.001465052496108957
0.0204828,0.0037380642651976027,0.00020339162051275425,0.00630527180552187,0.0031593931291147236,-0.007523195316212632,0.008091404193001608,0.01651181610413089,0.0015004221982059874
0.0209483,0.0038926071589474236,0.00023139805342835553,0.006369131890317391,0.0031904381444951392,-0.007178484774768366,0.008170648139808735,0.016808081150018226,0.00153574360758355
0.0214138,0.00404560901536239,0.000259586084246052,0.006432201880710684,0.0032211639142879986,-0.006836786280909045,0.008249418528670492,0.017105937536849875,0.0015710136753597774
0.0218793,0.004197057558860345,0.00028795840385752213,0.006494473866587165,0.0032515668407044093,-0.006498129751274516,0.008327712220671291,0.01740535291092785,0.0016062293723076897
0.0223448,0.004346940982929298,0.00031651773445582926,0.0065559401654756485,0.0032816434161731965,-0.0061625442624669916,0.008405526307709056,0.017706294383292152,0.001641387689385004
0.0228103,0.00449524795223806,0.0003452668285413795,0.006616593324804291,0.003311390224280575,-0.005830058046188489,0.008482858112981554,0.018008728533224303,0.0016764856382538592
0.0232759,0.004641967604536943,0.0003742084678962414,0.00667642612405178,0.003340803940666657,-0.005500698484698419,0.008559705191335787,0.01831262141190724,0.001711520251790421
0.0237414,0.004787089552348831,0.0004033454625272565,0.006735431576792015,0.0033698813338783815,-0.005174492106589935,0.008636065329479178,0.018617938546242305,0.0017464885845843202
0.0242069,0.004930603884451066,0.0004326806495783986,0.006793602932630531,0.0033986192661785127,-0.004851464582883514,0.008711936546051397,0.01892464494282394,0.0017813877134278814
0.0246724,0.005072501167148735,0.00046221689221287085,0.006850933679031051,0.0034270146943104055,-0.004531640723436165,0.00878731709155575,0.01923270509207252,0.0018162147377950991
0.0251379,0.005212772445340071,0.000491957078465453,0.006907417543030649,0.003455064670218299,-0.004215044473664589,0.008862205448149281,0.019542082972525673,0.0018509667803103054
0.0256034,0.005351409243374734,0.0005219041200656324,0.006963048492842204,0.003482766341722926,-0.0039016989115804954,0.00893660032929071,0.019852742055288305,0.0018856409872064776
0.026069,0.005488403565705855,0.0005520609512320735,0.00701782073934306,0.0035101169531522596,-0.003591626245136222,0.009010500679245453,0.020164645308641253,0.0019202345287731187
0.0265345,0.005623747897336753,0.0005824305274389955,0.007071728737449057,0.003537113845927233,-0.0032848478098787054,0.00908390567244704,0.020477755202808604,0.001954744599793643
0.027,0.005757435204063328,0.0006130158241550391,0.007124767187373409,0.003563754459102268,-0.002981384066909823,0.009156814712714343,0.02079203371488346,0.0019891684199721924
0.0274655,0.005889458932513181,0.0006438198355552174,0.007176931035770154,0.003590036329860459,-0.002681254601151036,0.009229227432324098,0.02110744233391202,0.002023503234349796
0.027931,0.006019813009982562,0.0006748455732065563,0.007228215476762129,0.0036159570939632672,-0.002384478119910202,0.00930114369093839,0.021423942066135734,0.002057746313709781
0.0283966,0.006148491844072287,0.0007060960647280497,0.007278615952853584,0.0036415144861546354,-0.0020910724517483304,0.009372563574386795,0.021741493440391498,0.002091894954972332
0.0288621,0.00627549032212375,0.0007375743524255712,0.007328128155727623,0.003666706340519443,-0.0018010545456439264,0.009443487393302964,0.02206005651366973,0.0021259464815781073
0.0293276,0.006400803810456176,0.0007692834919024088,0.007376748026928809,0.0036915305907963382,-0.0015144404704524252,0.009513915681615488,0.02237959087683021,0.0021598982438608204
0.0297931,0.006524428153406215,0.0008012265506460943,0.007424471758431297,0.003715985270645029,-0.0012312454146580832,0.00958384919489295,0.02270005566047554,0.0021937476194087155
0.0302586,0.006646359672171065,0.000833406606592214,0.007471295793093048,0.0037400685138681998,-0.0009514836864155491,0.009653288908543122,0.023021409540982023,0.002227492013414871
0.0307241,0.006766595163456399,0.0008658267466658876,0.007517216824996717,0.0037637785545882947,-0.0006751687138782294,0.009722236015866524,0.023343610746687733,0.0022611288590162816
0.0311897,0.006885131897930543,0.0008984900653016106,0.007562231799677946,0.0037871137273794834,-0.00040231304581045434,0.009790691925964809,0.02366661706423753,0.002294655617621676
0.0316552,0.00700196761848655,0.0009313996629421708,0.007606337914241871,0.0038100724673551627,-0.00013292835248036533,0.009858658261504841,0.023990385845084648,0.0023280697792280505
0.0321207,0.0071171005383141,0.0009645586445173794,0.007649532617368754,0.0038326533102114057,0.00013297457316963424,0.00992613685633961,0.024314874012148498,0.0023613688627258994
0.0325862,0.007230529338783453,0.0009979701179033862,0.007691813609209742,0.0038548548922267673,0.0003953858140780892,0.009993129752987433,0.024640038066628178,0.002394550416193128
0.0330517,0.007342253167143946,0.0010316371923633886,0.007733178841173822,0.0038766759502188684,0.000654296327348651,0.010059639199971122,0.024965834094971173,0.00242761201717763
0.0335172,0.007452271634039817,0.0010655629769705654,0.007773626515607154,0.003898115321458185,0.0009096979422665251,0.01012566764901914,0.025292217775996623,0.002460551272968493
0.0339828,0.007560584810846343,0.0010997505790140908,0.007813155085366034,0.003919171943539471,0.0011615833580506012,0.010191217752131146,0.025619144388172636,0.002493365820855809
0.0344483,0.00766719322682939,0.0011342031023890932,0.007851763253284821,0.003939844854211273,0.001409946141344688,0.010256292358510754,0.02594656881704688,0.002526053328379035
0.0349138,0.007772097866131584,0.0011689236459714132,0.00788944997154023,0.003960133191164025,0.001654780723451305,0.010320894511368832,0.026274445562829728,0.002558611493563867
0.0353793,0.007875300164588327,0.00120391530197803,0.00792621444091346,0.003980036191777234,0.001896082397311493,0.010385027444601031,0.02660272874812887,0.0025910380451475844
0.0358448,0.007976802006376923,0.0012391811543140045,0.007962056109951703,0.003999553192826301,0.002133847314234112,0.010448694579343639,0.026931372125834414,0.002623330742792816
0.0363103,0.008076605720502167,0.001274724276906795,0.007996974674030648,0.004018683630149561,0.0023680724803781085,0.010511899520412026,0.027260329087153163,0.002655487377289696
0.0367759,0.00817471407712182,0.0013105477320287941,0.008030970074319617,0.004037427038276138,0.002598755752991263,0.010574646052626252,0.027589552669790726,0.002687505770746373
0.0372414,0.008271130283715473,0.0013466545686089278,0.008064042496651073,0.004055783050015244,0.002825895836408957,0.010636938137028549,0.027918995566280053,0.002719383776767848
0.0377069,0.008365857981100374,0.0013830478205341785,0.008096192370296308,0.00407375139600757,0.003049492277816513,0.010698779906997588,0.02824861013245478,0.002751119280623093
0.0381724,0.00845890123929784,0.0014197305049418983,0.008127420366649154,0.00409133190423944,0.003269545462778689,0.01076017566426457,0.028578348396065757,0.0027827101994004418
0.0386379,0.008550264553253861,0.0014567056205038072,0.008157727397819649,0.004108524499520381,0.0034860566105399263,0.01082112987483612,0.02890816206553899,0.0028141544821512054
0.0391034,0.008639952838417545,0.0014939761457025819,0.008187114615139629,0.004125329202924815,0.003699027769098916,0.010881647164828968,0.029238002538873206,0.0028454501100214887
0.039569,0.008727971426180996,0.0015315450371019656,0.008215583407582288,0.004141746131198581,0.003908461810061052,0.010941732316221336,0.029567820912675166,0.002876595096372176
0.0400345,0.008814326059184235,0.001569415227611322,0.008243135400097799,0.004157775496131014,0.004114362423272315,0.011001390262525905,0.029897567991330882,0.0029075874868870542
0.0405,0.008899022886488648,0.00160758962474556,0.008269772451867169,0.004173417603893274,0.004316734111238126,0.01106062608438923,0.030227194296311058,0.0029384253596690443
0.0409655,0.008982068458622488,0.0016460711088813532,0.008295496654476526,0.0041886728543436965,0.004515582183330701,0.011119445005122389,0.030556650075609273,0.0029691068253245158
0.041431,0.009063469722501811,0.0016848625315105648,0.008320310330014114,0.004203541740300885,0.004710912749788375,0.011177852386167631,0.030885885313311334,0.002999630027035694
0.0418966,0.00914323401623019,0.0017239667134917912,0.008344216029092234,0.004218024846785307,0.004902732715510401,0.011235853722505762,0.031214849739294462,0.003029993140621187
0.0423621,0.00922136906378058,0.0017633864433009225,0.00836721652879639,0.004232122850230144,0.005091049773650664,0.011293454638008963,0.03154349283905471,0.003060194374584695
0.0428276,0.009297882969562656,0.0018031244752816126,0.008389314830563864,0.004245836517662153,0.005275872399013752,0.011350660880743652,0.031871763863660856,0.003090231970152001
0.0432931,0.009372784212878882,0.0018431835278965437,0.008410514157993865,0.004259166705853318,0.005457209841256829,0.01140747831822797,0.032199611839832984,0.003120104201296377
0.0437586,0.009446081642272683,0.0018835662819803606,0.008430817954591427,0.004272114360444057,0.0056350721179007635,0.011463912932648429,0.032526985580143476,0.003149809374752576
0.0442241,0.009517784469772014,0.0019242753789951437,0.008450229881447122,0.004284680515038823,0.005809470007153997,0.011519970816040134,0.032853833693338226,0.003179345830019613
0.0446897,0.009587902265031584,0.0019653134192892893,0.008468753814854705,0.0042968662902749056,0.005980415040552678,0.011575658165434965,0.03318010459477536,0.0032087119393525436
0.0451552,0.00965644494937704,0.002006682960360654,0.008486393843868746,0.004308672892865316,0.006147919495420644,0.011630981277982008,0.033505746516979004,0.003237906107743486
0.0456207,0.009723422789754367,0.002048386515124806,0.008503154267804248,0.00432010161461663,0.006311996387152874,0.011685946546044415,0.03383070752030494,0.0032669267728921013
0.0460862,0.009788846392587699,0.0020904265501892226,0.008519039593680331,0.004331153831422711,0.006472659461326048,0.011740560452276881,0.03415493550371534,0.00329577240516577
0.0465517,0.009852726697548775,0.002132805484134259,0.008534054533609945,0.004341831002235221,0.006629923185639864,0.011794829564687755,0.034478378215659064,0.0033244415075496547
0.0470172,0.009915074971241169,0.0021755256858017073,0.008548204002137634,0.004352134668011859,0.006783802741692796,0.011848760531689831,0.0348009832650541,0.003352932615586845
0.0474828,0.009975902800802443,0.002218589472591781,0.008561493113527292,0.004362066450643266,0.006934314016595928,0.011902360077143664,0.03512269813236832,0.003381244297308737
0.0479483,0.010035222087427286,0.0022619991087693522,0.008573927179001899,0.004371628051859512,0.007081473594428548,0.011955634995397242,0.03544347018079444,0.0034093751531557954
0.0484138,0.010093045039814633,0.0023057568037802866,0.00858551170393725,0.004380821252117101,0.007225298747539162,0.012008592146325728,0.03576324666751496,0.0034373238158888
0.0488793,0.010149384167541759,0.002349864710578703,0.008596252385011665,0.00438964790946741,0.007365807427695646,0.012061238450374911,0.03608197475505242,0.003465088950490691
0.0493448,0.01020425227436824,0.0023943249239660016,0.0086061551073137,0.00439810995840749,0.007503018257088154,0.012113580883611913,0.03639960152270011,0.003492669254059107
0.0498103,0.0102576624514726,0.0024391394789424602,0.008615225941409845,0.004406209408714144,0.0076369505191884604,0.012165626472786604,0.03671607397802813,0.003520063455689716
0.0502759,0.010309628070624447,0.0024843103490722134,0.00862347114037424,0.004413948344262211,0.007767624149469316,0.012217382290407126,0.037031339068459394,0.003547270316350483
0.0507414,0.01036016277729491,0.0025298394448623903,0.008630897136782386,0.0044213289218279755,0.007895059725987386,0.012268855449832881,0.03734534369290968,0.0035742886287470055
0.0512069,0.010409280483708138,0.0025757286121571824,0.008637510539670752,0.0044283533698785986,0.008019278459833265,0.01232005310038819,0.0376580347134859,0.003601117217179091
0.0516724,0.010456995361836734,0.002621979630547591,0.008643318131464258,0.0044350239873484545,0.008140302185452048,0.01237098242249984,0.03796935896723637,0.003627754937388731
0.0521379,0.010503321836344006,0.002668594211797591,0.008648326864873455,0.00444134314240325,0.00825815335083788,0.012421650622861694,0.03827926327794657,0.003654200676399636
0.0526034,0.010548274577476017,0.00271557399828743,0.008652543859763233,0.004447313271192753,0.008372855007605835,0.012472064929629486,0.03858769446797451,0.0036804533523484865
0.053069,0.010591868493906493,0.0027629205614747884,0.008655976399994825,0.00445293687659295,0.00848443080094448,0.012522232587648872,0.038894599370119715,0.0037065119143080308
0.0535345,0.0106341187255377,0.0028106354003745314,0.008658631930242822,0.004458216526938439,0.008592904959452426,0.012572160853719797,0.03919992483952071,0.003732375342102216
0.054,0.010675040636260472,0.0028587199400577946,0.00866051805278888,0.004463154854745817,0.0086983022848621,0.012621856991900233,0.03950361776557657,0.0037580426461135087
0.0544655,0.010714649806676588,0.0029071755301711636,0.008661642524293703,0.004467754555428828,0.008800648141654028,0.012671328268852157,0.03980562508388863,0.003783512867082617
0.054931,0.01075296202678676,0.002956003443476716,0.008662013252548853,0.004472018386005993,0.008899968446564849,0.012720581949232635,0.04010589378821887,0.003808785075900837
0.0553966,0.010789993288647345,0.003005204874413684,0.008661638293209855,0.004475949163801433,0.008996289657992379,0.012769625291132729,0.0404043709424622,0.003833858373395269
0.0558621,0.010825759778998979,0.0030547809376824876,0.008660525846512035,0.004479549765139567,0.009089638765301026,0.012818465541566867,0.040701003692629925,0.00385873189010716
0.0563276,0.01086027787187017,0.003104732666851868,0.008658684253970456,0.004482823124034352,0.009180043278030939,0.012867109932015213,0.04099573927884258,0.003883404786063649
0.0567931,0.010893564121158904,0.003155061012989828,0.008656121995065318,0.004485772230873711,0.009267531215014337,0.01291556567402149,0.04128852504733132,0.003907876250543181
0.0572586,0.010925635253195266,0.0032057668433190917,0.00865284768391409,0.004488400131099796,0.009352131093402495,0.012963839954848629,0.041579308462448124,0.00393214550183491
0.0577241,0.010956508159288003,0.0032568509398977403,0.008648870065931711,0.0044907099238856805,0.009433871917606905,0.013011939933194508,0.04186803711868572,0.003956211786992409
0.0581897,0.010986199888257954,0.0033083139983256927,0.008644198014480143,0.004492704760809069,0.009512783168158227,0.01305987273497002,0.04215465875270919,0.003980074381582042
0.0586552,0.01101472763896126,0.0033601566264776944,0.008638840527508573,0.004494387844523556,0.009588894790486595,0.013107645449141532,0.04243912125540131,0.0040037325894263665
0.0591207,0.011042108752805172,0.003412379343263465,0.008632806724185538,0.004495762427427958,0.00966223718362696,0.013155265123639815,0.04272137268392375,0.004027185742342949
0.0595862,0.011068360706259212,0.003464982577415676,0.008626105841524274,0.004496831810334185,0.009732841188853099,0.013202738761337327,0.043001361273796376,0.004050433199878979
0.0600517,0.011093501103364444,0.003517966666306412,0.00861874723100255,0.0044975993411341345,0.009800738078244,0.01325007331609563,0.04327903545099629,0.004073474349042065
0.0605172,0.01111754766824346,0.0035713318547927787,0.008610740355178175,0.0044980684134660635,0.009865959543186283,0.01329727568888468,0.043554343844078296,0.004096308604027606
0.0609828,0.011140518237613655,0.0036250782940923107,0.008602094784301417,0.004498242465380898,0.009928537682816393,0.01334435272397554,0.04382723529631808,0.004118935405943092
0.0614483,0.011162430753306267,0.003679206040688808,0.008592820192925434,0.004498124978008954,0.009988504992406229,0.013391311205208057,0.04409765887787905,0.004141354222529709
0.0619138,0.011183303254793612,0.003733715055269247,0.008582926356515821,0.004497719474227519,0.010045894351695896,0.013438157852334867,0.044365563898003293,0.004163564547881571
0.0623793,0.011203153871726802,0.0037886052016923577,0.008572423148060315,0.004497029517329743,0.010100739013177276,0.013484899317443077,0.04463089991722681,0.004185565902162894
0.0628448,0.011222000816486232,0.0038438762459895004,0.008561320534679681,0.004496058709695267,0.010153072590332051,0.013531542181454947,0.04489361675961901,0.004207357831323396
0.0633103,0.01123986237674704,0.0038995278553984403,0.008549628574240804,0.004494810691462988,0.010202929045827801,0.01357809295070876,0.04515366452504586,0.004228939906812179
0.0637759,0.01125675690806176,0.003955559597430634,0.008537357411972884,0.00449328913920633,0.0102503426796758,0.013624558053621104,0.0454109936014558,0.004250311725290355
0.0642414,0.011272702826462488,0.004011970938972632,0.008524517277087723,0.004491497764611372,0.010295348117354068,0.013670943837431693,0.045665554677187484,0.004271472908342585
0.0647069,0.011287718601084967,0.004068761245422204,0.008511118479404958,0.0044894403131581495,0.010337980297899202,0.01371725656503179,0.04591729875329784,0.00429242310218776
0.0651724,0.011301822746817092,0.004125929779859746,0.00849717140598309,0.004487120562805391,0.010378274461970495,0.01376350241187727,0.04616617715590888,0.004313161977388975
0.0656379,0.011315033816974523,0.004183475702255553,0.008482686517757215,0.00448454232267894,0.010416266139889776,0.013809687462987264,0.046412141548571186,0.004333689228562952
0.0661034,0.01132737039600605,0.00424139806871348,0.008467674346184268,0.004481709431764078,0.010451991139660393,0.013855817710029186,0.04665514394464198,0.00435400457408907
0.066569,0.011338851092231452,0.004299695830751485,0.008452145489896609,0.00447862575760191,0.010485485534968704,0.013901899048490925,0.04689513671967519,0.0043741077558181254
0.0670345,0.011349494530614464,0.004358367834619548,0.008436110611364763,0.004475295194989981,0.01051678565317137,0.013947937274940815,0.04713207262382074,0.004393998538780995
0.0675,0.011359319345573547,0.004417412820655402,0.00841958043357009,0.004471721664687271,0.010545928063271743,0.01399393808437588,0.04736590479422986,0.0044136767108973515
0.0679655,0.01136834417383309,0.004476829422678509,0.008402565736688112,0.004467909112123705,0.010572949563888568,0.014039907067658822,0.04759658676746297,0.004433142082684634
0.068431,0.011376587647317641,0.0045366161674226715,0.008385077354783214,0.004463861506114344,0.010597887171220163,0.014085849709044067,0.04782407249189636,0.004452394486967508
0.0688966,0.011384068386091906,0.004596771474007661,0.008367126172515445,0.004459582837578409,0.010620778107007213,0.01413177138379319,0.048048316340123506,0.004471433778588089
0.0693621,0.011390804991349167,0.004657293653450228,0.008348723121860057,0.004455077118263328,0.010641659786497197,0.014177677355879874,0.04826927312134634,0.004490259834117222
0.0698276,0.01139681603845081,0.004718180908214807,0.008329879178840446,0.0044503483794740275,0.010660569806413512,0.014223572775784616,0.048486898093751556,0.004508872551567119
0.0702931,0.01140212007001972,0.004779431331804252,0.008310605360275223,0.0044454006708076746,0.010677545932932322,0.014269462678379223,0.0487011469768667,0.004527271850105667
0.0707586,0.011406735589090219,0.004841042908390878,0.008290912720540153,0.004440238058894144,0.010692626089670197,0.014315351980901165,0.04891197596389043,0.004545457669772718
0.0712241,0.011410681052317283,0.004903013512488103,0.00827081234834576,0.004434864626142484,0.010705848345685734,0.014361245481017769,0.049119341733991136,0.004563429971198688
0.0716897,0.01141397486324763,0.004965340908662974,0.008250315363531484,0.004429284469493709,0.010717250903498413,0.014407147854980191,0.04932320146456841,0.004581188735325772
0.0721552,0.011416635365655339,0.005028022751289882,0.008229432913877318,0.0044235016991802665,0.010726872087128086,0.014453063655867071,0.0495235128434715,0.004598733963132145
0.0726207,0.011418680836944525,0.005091056584345746,0.008208176171933937,0.004417520437492584,0.010734750330158624,0.01449899731191771,0.049720234081169275,0.00461606567535948
0.0730862,0.011420129481621528,0.005154439841247014,0.008186556331872328,0.004411344817553114,0.0107409241638293,0.014544953124954593,0.04991332392286579,0.004633183912244152
0.0735517,0.011420999424839056,0.005218169844728761,0.00816458460635395,0.004404978982098319,0.010745432205157543,0.014590935268895084,0.05010274166055569,0.004650088733252464
0.0740172,0.011421308706014523,0.005282243806766227,0.00814227222342242,0.004398427082269041,0.010748313145096696,0.014636947788352134,0.05028844714501343,0.004666780216820247
0.0744828,0.01142107527252487,0.005346658828539062,0.008119630423417642,0.004391693276409713,0.01074960573673233,0.014682994597323818,0.0504704007977105,0.004683258460097167
0.0749483,0.011420316973479982,0.005411411900438552,0.008096670455913314,0.004384781728876863,0.010749348783520773,0.014729079477971594,0.05064856362265456,0.0046995235786960726
0.0754138,0.011419051553576792,0.0054764999021180575,0.008073403576678635,0.0043776966088573555,0.01074758112757339,0.014775206079487069,0.050822897218144786,0.004715575706447681
0.0758793,0.01141729664703608,0.005541919602586887,0.008049841044665107,0.004370442089196788,0.010744341637990273,0.01482137791704715,0.050993363788437204,0.004731414995160889
0.0763448,0.011415069771623971,0.005607667660347767,0.008025994119019308,0.004363022345238489,0.01073966919924687,0.01486759837085739,0.05115992615531418,0.004747041614388985
0.0768103,0.011412388322760007,0.005673740623578057,0.008001874056122635,0.004355441553673474,0.010733602699637145,0.01491387068528335,0.05132254776955207,0.004762455751202011
0.0772759,0.01140926956771371,0.005740134930354821,0.007977492106659056,0.004347703891401747,0.010726181019776754,0.014960197968069732,0.051481192722281105,0.004777657609965528
0.0777414,0.011405730639891554,0.00580684690892385,0.00795285951271202,0.004339813534405282,0.010717443021169734,0.01500658318964703,0.05163582575623157,0.0047926474121259876
0.0782069,0.011401788533216137,0.005873872778012658,0.007927987504891694,0.0043317746566330015,0.010707427534842289,0.015053029182525483,0.05178641227686022,0.00480742539600292
0.0786724,0.011397460096599431,0.005941208647187434,0.007902887299493695,0.004323591428898059,0.01069617335004727,0.015099538640776037,0.05193291836335063,0.004821991816588135
0.0791379,0.011392762028511806,0.006008850517253901,0.007877570095690461,0.004315268017787687,0.010683719203042995,0.015146114119597983,0.05207531077948132,0.004836346945352102
0.0796034,0.011387710871648657,0.006076794280701985,0.007852047072756373,0.004306808584585873,0.010670103765950059,0.015192758034972983,0.05221355698435535,0.004850491070057672
0.080069,0.011382323007696328,0.006145035722194172,0.00782632938732767,0.0042982172842090886,0.010655365635689844,0.015239472663405031,0.05234762514298555,0.004864424494581258
0.0805345,0.011376614652199085,0.006213570519097394,0.0078004281706981924,0.004289498264155267,0.010639543323008345,0.015286260141745892,0.05247748413673019,0.004878147538741592
0.081,0.011370601849528874,0.006282394242058307,0.0077743545261519395,0.00428065566346621,0.010622675241588941,0.015333122467105465,0.052603103573574124,0.004891660538136101
0.0814655,0.011364300467959583,0.0063515023556217414,0.0077481195263334295,0.0042716936117035455,0.010604799697257703,0.015380061496846365,0.05272445379825096,0.004904963843984965
0.081931,0.011357726194847541,0.006420890218892167,0.007721734210656834,0.004262616227938365,0.010585954877284713,0.015427078948661951,0.05284150590220222,0.004918057822982898
0.0823966,0.011350894531919896,0.006490553086237923,0.0076952095827548155,0.004253427619754622,0.010566178839784904,0.015474176400736903,0.0529542317333704,0.0049309428571586355
0.0828621,0.011343820790672568,0.0065604861080379925,0.0076685566079679945,0.004244131882266361,0.010545509503221723,0.015521355291989296,0.05306260390582348,0.004943619343742169
0.0833276,0.011336520087879307,0.006630684331470993,0.007641786210875921,0.0042347330971488064,0.010523984636016928,0.015568616922393086,0.05316659580920909,0.0049560876950397155
0.0837931,0.011329007341213341,0.006701142701346044,0.007614909272870376,0.004225235331683388,0.010501641846269682,0.015615962453379706,0.053266181618036826,0.004968348338316442
0.0842586,0.011321297264983052,0.006771856060975112,0.00758793662977183,0.004215642637816693,0.01047851857158807,0.0156633929083175,0.05336133630078732,0.004980401715686938
0.0847241,0.011313404365983019,0.006842819153086377,0.007560879069489813,0.004205959051233413,0.010454652069036039,0.015710909173067642,0.05345203562884653,0.004992248284013442
0.0851897,0.011305342939461654,0.006914026620778149,0.007533747329727946,0.0041961885904433106,0.010430079405198705,0.01575851199661522,0.05353825618526355,0.005003888514811794
0.0856552,0.011297127065206676,0.006985473008512866,0.007506552095734323,0.0041863352558822895,0.010404837446368836,0.0158062019917741,0.053619975373330735,0.005015322894165083
0.0861207,0.011288770603749578,0.007057152763150687,0.0074793039980978766,0.004176403029027659,0.010378962848857282,0.015853979635964244,0.053697171424985396,0.005026551922644899
0.0865862,0.011280287192690202,0.00712906023502226,0.007452013610591352,0.004166395871527741,0.010352492049429994,0.015901845272060223,0.0537698234090325,0.00503757611524009
0.0870517,0.01127169024314246,0.007201189679040266,0.007424691448061426,0.004156317724345977,0.010325461255874193,0.01594979910930966,0.05383791123918864,0.005048396001292896
0.0875172,0.011262992936302268,0.007273535255849371,0.007397347964366505,0.004146172506919689,0.010297906437696146,0.0159978412243204,0.053901415681947736,0.005059012124442273
0.0879828,0.01125420822013862,0.007346091033014211,0.007369993550362647,0.004135964116333691,0.010269863316952966,0.01604597156211524,0.0539603183642685,0.0050694250425742365
0.0884483,0.011245348806208737,0.007418850986245068,0.007342638531938035,0.0041256964265089105,0.01024136735922071,0.016094189937253034,0.05401460178108441,0.005079635327778967
0.0889138,0.011236427166598157,0.007491809000660811,0.007315293168096357,0.004115373287406175,0.010212453764700974,0.01614249603501508,0.05406424930263639,0.005089643566314454
0.0893793,0.011227455530986623,0.007564958872088736,0.007287967649089421,0.004104998524245278,0.010183157459468148,0.0161908894126555,0.05410924518162862,0.005099450358576363
0.0898448,0.01121844588384046,0.007638294308400861,0.007260672094599259,0.004094575936739442,0.010153513086859332,0.01623936950071445,0.05414957456020775,0.005109056319073813
0.0903103,0.011209409961732144,0.007711808930886232,0.007233416551969942,0.004084109298345217,0.010123554999008914,0.01628793560439297,0.054185223476765694,0.005118462076410731
0.0907759,0.01120035925078766,0.007785496275658764,0.007206210994489284,0.004073602355527869,0.010093317248529682,0.01633658690498832,0.05421617887256609,0.0051276682732724526
0.0912414,0.01119130498426213,0.007859349795100078,0.007179065319720527,0.004063058827042241,0.01006283358034231,0.01638532246138866,0.05424242859819412,0.00513667556641724
0.0917069,0.011182258140244155,0.007933362859336839,0.0071519893478840975,0.004052482403229096,0.010032137423654938,0.016434141211625994,0.05426396141982903,0.005145484626672398
0.0921724,0.011173229439489236,0.008007528757751995,0.007124992820289408,0.0040418767453269,0.010001261884094524,0.016483041974486308,0.054280767025338746,0.0051540961389347035
0.0926379,0.011164229343382523,0.008081840700529311,0.007098085397816683,0.004031245484798987,0.009970239735991612,0.01653202345117588,0.05429283603019515,0.005162510802174897
0.0931034,0.011155268052031094,0.008156291820230602,0.007071276659448709,0.004020592222676077,0.00993910341482,0.016581084227042856,0.05430015998320855,0.005170729329445977
0.093569,0.011146355502485864,0.008230875173404983,0.007044576100852344,0.004009920528914046,0.009907885009792845,0.01663022277335323,0.05430273137207939,0.0051787524478951056
0.0940345,0.011137501367093154,0.008305583742229526,0.007017993133009597,0.003999233941766878,0.009876616256616582,0.016679437449120524,0.054300543628765144,0.005186580898778913
0.0945,0.011128715051975848,0.008380410436180659,0.0069915370808979905,0.0039885359671746855,0.009845328530404032,0.016728726502988463,0.05429359113466027,0.005194215437482024
0.0949655,0.011120005695644024,0.00845534809373573,0.006965217182219899,0.003977830078166674,0.009814052838747986,0.016778088075165926,0.05428186922558661,0.005201656833538639
0.095431,0.011111382167734931,0.008530389484104135,0.006939042586180479,0.003967119714278889,0.009782819814956472,0.0168275201994135,0.054265374196591755,0.0052089058706570115
0.0958966,0.011102853067882095,0.0086055273089874,0.006913022352313737,0.003956408280986572,0.009751659711450873,0.016877020805080793,0.05424410330655259,0.005215963346746688
0.0963621,0.01109442672471336,0.008680754204367617,0.00688716544935626,0.003945699149150957,0.009720602393327992,0.01692658771919361,0.05421805478258092,0.005222830073948379
0.0968276,0.011086111194977601,0.00875606274232362,0.006861480754168038,0.003934995654480333,0.009689677332087098,0.016976218668590035,0.0541872278242281,0.005229506878666346
0.0972931,0.011077914262799854,0.00883144543287425,0.006835977050699771,0.003924301097005233,0.009658913599522909,0.017025911282104306,0.0541516226074857,0.005235994601603191
0.0977586,0.011069843439064524,0.008906894725848102,0.00681066302900601,0.003913618740567621,0.009628339861785374,0.017075663092797382,0.05411124028857927,0.005242294097796898
0.0982241,0.01106190596092627,0.008982403012779054,0.006785547284303357,0.003902951812324021,0.009597984373607071,0.017125471540232945,0.05406608300755251,0.005248406236660006
0.0986897,0.011054108791448103,0.009057962628826955,0.006760638316072972,0.0038923035022625256,0.009567874972698948,0.01717533397279757,0.05401615389163918,0.005254331902020711
0.0991552,0.011046458619366173,0.009133565854722754,0.00673594452720654,0.0038816769627336707,0.009538039074315071,0.01722524765006366,0.0539614570584201,0.005260071992165701
0.0996207,0.011038961858980643,0.009209204918737343,0.006711474223194818,0.003871075307995174,0.009508503665986922,0.01727520974519369,0.05390199761876199,0.005265627419884478
0.1000862,0.011031624650171948,0.009284871998673434,0.006687235611357788,0.0038605016137705558,0.009479295302427726,0.017325217347384226,0.0538377816795351,0.005270999112514863
0.1005517,0.011024452858541693,0.009360559223879655,0.006663236800115461,0.0038499589168216656,0.00945044010060725,0.0173752674643481,0.053768816346105655,0.00527618801198937
0.1010172,0.01101745207567735,0.009436258677286147,0.006639485798298292,0.0038394502145351495,0.009421963734997364,0.017425357024833187,0.05369510972459933,0.005281195074882104
0.1014828,0.011010627619539786,0.009511962397460813,0.0066159905144961275,0.003828978464522882,0.009393891432988667,0.017475482881176094,0.05361667092393122,0.00528602127245582
0.1019483,0.011003984534972654,0.009587662380685444,0.006592758756444585,0.003818546584236394,0.009366247970478352,0.01752564181188922,0.05353351005759791,0.005290667590708736
0.1024138,0.010997527594332566,0.00966335058305084,0.006569798230447714,0.0038081574505952993,0.009339057667629463,0.017575830524279325,0.05344563824522698,0.005295135030420719
0.1028793,0.010991261298238943,0.009739018922570114,0.0065471165408357975,0.003797813899629729,0.009312344384801639,0.017626045657095808,0.05335306761387923,0.005299424607198458
0.1033448,0.010985189876442435,0.009814659281309248,0.006524721189457101,0.0037875187261367767,0.009286131518653318,0.01767628378320671,0.053255811299099114,0.0053035373515191945
0.1038103,0.010979317288810748,0.009890263507534027,0.006502619575202378,0.003777274683350992,0.009260441998415452,0.017726541412300255,0.05315388344570897,0.005307474308772653
0.1042759,0.010973647226430688,0.009965823417872407,0.0064808189935609386,0.0037670844826289663,0.009235298282336605,0.017776814993609683,0.053047299208342946,0.0053112365393007495
0.1047414,0.010968183112825254,0.010041330799491403,0.006459326636207071,0.00375695079314809,0.009210722354299325,0.017827100918658842,0.052936074751716855,0.005314825118434705
0.1052069,0.010962928105284505,0.010116777412287508,0.006438149590615644,0.003746876241619577,0.009186735720607634,0.01787739552402604,0.052820227250630396,0.005318241136529158
0.1056724,0.010957885096308946,0.010192154991089693,0.006417294839705693,0.0037368634120158875,0.009163359406945404,0.017927695094123345,0.05269977488969841,0.0053214856989928306
0.1061379,0.010953056715164123,0.010267455247873971,0.00639676926151087,0.0037269148453126914,0.009140613955505373,0.0179779958639886,0.05257473686280781,0.005324559926315305
0.1066034,0.010948445329545111,0.010342669873988533,0.006376579628875609,0.0037170330392455177,0.00911851942228849,0.018028294022087235,0.05244513337229738,0.005327464954089437
0.107069,0.01094405304734948,0.010417790542388396,0.006356732609175949,0.0037072204480812676,0.009097095374573228,0.018078585713120973,0.0523109856278573,0.0053302019330288926
0.1075345,0.010939881718557285,0.010492808909878545,0.006337234764063982,0.0036974794824047533,0.009076360888554482,0.018128867040840376,0.05217231584514547,0.00533277202898034
0.108,0.010935932937216557,0.010567716619364498,0.006318092549234933,0.0036878125089204387,0.00905633454715157,0.0181791340708582,0.05202914724411778,0.005335176422929848
0.1084655,0.010932208043532681,0.010642505302109204,0.0062993123142159515,0.0036782218502695303,0.00903703443798487,0.018229382833460338,0.05188150404706934,0.005337416311003061
0.108931,0.010928708126060003,0.010717166579995161,0.006280900302175742,0.0036687097848625604,0.009018478151520504,0.01827960932641096,0.05172941147638355,0.005339492904458771
0.1093966,0.01092543402399387,0.010791692067790681,0.006262862649754177,0.0036592785467275727,0.009000682779382464,0.0183298095177485,0.05157289575198558,0.0053414074296755445
0.1098621,0.01092238632956129,0.010866073375419196,0.006245205386911071,0.003649930325373988,0.008983664912831495,0.01837997934856899,0.05141198408849665,0.0053431611281311
0.1103276,0.010919565390508288,0.010940302110230673,0.006227934436793348,0.003640667265672219,0.008967440641410005,0.018430114735793247,0.051246704692085074,0.005344755256374175
0.1107931,0.010916971312682107,0.011014369879274295,0.006211055615619857,0.003631491467749082,0.008952025551752184,0.01848021157491449,0.05107708675701008,0.0053461910859886495
0.1112586,0.010914603962706267,0.011088268291571678,0.006194574632583192,0.003622404986899033,0.008937434726558441,0.018530265742722984,0.05090316046185365,0.005347469903549784
0.1117241,0.010912462970746599,0.011161988960390045,0.006178497089767879,0.0036134098335112385,0.008923682743733194,0.018580273100004277,0.05072495696543551,0.005348593010572458
0.1121897,0.01091054773336631,0.011235523505514794,0.006162828482084435,0.0036045079730124604,0.008910783675684994,0.018630229494207742,0.0505425084024059,0.00534956172345136
0.1126552,0.010908857416468087,0.011308863555520937,0.006147574197218912,0.0035957013258257424,0.008898751088787855,0.018680130762082026,0.05035584787851045,0.005350377373393149
0.1131207,0.01090739095832125,0.011382000750042792,0.006132739515597606,0.003586991767344858,0.00888759804300261,0.01872997273227412,0.05016500946552133,0.005351041306340697
0.1135862,0.010906147072671913,0.01145492674204139,0.0061183296103667776,0.003578381127924479,0.008877337091657053,0.018779751227888938,0.049970028195828554,0.005351554882889511
0.1140517,0.010905124251934035,0.011527633200068879,0.006104349547387185,0.003569871192886022,0.008867980281383525,0.018829462069006316,0.04977094005668533,0.005351919478196535
0.1145172,0.010904320770459178,0.011600111810529187,0.006090804285243366,0.0035614637025391206,0.008859539152212563,0.01887910107515258,0.04956778198410141,0.005352136481881528
0.1149828,0.01090373468788277,0.011672354279934148,0.006077698675267498,0.0035531603522186766,0.008852024737821165,0.018928664067723876,0.04936059185637808,0.005352207297921249
0.1154483,0.010903363852544588,0.011744352337154207,0.006065037461577688,0.0035449627923374387,0.008845447565934143,0.018978146872358666,0.049149408487278494,0.005352133344536627
0.1159138,0.010903205904981197,0.011816097735662792,0.006052825281130521,0.003536872628454055,0.00883981765887699,0.01902754532125717,0.048934271618827054,0.005351916054073193
0.1163793,0.010903258281487978,0.011887582255773393,0.006041066663787647,0.003528891421356542,0.008835144534278626,0.019076855255445817,0.048715221913731864,0.005351556872874943
0.1168448,0.010903518217748332,0.011958797706868399,0.006029766032396208,0.003521020687161113,0.008831437205922365,0.019126072526985193,0.04849230094742517,0.005351057261151858
0.1173103,0.010903982752527647,0.012029735929618798,0.006018927702882872,0.0035132618974262927,0.008828704184743338,0.019175193001120295,0.048265551199718,0.005350418692841258
0.1177759,0.010904648731429496,0.012100388798193886,0.006008555884361238,0.003505616479282237,0.008826953479970596,0.019224212558372148,0.04803501604606693,0.005349642655463135
0.1182414,0.010905512810711579,0.01217074822246021,0.005998654679252424,0.003498085815575182,0.008826192600412027,0.01927312709656991,0.047800739748452115,0.005348730649969586
0.1187069,0.010906571461158919,0.012240806150169004,0.005989228083418641,0.003490671245026923,0.008826428555880212,0.01932193253282291,0.04756276744586778,0.005347684190588444
0.1191724,0.010907820972011737,0.012310554569131417,0.005980279986309623,0.0034833740624092583,0.00882766785875727,0.019370624805432078,0.0473211451444269,0.005346504804661147
0.1196379,0.01090925745494547,0.012379985509380765,0.0059718141711217814,0.0034761955187333398,0.008829916525696625,0.01941919987574029,0.047075919707082935,0.005345194032474911
0.1201034,0.010910876848100276,0.012449091045321025,0.005963834314969964,0.0034691368214538817,0.008833180079459687,0.019467653729921236,0.04682713884297247,0.005343753427089232
0.120569,0.010912674920157425,0.012517863297860818,0.00595634398907174,0.003462199134688209,0.008837463550885263,0.01951598238070627,0.046574851096384255,0.005342184554156761
0.1210345,0.010914647274459937,0.012586294436531953,0.00594934665894412,0.0034553835794501413,0.008842771480989513,0.019564181869048687,0.04631910583536177,0.005340488991738561
0.1215,0.010916789353174767,0.012654376681591651,0.005942845684612585,0.0034486912338987066,0.00884910792319422,0.019612248265724802,0.04605995323994814,0.005338668330113733
0.1219655,0.010919096441493989,0.012722102306107529,0.005936844320832295,0.0034421231336016545,0.008856476445681083,0.01966017767287114,0.04579744429008365,0.005336724171583413
0.122431,0.010921563671872433,0.012789463638024417,0.005931345717321313,0.0034356802718137356,0.008864880133869775,0.019707966225457153,0.045531630753166845,0.0053346581302690845
0.1228966,0.01092418602829923,0.01285645306221217,0.005926352919005634,0.0034293635997696926,0.008874321593017483,0.019755610092692773,0.04526256517129062,0.005332471831905128
0.1233621,0.010926958350600837,0.01292306302249354,0.005921868866275806,0.0034231740269918816,0.00888480295093776,0.01980310547937024,0.04499030084816554,0.0053301669136255544
0.1238276,0.010929875338773138,0.01298928602365123,0.005917896395254849,0.0034171124216124185,0.008896325860836565,0.019850448627139635,0.04471489183574269,0.0053277450237448195
0.1242931,0.010932931557340162,0.013055114633413193,0.005914438238077218,0.003411179610709732,0.00890889150426352,0.01989763581571774,0.04443639292054843,0.005325207821532675
0.1247586,0.010936121439737018,0.013120541484415224,0.005911497023178438,0.0034053763806593746,0.008922500594176477,0.01994466336402983,0.04415485960974384,0.005322556976983016
0.1252241,0.010939439292714652,0.013185559276139926,0.005909075275595108,0.0033997034774989167,0.008937153378117723,0.019991527631284343,0.043870348116921074,0.005319794170576691
0.1256897,0.010942879300764015,0.013250160776831171,0.0059071754172748975,0.00339416160730674,0.008952849641500315,0.020038225017980374,0.04358291534764859,0.0053169210930382954
0.1261552,0.010946435530557339,0.013314338825383305,0.0059057997673962115,0.0033887514365945003,0.008969588711003269,0.020084751966848138,0.04329261888477751,0.005313939445086958
0.1266207,0.010950101935404228,0.013378086333204432,0.005904950542697202,0.0033834735927130355,0.008987369458074488,0.020131104963722703,0.04299951697352086,0.005310850937181181
0.1270862,0.010953872359720344,0.013441396286053254,0.005904629857813807,0.0033783286642714606,0.00900619030254039,0.020177280538351564,0.04270366850631747,0.005307657289257805
0.1275517,0.010957740543506362,0.013504261745849028,0.005904839725626503,0.0033733172015691644,0.009026049216321235,0.020223275265136793,0.042405133007492365,0.005304360230465165
0.1280172,0.010961700126834964,0.013566675852454144,0.005905582057615454,0.003368439717040393,0.009046943727251181,0.02026908576381267,0.042103970617725237,0.0053009614988906014
0.1284828,0.010965744654343511,0.013628631825428898,0.005906858664223732,0.003363696685711091,0.009068870923002029,0.020314708700059744,0.04180024207833843,0.005297462841282405
0.1289483,0.010969867579730053,0.013690122965758082,0.0059086712552282325,0.003359088545667633,0.009091827455109601,0.020360140786056347,0.04149400871541601,0.005293866012766427
0.1294138,0.010974062270250228,0.013751142657549061,0.005911021440117894,0.0033546156985370854,0.009115809543101691,0.020405378780968472,0.041185332423765195,0.00529017277655755
0.1298793,0.010978322011212663,0.01381168436970107,0.005913910728478824,0.0033502785099785966,0.009140812978726464,0.020450419491378897,0.04087427565073114,0.005286384903666278
0.1303448,0.010982640010470404,0.013871741657545567,0.005917340530385904,0.00334607731018551,0.009166833130280227,0.020495259771656366,0.040560901379876065,0.005282504172600733
0.1308103,0.010987009402905963,0.013931308164457484,0.005921312156800497,0.00334201239439778,0.009193864947033397,0.020539896524265584,0.04024527311453336,0.005278532369064378
0.1312759,0.010991423254907498,0.013990377623437224,0.00592582681997391,0.003338084023424256,0.009221902963753564,0.020584326700018703,0.03992745486124688,0.005274471285649813
0.1317414,0.010995874568833698,0.014048943858663229,0.005930885633856303,0.0033342924241743736,0.009250941305324422,0.020628547298269018,0.039607511113105585,0.005270322721529006
0.1322069,0.011000356287464907,0.014107000787014943,0.005936489614510726,0.003330637790198809,0.009280973691459377,0.0206725553670475,0.039285506832983104,0.005266088482140319
0.1326724,0.011004861298438038,0.014164542419565895,0.0059426396805320365,0.003327120282238614,0.009311993441508539,0.020716348003142898,0.0389615074366917,0.005261770378872687
0.1331379,0.011009382438662852,0.014221562863046561,0.005949336653470366,0.0033237400287823558,0.009343993479357849,0.02075992235212643,0.03863557877605973,0.005257370228747278
0.1336034,0.01101391249871711,0.014278056321276654,0.005956581258258804,0.0033204971266307904,0.009376966338419048,0.020803275608322225,0.038307787121941335,0.005252889854096972
0.134069,0.011018444227218153,0.014334017096566317,0.0059643741236449395,0.0033173916414685934,0.009410904166709243,0.020846405014725,0.0379781991471672,0.005248331082243971
0.1345345,0.01102297033516847,0.014389439591085735,0.0059727157826258296,0.003314423608442683,0.00944579873201878,0.02088930786286658,0.0376468819094445,0.005243695745175836
0.135,0.0110274835002727,0.014444318308202626,0.005981606672885959,0.0033115930327466585,0.009481641427166246,0.020931981492632926,0.037313902834214485,0.00523898567922026
0.1354655,0.011031976371223537,0.014498647853787123,0.005991047137237688,0.003308899890210897,0.009518423275339296,0.020974423292033372,0.03697932969747531,0.005234202724718883
0.135931,0.011036441571954058,0.014552422937483584,0.006001037424063711,0.003306344127897837,0.009556134935520169,0.021016630696923597,0.03664323060857774,0.005229348725700424
0.1363966,0.011040871705854008,0.014605638373949,0.006011577687761065,0.0033039256647020127,0.009594766707994602,0.02105860119068394,0.03630567399300106,0.005224425529553423
0.1368621,0.011045259359947712,0.014658289084057656,0.006022667989186175,0.003301644391954367,0.009634308539942975,0.02110033230385445,0.03596672857511609,0.005219434986698883
0.1373276,0.011049597109031455,0.014710370096071856,0.006034308296100489,0.0032995001740304002,0.009674750031112435,0.021141821613728087,0.03562646336094218,0.0052143789502630735
0.1377931,0.011053877519768348,0.01476187654677852,0.006046498483616208,0.003297492848961702,0.00971608043956874,0.02118306674390338,0.03528494762090473,0.005209259275750752
0.1382586,0.011058093154738864,0.01481280368259161,0.006059238334641612,0.003295622229050375,0.009758288687526588,0.02122406536379779,0.03494225087259953,0.005204077820719033
0.1387241,0.011062236576445485,0.014863146860620282,0.006072527540325493,0.0032938881014858822,0.009801363367257135,0.02126481518812287,0.03459844286357038,0.0051988364444521045
0.1391897,0.011066300351270127,0.014912901549702822,0.0060863657005001725,0.003292290228963806,0.009845292747071351,0.0213053139763223,0.034253593554105954,0.00519353700763696
0.1396552,0.011070277053383214,0.014962063331406376,0.006100752324122602,0.0032908283503060003,0.009890064777377883,0.021345559531973778,0.03390777310006187,0.005188181372040257
0.1401207,0.011074159268603454,0.015010627900992547,0.006115686829713035,0.0032895021810816294,0.009935667096813993,0.021385549702155636,0.03356105183571394,0.005182771400186392
0.1405862,0.011077939598207446,0.015058591068348845,0.006131168545790724,0.0032883114142285693,0.009982087038448138,0.021425282376779063,0.033213500256648036,0.005177308955036853
0.1410517,0.011081610662688313,0.015105948758886037,0.006147196711306073,0.0032872557206746677,0.01002931163605268,0.02146475548788672,0.032865189002692335,0.005171795899670883
0.1415172,0.011085165105462503,0.015152697014401306,0.006163770476068682,0.00328633474995836,0.010077327630445191,0.021503967008918635,0.03251618884089698,0.005166234096967483
0.1419828,0.011088595596524076,0.015198831993907293,0.006180888901170652,0.0032855481308481627,0.010126121475896694,0.021542914953946214,0.03216657064856657,0.0051606254092887984
0.1424483,0.011091894836045849,0.015244349974427012,0.006198550959404548,0.0032848954719605825,0.010175679346605146,0.021581597376875247,0.0318164053963505,0.005154971698164976
0.1429138,0.011095055557926885,0.015289247351754869,0.006216755535675359,0.003284376362375965,0.010225987143232385,0.02162001237061885,0.031465764131396,0.005149274823980572
0.1433793,0.011098070533286025,0.015333520641184047,0.0062355014274059145,0.0032839903722518375,0.010277030499502635,0.021658158066241228,0.03111471796056853,0.005143536645662653
0.1438448,0.011100932573901233,0.015377166478200697,0.006254787344935195,0.0032837370534332744,0.010328794788860623,0.021696032632073325,0.03076333803374421,0.005137759020370765
0.1443103,0.011103634535594634,0.015420181619145518,0.006274611911909108,0.003283615940059802,0.010381265131187284,0.02173363427280139,0.030411695527178453,0.005131943803188946
0.1447759,0.01110616932156319,0.015462562941843429,0.006294973665663362,0.003283626549168341,0.01043442639957094,0.021770961228529513,0.03005986162695495,0.005126092846819994
0.1452414,0.011108529885654934,0.015504307446202173,0.006315871057598156,0.003283768381291665,0.010488263227131828,0.02180801177381725,0.029707907512518998,0.005120208001282208
0.1457069,0.01111070923559069,0.015545412254780636,0.006337302453544462,0.0032840409210518266,0.010542760013897758,0.021844784216693423,0.029355904340298826,0.005114291113608845
0.1461724,0.01111270043613128,0.015585874613327685,0.006359266134121679,0.003284443637747975,0.010597900933728678,0.0218812768976471,0.0290039232274186,0.005108344027550571
0.1466379,0.011114496612190166,0.015625691891292204,0.006381760295086501,0.0032849759859379913,0.010653669941287844,0.021917488188596852,0.02865203523550662,0.005102368583281212
0.1471034,0.011116090951891627,0.01566486158230487,0.006404783047672885,0.003285637406013348,0.010710050779057243,0.021953416491839548,0.028300311354602353,0.005096366617107179
0.147569,0.011117476709574563,0.015703381304632183,0.006428332418922976,0.003286427324766611,0.010767026984394823,0.02198906023897998,0.027948822487165778,0.005090339961180945
0.1480345,0.01111864720874195,0.015741248801603092,0.006452406352008938,0.0032873451559510287,0.01082458189663103,0.022024417889842874,0.027597639432192688,0.005084290443218964
0.1485,0.011119595844956002,0.015778461942008513,0.006477002706545607,0.0032883903008316833,0.010882698664202023,0.022059487931368985,0.027246832869439377,0.0050782198862244655
0.1489655,0.011120316088679014,0.01581501872047394,0.006502119258893922,0.0032895621487277057,0.01094136025181687,0.022094268876497136,0.026896473343760136,0.005072130108215521
0.149431,0.011120801488059774,0.015850917257805314,0.006527753702455102,0.003290860077545118,0.011000549447655956,0.022128759263034294,0.026546631249560713,0.0050660229219588
0.1498966,0.011121045671665483,0.015886155801308168,0.006553903647955562,0.003292283454299911,0.011060248870597747,0.022162957652515754,0.026197376815370644,0.00505990013470938
0.1503621,0.011121042351158966,0.0159207327250801,0.006580566623722563,0.0032938316356310253,0.011120440977471014,0.022196862629057762,0.025848780088537256,0.005053763547956985
0.1508276,0.011120785323921066,0.015954646530276537,0.006607740075950555,0.003295503968302936,0.011181108070329597,0.022230472798204864,0.02550091092004388,0.005047614957178974
0.1512931,0.01112026847561803,0.015987895845349823,0.006635421368958243,0.0032972997896976134,0.011242232303746769,0.02226378678577436,0.02515383894945449,0.005041456151600369
0.1517586,0.011119485782713621,0.016020479426261735,0.0066636077854363525,0.003299218428295641,0.011303795692126379,0.022296803236700396,0.024807633589987013,0.005035288913961183
0.1522241,0.011118431314925743,0.016052396156669663,0.006692296526686154,0.0033012592041463135,0.011365780117027895,0.02232952081388019,0.024462364013717302,0.0050291150202912815
0.1526897,0.011117099237627224,0.01608364504808672,0.0067214847128488735,0.0033034214293264945,0.011428167334502663,0.022361938197025075,0.02411809913691566,0.005022936239692961
0.1531552,0.011115483814190447,0.016114225240016114,0.00675116938312619,0.0033057044083880317,0.01149093898243867,0.02239405408151891,0.02377490760551783,0.005016754334131428
0.1536207,0.011113579408275438,0.016144136000060188,0.00678134749599215,0.003308107438793502,0.011554076587911181,0.022425867177286524,0.02343285778073216,0.005010571058233315
0.1540862,0.011111380486061024,0.016173376724004464,0.00681201592939686,0.0033106298113400106,0.011617561574536646,0.022457376207674674,0.023092017724784506,0.005004388159093374
0.1545517,0.011108881618418666,0.0162019469358771,0.006843171480962442,0.0033132708105707565,0.0116813752698272,0.022488579908347888,0.02275245518680251,0.004998207376089438
0.1550172,0.011106077483028616,0.0162298462879842,0.006874810868171681,0.0033160297151740587,0.011745498912543183,0.02251947702620147,0.022414237588840508,0.004992030440705755
0.1554828,0.011102962866437917,0.01625707456092144,0.006906930728549816,0.0033189057983695,0.011809913660041065,0.022550066318293795,0.022077432012046594,0.0049858590763648
0.1559483,0.011099532666059824,0.01628363166356235,0.006939527619839888,0.003321898328280833,0.011874600595614274,0.022580346550799886,0.02174210518297314,0.004979694998267685
0.1564138,0.011095781892114144,0.0163095176330237,0.006972598020171996,0.0033250065682952842,0.011939540735824584,0.022610316497988007,0.02140832346003222,0.004973539913243242
0.1568793,0.01109170566950793,0.016334732634608162,0.007006138328226781,0.003328229777408874,0.012004715037821695,0.0226399749412209,0.021076152820097296,0.004967395519605935
0.1573448,0.011087299239655887,0.016359276961724498,0.007040144863393393,0.003331567210557382,0.01207010440664881,0.022669320667983123,0.020745658845252528,0.004961263507022673
0.1578103,0.011082557962239779,0.016383151035785186,0.007074613865922131,0.003335018118932609,0.012135689702531939,0.022698352470935795,0.020416906709691096,0.0049551455563886316
0.1582759,0.011077477316906139,0.016406355406081485,0.007109541497071914,0.0033385817502836084,0.012201451748150719,0.022727069146999884,0.020089961166763894,0.0049490433397121805
0.1587414,0.01107205290490149,0.01642889074963577,0.007144923839252661,0.003342257349202595,0.012267371335888476,0.022755469496469154,0.019764886536179988,0.004942958520008981
0.1592069,0.0110662804506444,0.01645075787103092,0.007180756896162662,0.003346044157395298,0.012333429235059281,0.022783552322153833,0.0194417466913603,0.0049368927512053115
0.1596724,0.01106015580323367,0.01647195770221653,0.007217036592920923,0.00334994141393557,0.012399606199109708,0.02281131642855595,0.019120605046945956,0.0049308476780506386
0.1601379,0.011053674937891965,0.0164924913022916,0.007253758776194524,0.003353948355504132,0.012465882972792965,0.02283876062107721,0.018801524546462674,0.004924824936039403
0.1606034,0.011046833957344375,0.016512359857263317,0.00729091921432099,0.003358064216611394,0.012532240299313067,0.02286588370526027,0.018484567650142582,0.004918826151341955
0.161069,0.01103962909313131,0.01653156467978155,0.007328513597425704,0.003362288229804342,0.012598658927436696,0.022892684486064047,0.018169796322904705,0.004912852940744549
0.1615345,0.011032056706855389,0.016550107208848443,0.007366537537534387,0.0033666196258575485,0.012665119618570291,0.022919161767173648,0.017857272022495405,0.004906906911598233
0.162,0.011024113291361968,0.016567989009502578,0.007404986568680721,0.003371057633948378,0.012731603153799911,0.02294531435034536,0.017547055687789994,0.004900989661776464
0.1624655,0.01101579547185321,0.016585211772476856,0.007443856147009287,0.0033756014818164845,0.01279809034089132,0.022971141034786986,0.017239207727256567,0.00489510277964125
0.162931,0.011007100006935656,0.016601777313829287,0.007483141650874052,0.003380250395907718,0.012864562021247777,0.02299664061657376,0.016933788007583116,0.004889247844017568
0.1633966,0.010998023789601394,0.01661768757454561,0.007522838380932777,0.0033850036015025727,0.01293099907682287,0.023021811888099746,0.01663085584246886,0.004883426424175793
0.1638621,0.010988563848142952,0.016632944620112593,0.007562941560237862,0.003389860322829321,0.01299738243698577,0.02304665363756478,0.016330469981580654,0.004877640079821869
0.1643276,0.01097871734700209,0.016647550640060755,0.00760344633432424,0.003394819783162005,0.013063693085336272,0.023071164648496446,0.016032688599675236,0.004871890361094882
0.1647931,0.010968481587552687,0.016661507947475188,0.0076443477712950314,0.003399881204903452,0.013129912066466859,0.02309534369930692,0.015737569285887966,0.004866178808571708
0.1652586,0.01095785400881792,0.016674818978473057,0.007685640861905726,0.003405043809653485,0.013196020492669075,0.0231191895628839,0.015445169033188603,0.00486050695327834
0.1657241,0.010946832188122056,0.016687486291646386,0.007727320519647667,0.003410306818262498,0.0132619995505814,0.023142701006215072,0.015155544228004561,0.004854876316707499
0.1661897,0.010935413841677283,0.016699512567468718,0.007769381580831642,0.0034156694508705393,0.01332783050777573,0.02316587679004508,0.014868750640012094,0.004849288410842152
0.1666552,0.010923596825106166,0.016710900607664395,0.00781181880467241,0.00342113092693206,0.01339349471927954,0.023188715668564074,0.014584843412095677,0.004843744738184498
0.1671207,0.010911379133900438,0.016721653334539212,0.00785462687337505,0.003426690465226479,0.013458973634030681,0.0232112163891266,0.014303877050475979,0.004838246791790035
0.1675862,0.010898758903816929,0.016731773790271395,0.00789780039222403,0.003432347283854753,0.013524248801261752,0.023233377691999516,0.0140259054150067,0.004832796055306274
0.1680517,0.010885734411211509,0.016741265136162045,0.007941333889675984,0.003438100600222132,0.013589301876810964,0.023255198310137563,0.013750981709640656,0.004827394003015676
0.1685172,0.010872304073312014,0.016750130651844396,0.007985221817457179,0.00344394963100734,0.013654114629356503,0.023276676968985107,0.013479158473065451,0.004822042099882366
0.1689828,0.010858466448431123,0.01675837373445135,0.008029458550666658,0.0034498935921184635,0.013718668946571304,0.023297812386302578,0.013210487569509093,0.004816741801602232
0.1694483,0.010844220236120208,0.016765997897741018,0.008074038387886093,0.0034559316986358464,0.013782946841195182,0.02331860327201608,0.012945020179715857,0.004811494554656015
0.1699138,0.0108295642772652,0.016773006771180113,0.008118955551297309,0.003462063164742382,0.013846930457021192,0.02333904832808875,0.012682806792092702,0.004806301796365049
0.1703793,0.010814497554125545,0.01677940409898519,0.008164204186808426,0.0034682872036416036,0.013910602074793011,0.02335914624841259,0.012423897194026484,0.004801164954949314
0.1708448,0.010799019190317343,0.016785193739121945,0.00820977836418962,0.0034746030274640316,0.013973944118010147,0.0233788957187197,0.012168340463372162,0.004796085449587488
0.1713103,0.010783128450741787,0.016790379662262864,0.008255672077219474,0.003481009847162286,0.014036939158637836,0.02339829541651197,0.011916184960112186,0.004791064690478679
0.1717759,0.010766824741460101,0.016794965950703573,0.008301879243842946,0.0034875068723955022,0.0140995699227187,0.02341734401100856,0.011667478318187173,0.004786104078905486
0.1722414,0.01075010760951609,0.016798956797238272,0.008348393706342005,0.0034940933114036184,0.014161819295883421,0.023436040163110423,0.011422267437497993,0.004781205007298037
0.1727069,0.010732976742707475,0.01680235650399454,0.008395209231519983,0.003500768370872116,0.014223670328758044,0.0234543825253812,0.011180598476079311,0.004776368859298603
0.1731724,0.01071543196930708,0.0168051694812278,0.008442319510900633,0.003507531255787792,0.014285106242265725,0.023472369742043607,0.01094251684244463,0.004771597009826352
0.1736379,0.01069747325773495,0.016807400246075528,0.008489718160942865,0.003514381169286127,0.014346110432821234,0.02349000044899049,0.01070806718810279,0.004766890825141816
0.1741034,0.010679100716182399,0.016809053421271338,0.00853739872327199,0.0035213173124908105,0.014406666477416903,0.02350727327380974,0.010477293400245882,0.0047622516629106
0.174569,0.010660314592188833,0.016810133733818868,0.008585354664928326,0.0035283388843459565,0.014466758138599356,0.023524186835822164,0.010250238594608416,0.004757680872265865
0.1750345,0.010641115272172229,0.016810646013625554,0.008633579378633894,0.003535445081441547,0.014526369369336838,0.023540739746131457,0.01002694510849752,0.004753179793869094
0.1755,0.01062150328091398,0.0168105951920963,0.008682066183077937,0.003542635097832647,0.014585484317777259,0.023556930607685315,0.009807454493993882,0.004748749759968671
0.1759655,0.010601479280998867,0.01680998630068712,0.008730808323221961,0.0035499081248529163,0.014644087331897307,0.02357275801534671,0.009591807511323042,0.0047443920944557835
0.176431,0.010581044072210818,0.016808824469418896,0.008779798970625023,0.0035572633509229597,0.014702162964043078,0.02358822055597422,0.00938004412239656,0.004740108112917234
0.1768966,0.010560198590885106,0.016807114925351283,0.008829031223790052,0.003564699961354037,0.014759695975362573,0.023603316808510424,0.009172203484522528,0.004735899122684774
0.1773621,0.01053894390921766,0.016804862991016925,0.008878498108532036,0.003572217138147643,0.01481667134013037,0.02361804534407712,0.008968323944284791,0.004731766422880621
0.1778276,0.010517281234532104,0.016802074082815924,0.00892819257836892,0.0035798140597914406,0.014873074249964695,0.023632404726076254,0.008768443031590177,0.004727711304458889
0.1782931,0.010495211908505142,0.016798753709370493,0.008978107514936095,0.003587489901052026,0.014928890117936982,0.02364639351029526,0.008572597453882964,0.004723735050242614
0.1787586,0.010472737406350878,0.016794907469839675,0.009028235728425302,0.003595243832764973,0.014984104582574013,0.023660010245015697,0.008380823090525732,0.0047198389349560645
0.1792241,0.01044985933596461,0.016790541052193957,0.009078569958048796,0.003603075021622605,0.015038703511752656,0.023673253471123843,0.008193154987345703,0.004716024225252014
0.1796897,0.010426579437026639,0.016785660231449635,0.009129102872529578,0.0036109826299599375,0.015092673006487175,0.023686121722221922,0.00800962735134555,0.004712292179733581
0.1801552,0.010402899580066616,0.016780270867862997,0.009179827070618504,0.003618965815539216,0.015145999404609018,0.02369861352473854,0.00783027354557763,0.0047086440489702555
0.1806207,0.010378821765489005,0.01677437890508442,0.00923073508163914,0.003627023731333473,0.01519866928433901,0.023710727398036698,0.007655126084180522,0.004705081075507667
0.1810862,0.010354348122560234,0.016767990368272798,0.009281819366061206,0.003635155525309517,0.015250669467751757,0.02372246185451759,0.007484216627576685,0.0047016044938706595
0.1815517,0.010329480908358148,0.016761111362170903,0.009333072316103508,0.0036433603402107615,0.01530198702413205,0.023733815399718354,0.007317575977830031,0.004698215530559177
0.1820172,0.010304222506684342,0.016753748069142663,0.009384486256367348,0.0036516373133402926,0.015352609273222944,0.023744786532401894,0.007155234074162195,0.0046949154040364606
0.1824828,0.010278575426939936,0.01674590674717363,0.00943605344450142,0.003659985576344589,0.015402523788365196,0.023755373744636984,0.0069972199886262805,0.004691705324709072
0.1829483,0.010252542302965266,0.016737593727836276,0.009487766071899233,0.0036684042549982913,0.015451718399527567,0.023765575521867296,0.006843561921936832,0.004688586494898248
0.1834138,0.010226125891843931,0.016728815414222085,0.009539616264430176,0.003676892468990425,0.01550018119622751,0.023775390342968186,0.0066942871994548105,0.004685560108802122
0.1838793,0.010199329072671553,0.01671957827884285,0.009591596083205265,0.003685449331712475,0.01554790053034161,0.023784816680290647,0.006549422267326275,0.004682627352448354
0.1843448,0.010172154845289504,0.01670988886150378,0.009643697525378608,0.003694073950048727,0.01559486501880517,0.023793852999692222,0.006408992688773513,0.004679789403636741
0.1848103,0.010144606328983834,0.016699753767151236,0.00969591252498563,0.003702765424169278,0.01564106354620026,0.02380249776055514,0.006273023140537396,0.004677047431871364
0.1852759,0.01011668676114949,0.016689179663698116,0.009748232953819073,0.0037115228473261516,0.01568648526723147,0.023810749415792348,0.006141537409469888,0.004674402598281836
0.1857414,0.010088399495919905,0.016678173279829973,0.009800650622343771,0.0037203453056529464,0.01573111960908857,0.023818606411842417,0.00601455838927571,0.0046718560555331825
0.1862069,0.010059748002761939,0.016666741402794873,0.00985315728065125,0.003729231877968462,0.01577495627369511,0.023826067188654636,0.005892108077402337,0.004669408947723874
0.1866724,0.010030735865036113,0.016654890876180172,0.00990574461945515,0.0037381816355847417,0.015817985239841913,0.023833130179665693,0.005774207572077664,0.004667062410271509
0.1871379,0.01000136677852203,0.01664262859767916,0.009958404271128554,0.0037471936421199525,0.01586019676520425,0.023839793811769514,0.005660877069494783,0.004664817569785665
0.1876034,0.009971644549908815,0.016629961516850544,0.010011127810784207,0.003756266953316534,0.015901581388241545,0.02384605650528177,0.00555213586114344,0.004662675543927382
0.188069,0.009941573095250426,0.016616896632873596,0.010063906757398718,0.003765400616865017,0.015942129929978215,0.023851916673900523,0.005448002331287804,0.004660637441254793
0.1885345,0.009911156438385606,0.016603440992301714,0.010116732574981772,0.003774593672233917,0.015981833495664514,0.023857372724664348,0.005348493954590253,0.004658704361054368
0.189,0.009880398709322306,0.016589601686816956,0.010169596673791394,0.0037838451505060942,0.016020683476316164,0.023862423057908994,0.005253627293880876,0.004656877393157319
0.1894655,0.00984930414258631,0.016575385850988007,0.010222490411596232,0.0037931540742219437,0.016058671550131843,0.023867066067223768,0.005163417998072371,0.004655157617740683
0.189931,0.009817877075533802,0.016560800660033893,0.010275405094985804,0.0038025194572297734,0.016095789683787682,0.023871300139408354,0.005077880800220018,0.0046535461051127065
0.1903966,0.009786121946627509,0.016545853327595672,0.010328331980729577,0.0038119403045437147,0.01613203013360809,0.02387512365443092,0.004997029515726346,0.00465204391548213
0.1908621,0.009754043293676044,0.01653055110351825,0.010381262277185678,0.003821415612209518,0.016167385446612333,0.02387853498538825,0.004920877040690156,0.004650652098711097
0.1913276,0.009721645752036013,0.01651490127164433,0.010434187145760014,0.00383094436717858,0.016201848461436404,0.023881532498468794,0.004849435350399474,0.004649371694051417
0.1917931,0.0096889340527765,0.01649891114762257,0.010487097702416607,0.0038405255471905585,0.01623541230912982,0.02388411455291979,0.004782715497968054,0.004648203729863981
0.1922586,0.009655913020805656,0.01648258807673184,0.010539985019239955,0.0038501581206649613,0.016268070413827163,0.02388627950102001,0.004720727613114966,0.004647149223321215
0.1927241,0.009622587572959312,0.0164659394317235,0.010592840126050307,0.003859841046602067,0.016299816493294175,0.023888025688060165,0.0046634809010868234,0.00464620918009247
0.1931897,0.009588962716051867,0.016448972610683395,0.010645654012072675,0.003869573274493557,0.01633064455934833,0.023889351452333382,0.004610983641722117,0.0046453845940122905
0.1936552,0.009555043544889964,0.016431695034915296,0.010698417627660488,0.0038793537442431804,0.016360548918153785,0.02389025512513827,0.0045632431886571245,0.00464467644673155
0.1941207,0.00952083524024977,0.01641411414684724,0.010751121886074674,0.0038891813860977894,0.016389524170390572,0.023890735030797246,0.0045202659686728345,0.004644085707351418
0.1945862,0.00948634306681878,0.016396237407962255,0.010803757665318929,0.003899055120589029,0.016417565211297863,0.023890789486692675,0.004482057481182329,0.004643613332040221
0.1950517,0.009451572371103193,0.01637807229675467,0.010856315810031788,0.003908973858485958,0.016444667230591115,0.023890416803323496,0.004448622297858053,0.004643260263633274
0.1955172,0.009416528579301954,0.01635962630671318,0.010908787133436173,0.003918936500758852,0.016470825712252862,0.023889615284384713,0.004419964062398456,0.004643027431215826
0.1959828,0.009381217195148575,0.01634090694433174,0.010961162419346969,0.003928941938554429,0.016496036434197028,0.023888383226872038,0.004396085490433478,0.004642915749689366
0.1964483,0.00934564379772202,0.016321921727149157,0.011013432424237156,0.003938989053182709,0.016520295467806864,0.023886718921213832,0.004376988369568411,0.004642926119321556
0.1969138,0.00930981403922797,0.01630267818181826,0.011065587879362975,0.003949076716115699,0.016543599177346775,0.02388462065143234,0.004362673559565694,0.004643059425280194
0.1973793,0.009273733642751898,0.0162831838422053,0.011117619492948528,0.003959203788998058,0.01656594421924865,0.023882086695336015,0.004353140992664208,0.004643316537151653
0.1978448,0.009237408399985462,0.01626344624752022,0.011169517952430211,0.00396936912366988,0.016587327541273532,0.023879115324744498,0.004348389674035673,0.004643698308444356
0.1983103,0.00920084416892775,0.016243472940478267,0.01122127392676125,0.0039795715622016874,0.0166077463815497,0.023875704805747845,0.004348417682377741,0.004644205576078002
0.1987759,0.009164046871562938,0.016223271465493502,0.01127287806877657,0.003989809936941723,0.016627198267488607,0.023871853399001264,0.00435322217064339,0.004644839159859401
0.1992414,0.009127022491515964,0.016202849366904554,0.011324321017618152,0.004000083070575584,0.016645681014580638,0.023867559360056672,0.00436279936690622,0.004645599861945881
0.1997069,0.00908977707168785,0.016182214187232983,0.01137559340122088,0.004010389776198224,0.016663192725073328,0.023862820939732313,0.004377144575361221,0.0046464884662972975
0.2001724,0.009052316711872397,0.016161373465474593,0.011426685838858888,0.0040207288573983445,0.016679731786535104,0.023857636384521763,0.004396252177460607,0.004647505738117694
0.2006379,0.009014647566355956,0.016140334735423995,0.011477588943752361,0.004031099108355139,0.016695296870308043,0.023852003937043672,0.004420115633184332,0.004648652423287675
0.2011034,0.008976775841502067,0.01611910552403277,0.011528293325734719,0.004041499313947362,0.016709886929853337,0.023845921836533723,0.004448727482444902,0.004649929247788562
0.201569,0.008938707793322688,0.01609769334980152,0.011578789593980046,0.004051928249874658,0.016723501198993157,0.023839388319380473,0.004482079346626149,0.004651336917119398
0.2020345,0.008900449725037632,0.016076105721206272,0.01162906835979072,0.004062384682791079,0.01673613919005259,0.023832401619706782,0.004520161930255619,0.0046528761157078715
0.2025,0.008862007984623891,0.01605435013515968,0.011679120239445109,0.004072867370450676,0.01674780069190529,0.02382495996999861,0.004562965022810261,0.004654547506316217
0.2029655,0.008823388962356394,0.016032434075507654,0.011728935857105206,0.004083375061865059,0.016758485767926514,0.02381706160178295,0.004610477500655119,0.004656351729443143
0.203431,0.008784599088341798,0.01601036501156208,0.011778505847783942,0.004093906497472803,0.01676819475385706,0.02380870474635671,0.004662687329114735,0.0046582894027228285
0.2038966,0.008745644830046872,0.015988150396670495,0.011827820860371893,0.004104460409320555,0.016776928255581674,0.023799887635568246,0.004719581564676983,0.004660361120321973
0.2043621,0.00870653268982305,0.015965797666823506,0.011876871560722932,0.004115035521255709,0.016784687146825364,0.02379060850265327,0.004781146357329054,0.004662567452335884
0.2048276,0.008667269202428772,0.015943314239300822,0.011925648634798395,0.0041256305491305005,0.016791472566771066,0.02378086558312663,0.004847366953025305,0.004664908944184548
0.2052931,0.00862786093255118,0.01592070751135662,0.011974142791869126,0.004136244201017351,0.01679728591760206,0.023770657115731442,0.004918227696286662,0.004667386116009557
0.2057586,0.008588314472328737,0.01589798485894497,0.01202234476777476,0.0041468751774353324,0.01680212886197255,0.0237599813434469,0.004993712032931307,0.004669999462072796
0.2062241,0.008548636438876262,0.015875153635485962,0.01207024532823942,0.004157522171587584,0.01680600332040971,0.023748836514555796,0.005073802512936366,0.0046727494501577075
0.2066897,0.008508833471813882,0.015852221170673045,0.01211783527224299,0.004168183869609538,0.01680891146865051,0.023737220883772774,0.005158480793430399,0.004675636520973952
0.2071552,0.00846891223080132,0.015829194769322107,0.012165105435447006,0.00417885895082783,0.01681085573491642,0.02372513271343405,0.005247727641816559,0.004678661087566237
0.2076207,0.008428879393078936,0.015806081710262595,0.012212046693674216,0.004189546088029766,0.016811838797129035,0.02371257027474911,0.005341522939026356,0.004681823534728075
0.2080862,0.008388741651016942,0.015782889245270975,0.01225864996644089,0.0042002439477432625,0.016811863580069582,0.023699531849114813,0.005439845682904063,0.004685124218421193
0.2085517,0.008348505709674168,0.01575962459804666,0.012304906220540902,0.004210951190527177,0.016810933252485054,0.023686015729491982,0.005542673991721872,0.004688563465201287
0.2090172,0.0083081782843678,0.015736294963230497,0.012350806473680694,0.004221666471271967,0.016809051224143695,0.02367202022184453,0.005649985107826001,0.0046921415716507904
0.2094828,0.008267766098255438,0.01571290750546571,0.012396341798164222,0.00423238843951062,0.01680622114284251,0.023657543646640897,0.005761755401413972,0.004695858803819293
0.2099483,0.008227275879930815,0.01568946935850123,0.012441503324626915,0.004243115739739773,0.016802446891369286,0.02364258434041733,0.005877960374443317,0.0046997153966722134
0.2104138,0.008186714361034478,0.01566598762433708,0.012486282245817642,0.004253847011750985,0.016797732584421757,0.023627140657402543,0.005998574664672003,0.004703711553548302
0.2108793,0.00814608827388068,0.015642469372411573,0.01253066982042761,0.004264580890972042,0.01679208256548626,0.023611210971203004,0.006123572049830835,0.004707847445626532
0.2113448,0.008105404349101725,0.015618921638829875,0.012574657376965065,0.00427531600881821,0.016785501403678436,0.023594793676548192,0.006252925451928146,0.004712123211402919
0.2118103,0.008064669313310981,0.015595351425633603,0.012618236317674494,0.004286050993053284,0.01677799389054834,0.023577887191094868,0.0063866069416870525,0.004716538956177826
0.2122759,0.008023889886785719,0.015571765700110981,0.012661398122499088,0.004296784468160296,0.01676956503685243,0.023560489957289592,0.006524587743115579,0.004721094751554283
0.2127414,0.007983072781170922,0.015548171394147074,0.012704134353084985,0.00430751505572169,0.016760220069294736,0.02354260044428851,0.006666838238209965,0.004725790634947869
0.2132069,0.007942224697205133,0.015524575403613605,0.012746436656825883,0.004318241374808772,0.01674996442723957,0.02352421714993345,0.00681332797179145,0.0047306266091086775
0.2136724,0.007901352322469347,0.015500984587797707,0.01278829677094645,0.004328962042380233,0.016738803759398062,0.02350533860278334,0.006964025656476822,0.00473560264165584
0.2141379,0.007860462329159908,0.015477405768868947,0.012829706526622906,0.004339675673689512,0.016726743920490623,0.023485963364199818,0.007118899177783024,0.004740718664625098
0.2146034,0.007819561371886326,0.01545384573138388,0.012870657853139128,0.004350380882700765,0.01671379096788741,0.023466090030486095,0.007277915599366063,0.0047459745740298515
0.215069,0.007778656085494845,0.015430311221827236,0.012911142782076546,0.004361076282513175,0.016699951158228775,0.02344571723507786,0.007441041168394487,0.004751370229436085
0.2155345,0.007737753082918622,0.015406808948188768,0.012951153451536114,0.004371760485793349,0.016685230944027497,0.02342484365078524,0.0076082413210577255,0.0047569054535515605
0.216,0.0076968589530553065,0.015383345579574645,0.012990682110390539,0.004382432105215515,0.01666963697025447,0.02340346799208459,0.007779480688209586,0.00476258003182967
0.2164655,0.0076559802586728095,0.015359927745852172,0.013029721122564989,0.004393089753909271,0.016653176070909468,0.02338158901745915,0.007954723101147273,0.004768393712088326
0.216931,0.007615123534344026,0.015336562037326546,0.01306826297134446,0.004403732045914618,0.01663585526557843,0.02335920553178743,0.00813393159752633,0.004774346204144281
0.2173966,0.007574295284411279,0.015313255004448181,0.01310630026370597,0.0044143575966440335,0.01661768175597857,0.02333631638877814,0.00831706842741196,0.004780437179463266
0.2178621,0.0075335019809812,0.015290013157549128,0.013143825734673752,0.0044249650233513715,0.01659866292249245,0.023312920493450455,0.008504095059467214,0.004786666270826321
0.2183276,0.007492750061950744,0.015266842966607075,0.013180832251695562,0.004435552945607337,0.0165788063206921,0.023289016804658044,0.008694972187278499,0.004793033072012705
0.2187931,0.007452045929065007,0.01524375086103533,0.013217312819038178,0.004446119985781305,0.016558119677854147,0.023264604337655273,0.00888965973581891,0.00479953713749972
0.2192586,0.007411395946007474,0.015220743229497222,0.013253260582200116,0.004456664769529214,0.01653661088946684,0.02323968216670374,0.00908811686804977,0.004806177982179778
0.2197241,0.007370806436523271,0.01519782641974331,0.013288668832339588,0.004467185926287263,0.016514288015729826,0.023214249427717066,0.009290301991660765,0.0048129550810950186
0.2201897,0.0073302836825759315,0.015175006738469863,0.013323531010715612,0.004477682089771151,0.016491159278047653,0.023188305320941797,0.00949617276594907,0.00481986786918977
0.2206552,0.007289833922538139,0.015152290451196971,0.013357840713140123,0.004488151898480548,0.016467233055517925,0.023161849113671952,0.009705686108837756,0.004826915741081093
0.2211207,0.007249463349416872,0.015129683782164699,0.013391591694438884,0.004498593996208533,0.016442517881415153,0.023134880142994654,0.009918798204033808,0.00483409805084765
0.2215862,0.00720917810911331,0.015107192914245591,0.01342477787291889,0.004509007032555724,0.016417022439671365,0.02310739781856408,0.010135464508326008,0.00484141411183708
0.2220517,0.007168984298717844,0.015084823988871805,0.013457393334839847,0.0045193896634488605,0.01639075556135468,0.02307940162540077,0.010355639759022883,0.0048488631964920415
0.2225172,0.0071288879648405456,0.015062583105975006,0.013489432338887237,0.004529740551663605,0.016363726221147044,0.023050891126713224,0.010579277981530907,0.00485644453619503
0.2229828,0.007088895101977387,0.015040476323937173,0.013520889320644394,0.004540058367351401,0.0163359435338223,0.023021865966738452,0.01080633249707315,0.004864157321132059
0.2234483,0.007049011650912548,0.015018509659550322,0.013551758897060897,0.004550341788570191,0.01630741675072586,0.022992325873598046,0.011036755930548495,0.004872000700175257
0.2239138,0.007009243497157094,0.014996689087983177,0.013582035870914586,0.004560589501818862,0.016278155256257146,0.022962270662166183,0.011270500218531588,0.004879973780784378
0.2243793,0.006969596469424326,0.014975020542752642,0.013611715235264367,0.004570800202575217,0.016248168564355965,0.02293170023694599,0.0115075166174136,0.0048880756289272345
0.2248448,0.00693007633814203,0.014953509915697959,0.01364079217789089,0.0045809725958373265,0.016217466314994013,0.022900614594950484,0.011747755711683856,0.004896305269019002
0.2253103,0.0068906888140019195,0.01493216305695536,0.013669262085722104,0.004591105396668027,0.016186058270672567,0.022869013828584393,0.011991167422352378,0.0049046616838803745
0.2257759,0.006851439546546458,0.01491098577493097,0.01369712054924056,0.004601197330742368,0.016153954312927273,0.022836898128523096,0.012237701015513391,0.004913143814714525
0.2262414,0.006812334122793349,0.014889983836269683,0.013724363366869233,0.004611247134897745,0.016121164438840947,0.02280426778658495,0.012487305111049925,0.004921750561102864
0.2267069,0.006773378065897869,0.014869162965817776,0.01375098654933256,0.004621253557686521,0.01608769875756503,0.022771123198593125,0.012739927691479743,0.004930480781019601
0.2271724,0.00673457683385325,0.014848528846576892,0.013776986323989252,0.0046312153599308795,0.016053567486850332,0.022737464867223244,0.012995516110942974,0.0049393332908651225
0.2276379,0.006695935818229277,0.014828087119646985,0.013802359139133299,0.004641131315279694,0.016018780949587558,0.022703293404832774,0.013254017104332,0.004948306865518244
0.2281034,0.006657460342949248,0.014807843384155812,0.013827101668259519,0.0046510002107671535,0.015983349570358064,0.022668609536268116,0.013515376796564197,0.00495740023840739
0.228569,0.00661915566310543,0.014787803197172421,0.01385121081428986,0.004660820847372897,0.015947283871995364,0.022633414101645277,0.013779540711998203,0.004966612101600809
0.2290345,0.006581026963813148,0.014767972073602108,0.013874683713756573,0.004670592040583353,0.015910594472157827,0.022597708059099948,0.014046453783994405,0.0049759411059158995
0.2295,0.006543079359103609,0.014748355486060195,0.013897517740938165,0.004680312620954,0.01587329207991306,0.022561492487502846,0.014316060364620449,0.004985385861047715
0.2299655,0.006505317890855594,0.014728958864721952,0.013919710511944072,0.004689981434672247,0.01583538749233455,0.022524768589136157,0.014588304234502705,0.004994944935716701
0.230431,0.006467747527766107,0.014709787597145899,0.013941259888743776,0.004699597344120637,0.01579689159111107,0.022487537692326965,0.014863128612824843,0.005004616857835679
0.2308966,0.006430373164360083,0.014690847028067661,0.01396216398313596,0.004709159228440082,0.015757815339169513,0.022449801254033404,0.015140476167474812,0.0050144001146960725
0.2313621,0.006393199620039217,0.014672142459161553,0.013982421160653296,0.004718665984092858,0.015718169777311948,0.022411560862379207,0.015420289025341715,0.0050242931531733455
0.2318276,0.006356231638169931,0.01465367914876705,0.014002030044398203,0.0047281165254250855,0.015677966020867743,0.0223728182391324,0.015702508782764028,0.0050342943799516066
0.2322931,0.006319473885210499,0.014635462311577476,0.01402098951880496,0.004737509785228388,0.015637215256361733,0.02233357524212376,0.015987076516130645,0.0050444021617672835
0.2327586,0.006282930949877263,0.014617497118288384,0.014039298733323416,0.0047468447153004275,0.015595928738199495,0.022293833867600824,0.01627393279263613,0.0050546148256717756
0.2332241,0.006246607342349907,0.014599788695203385,0.014056957106019332,0.004756120287003976,0.0155541177853708,0.022253596252513493,0.016563017681191523,0.00506493065931292
0.2336897,0.006210507493515652,0.014582342123795394,0.014073964327086446,0.004765335491824179,0.015511793778172377,0.02221286467672751,0.01685427076349187,0.005075347911235099
0.2341552,0.0061746357542522496,0.014565162440221614,0.014090320362265181,0.0047744893419236255,0.015468968154950975,0.022171641565162346,0.017147631145241784,0.005085864791197774
0.2346207,0.006138996394749599,0.014548254634790765,0.014106025456162867,0.004783580870694823,0.01542565240886777,0.02212992948985017,0.017443037467540074,0.005096479470512194
0.2350862,0.006103593603869801,0.014531623651381222,0.014121080135470223,0.004792609133309655,0.015381858084684995,0.02208773117191261,0.017740427918424593,0.005107190082396005
0.2355517,0.006068431488545431,0.014515274386808838,0.014135485212068912,0.004801573207265372,0.015337596775575599,0.022045049483451973,0.01803974024457835,0.005117994722345434
0.2360172,0.006033514073215825,0.014499211690143286,0.014149241786024844,0.004810472192926665,0.015292880119956519,0.022001887449353677,0.018340911763197784,0.005128891448524738
0.2364828,0.005998845299301156,0.014483440361971807,0.01416235124846189,0.0048193052140633515,0.015247719798346127,0.02195824824899654,0.01864387937402405,0.0051398782821725246
0.2369483,0.005964429024714045,0.014467965153609246,0.014174815284310624,0.0048280714183832505,0.015202127530246233,0.021914135217868082,0.01894857957153802,0.00515095320802459
0.2374138,0.0059302690234084715,0.014452790766253248,0.014186635874926544,0.004836769978059805,0.01515611507104897,0.021869551849082198,0.01925494845731963,0.005162114174752877
0.2378793,0.0058963689849657165,0.014437921850083546,0.014197815300572196,0.004845400090254055,0.015109694208968747,0.021824501794796926,0.01956292175257211,0.005173359095420143
0.2383448,0.00586273251421713,0.014423363003304336,0.014208356142757495,0.004853960977630571,0.015062876761999393,0.021778988867530567,0.019872434810811555,0.005184685847949935
0.2388103,0.005829363130903475,0.014409118771128843,0.014218261286432483,0.004862451888867004,0.015015674574896571,0.02173301704137458,0.02018342263072231,0.005196092275611453
0.2392759,0.0057962642693706965,0.01439519364470532,0.014227533922026667,0.004870872099156868,0.014968099516185445,0.02168659045310195,0.020495819869178408,0.005207576187518909
0.2397414,0.005763439278301902,0.014381592059983822,0.014236177547329056,0.004879220910705233,0.014920163475193593,0.021639713403169766,0.020809560854431357,0.0052191353591449505
0.2402069,0.005730891420485415,0.014368318396523387,0.014244195969202997,0.004887497653216983,0.014871878359109119,0.021592390356614966,0.021124579599464482,0.005230767532847771
0.2406724,0.0056986238726187514,0.014355376976239257,0.014251593305129881,0.004895701684377304,0.014823256090063835,0.021544625943842172,0.0214408098155139,0.005242470418411471
0.2411379,0.005666639725148365,0.014342772062090153,0.014258373984575972,0.004903832390324038,0.014774308602241326,0.02149642496130273,0.021758184925756163,0.0052542416935992846
0.2416034,0.005634941982144972,0.01433050785670556,0.014264542750176747,0.004911889186111562,0.014725047839009641,0.021447792372064164,0.022076638079162506,0.005266079004719223
0.242069,0.005603533561214269,0.014318588500953222,0.01427010465873346,0.0049198715161657795,0.014675485750078276,0.021398733306269426,0.022396102164519528,0.00527797996720169
0.2425345,0.00557241729344279,0.014307018072446977,0.014275065082016968,0.004927778854729877,0.01462563428867898,0.02134925306148512,0.022716509824616045,0.005289942166188563
0.243,0.005541595923378668,0.01429580058399515,0.01427942970737429,0.004935610706300414,0.014575505408769814,0.021299357102938187,0.023037793470595626,0.005301963157133252
0.2434655,0.005511072109046997,0.014284939981989772,0.014283204538133787,0.004943366606053377,0.0145251110622619,0.021249051063640265,0.023359885296474335,0.005314040466411226
0.243931,0.005480848421999541,0.014274440144737048,0.014286395893805173,0.00495104612025979,0.01447446319626825,0.021198340744399233,0.02368271729382281,0.005326171591940507
0.2443966,0.005450927347398495,0.014264304880729804,0.014289010410071145,0.0049586488466904985,0.014423573750373992,0.021147232113717655,0.024006221266611803,0.005338354003811666
0.2448621,0.005421311284134015,0.014254537926862921,0.01429105503856768,0.004966174415009784,0.014372454653927376,0.021095731307578077,0.02433032884622014,0.005350585144926889
0.2453276,0.005392002544975204,0.014245142946593221,0.014292537046450397,0.004973622487157444,0.01432111782335089,0.021043844629115533,0.024654971506603732,0.005362862431647751
0.2457931,0.005363003356754218,0.014236123528045659,0.01429346401574459,0.004980992757719029,0.014269575159471878,0.02099157854817794,0.024980080579624257,0.005375183254451426
0.2462586,0.00533431586058313,0.014227483182067966,0.0142938438424767,0.00498828495428388,0.014217838544871998,0.020938939700775316,0.025305587270535917,0.005387544978595082
0.2467241,0.005305942112103158,0.01421922534023618,0.014293684735585314,0.004995498837790678,0.014165919841254879,0.020885934888418934,0.025631422673628588,0.005399944944788343
0.2471897,0.005277884081765828,0.014211353352813597,0.014292995215610345,0.005002634202860171,0.014113830886831267,0.020832571077351758,0.02595751778802535,0.00541238046987372
0.2476552,0.005250143655145582,0.014203870486665693,0.014291784113159524,0.005009690878114772,0.014061583493720949,0.020778855397671492,0.02628380353363238,0.005424848847514989
0.2481207,0.005222722633283339,0.014196779923133562,0.014290060567152119,0.005016668726484737,0.014009189445370687,0.020724795142347773,0.026610210767238966,0.0054373473488935195
0.2485862,0.005195622733060443,0.014190084755868408,0.014287834022840347,0.005023567645500612,0.013956660493987316,0.020670397766135277,0.02693667029876516,0.005449873223412565
0.2490517,0.005168845587602442,0.0141837879886296,0.014285114229609354,0.005030387567571626,0.013904008357985172,0.020615670884384645,0.02726311290765443,0.0054624236994095035
0.2495172,0.005142392746712055,0.014177892533048804,0.014281911238557038,0.0050371284602496996,0.013851244719447096,0.02056062227175324,0.027589469359408637,0.005474995984876035
0.2499828,0.00511626567733071,0.014172401206362735,0.014278235399855007,0.005043790326478692,0.01379838122159839,0.020505259860817793,0.027915670422262315,0.005487587268186285
0.2504483,0.005090465764027975,0.014167316729117047,0.014274097359892088,0.005050373204828492,0.013745429466293344,0.020449591740590925,0.02824164688399329,0.005500194718832733
0.2509138,0.0050649943095182025,0.014162641722843927,0.014269508058201949,0.005056877169713517,0.013692401011514154,0.020393626154943414,0.02856732956886632,0.00551281548816986
0.2513793,0.005039852535203629,0.014158378707716012,0.014264478724176499,0.005063302331595171,0.013639307368882263,0.02033737150093416,0.028892649354706496,0.0055254467101653664
0.2518448,0.005015041581743175,0.014154530100179212,0.014259020873566938,0.005069648837167764,0.013586160001182337,0.020280836327049467,0.02921753719009868,0.00553808550215876
0.2523103,0.0049905625096461235,0.014151098210567167,0.014253146304774604,0.005075916869527375,0.013532970319899177,0.020224029331353338,0.029541924111709323,0.0055507289656271065
0.2527759,0.004966416299889835,0.014148085240700084,0.014246867094934093,0.005082106648323098,0.013479749682767932,0.02016695935955018,0.029865741261726607,0.005563374186957671
0.2532414,0.004942603854560621,0.014145493281470802,0.014240195595791406,0.005088218429890058,0.013426509391338092,0.02010963540296134,0.030188919905414894,0.005576018238227173
0.2537069,0.004919125997516851,0.014143324310421004,0.014233144429380225,0.005094252507363565,0.013373260688551849,0.020052066596416625,0.030511391448779127,0.005588658177987334
0.2541724,0.004895983475073327,0.014141580189310637,0.01422572648349964,0.005100209210773695,0.013320014756337586,0.019994262216061987,0.030833087456334878,0.005601291052056355
0.2546379,0.004873176956705952,0.014140262661683606,0.014217954906996818,0.005106088907119592,0.013266782713219509,0.01993623167708442,0.03115393966897956,0.005613913894315945
0.2551034,0.004850707035775682,0.014139373350432943,0.014209843104858197,0.005111892000422721,0.013213575611944549,0.01987798453135512,0.03147388002196021,0.0056265237275134805
0.255569,0.004828574230270709,0.014138913755368713,0.014201404733112863,0.005117618931758292,0.01316040443712768,0.019819530464991884,0.031792840662932934,0.005639117564068846
0.2560345,0.004806778983565897,0.01413888525079187,0.014192653693551662,0.005123270179264064,0.013107280102916865,0.019760879295841687,0.032110753970109186,0.005651692406885466
0.2565,0.004785321665198459,0.014139289083077345,0.01418360412826564,0.005128846258125708,0.013054213450678791,0.019702040970884474,0.03242755257048345,0.005664245250165005
0.2569655,0.004764202571658948,0.014140126368269652,0.014174270414007307,0.00513434772053797,0.013001215246706546,0.01964302556355908,0.03274316935813712,0.005676773080225178
0.257431,0.004743421927196697,0.01414139808969432,0.014164667156378132,0.005139775155640851,0.012948296179950426,0.019583843271012254,0.033057537512612915,0.0056892728763201115
0.2578966,0.0047229798846389,0.014143105095588436,0.014154809183845712,0.005145129189430102,0.012895466859773063,0.019524504411271796,0.0333705905173543,0.0057017416114626875
0.2583621,0.004702876526222579,0.014145248096753672,0.014144711541594072,0.005150410484641384,0.012842737813729991,0.019465019420344495,0.03368226217820426,0.005714176253248244
0.2588276,0.004683111864438747,0.014147827664235066,0.014134389485210586,0.005155619740607511,0.01279011948537682,0.019405398849239707,0.033992486641957954,0.005726573764679072
0.2592931,0.0046636858428880336,0.01415084422702888,0.014123858474213125,0.0051607576930883005,0.012737622232104187,0.019345653360919104,0.034301198414963555,0.005738931104989089
0.2597586,0.004644598337147076,0.014154298069822796,0.014113134165421164,0.00516582511407263,0.012685256323001624,0.01928579372717326,0.03460833238176581,0.005751245230468139
0.2602241,0.0046258491556449705,0.014158189330771674,0.01410223240617465,0.005170822811552438,0.012633031936751405,0.019225830825425616,0.03491382382378644,0.005763513095285379
0.2606897,0.004607438040549057,0.014162517999311975,0.014091169227404535,0.005175751629268483,0.012580959159553514,0.01916577563546458,0.03521760843803546,0.005775731652311258
0.2611552,0.00458936466865935,0.014167283914017892,0.014079960836558984,0.0051806124464277665,0.012529047983082731,0.01910563923610454,0.03551962235584742,0.005787897853937678
0.2616207,0.0045716286523109035,0.014172486760502147,0.014068623610389337,0.005185406177392662,0.012477308302478882,0.019045432801776768,0.03581980216163626,0.005800008652895997
0.2620862,0.00455422954028342,0.014178126069364257,0.014057174087599976,0.005190133771341861,0.012425749914371216,0.0189851675990514,0.03611808491166244,0.00581206100307258
0.2625517,0.004537166818717384,0.014184201214188986,0.014045628961366382,0.005194796211903322,0.012374382514937896,0.018924854983092085,0.03641440815280583,0.00582405186032167
0.2630172,0.004520439912035985,0.014190711409597614,0.014034005071725681,0.005199394516759489,0.012323215698001481,0.01886450639404515,0.036708709941337465,0.0058359781832754325
0.2634828,0.0045040481838720696,0.014197655709354554,0.014022319397844067,0.005203929737225062,0.012272258953161313,0.018804133353365345,0.03700092886168342,0.0058478369341510164
0.2639483,0.004487990937999337,0.01420503300453171,0.014010589050165546,0.005208402957797633,0.012221521663963654,0.018743747460080364,0.03729100404517351,0.005859625079554563
0.2644138,0.004472267419266947,0.0142128420217329,0.013998831262446552,0.0052128152956814715,0.012171013106110391,0.018683360386996462,0.03757887518876762,0.005871339591282101
0.2648793,0.004456876814536692,0.014221081321380558,0.013987063383680958,0.005217167900284749,0.012120742445707097,0.018622983876847497,0.037864482573752085,0.005882977447117306
0.2653448,0.004441818253621864,0.014229749296066898,0.013975302869920056,0.005221461952690464,0.01207071873755122,0.018562629738389746,0.03814776708439871,0.005894535631626099
0.2658103,0.004427090810226962,0.01423884416897155,0.013963567275992137,0.005225698665101359,0.012020950923461123,0.018502309842444775,0.038428670226578567,0.005906011136948082
0.2662759,0.004412693502887371,0.014248363992347638,0.013951874247126244,0.005229879280259106,0.011971447830646638,0.01844203611789262,0.03870713414632276,0.005917400963584799
0.2667414,0.004398625295908197,0.014258306646078179,0.013940241510484683,0.005234005070838096,0.011922218170121887,0.018381820547617504,0.038983101648321895,0.0059287021211847585
0.2672069,0.004384885100301444,0.014268669836304558,0.013928686866608796,0.005238077338814218,0.011873270535160942,0.018321675164408253,0.039256516214355816,0.00593991162932515
0.2676724,0.0043714717747207615,0.01427945109412869,0.01391722818078258,0.005242097414809036,0.011824613399796997,0.018261612046815534,0.039527322021644856,0.00595102651829012
0.2681379,0.004358384126393016,0.014290647774390411,0.013905883374318626,0.005246066657409866,0.011776255117365637,0.0182016433149678,0.03979546396111363,0.005962043829845424
0.2686034,0.004345620912045979,0.014302257054521516,0.013894670415770988,0.005249986452466274,0.011728203919092798,0.018141781126347862,0.04006088765555809,0.0059729606180092916
0.269069,0.0043331808388314625,0.014314275933477748,0.013883607312079644,0.005253858212363593,0.011680467912728004,0.01808203767153177,0.040323539477706616,0.005983773949819278
0.2695345,0.004321062565243245,0.014326701230749991,0.0138727120996512,0.005257683375274031,0.011633055081223432,0.018022425169891606,0.04058336656816558,0.005994480906094924
0.27,0.004309264702029177,0.014339529585455865,0.01386200283538078,0.005261463404386042,0.011585973281459334,0.017962955865263745,0.04084031685324012,0.006005078582196049
0.2704655,0.0042977858130968495,0.014352757455512836,0.013851497587620002,0.005265199787112593,0.011539230243016408,0.017903642021584,0.041094339062620805,0.006015564088776544
0.270931,0.004286624416412199,0.01436638111689396,0.013841214427096085,0.005268894034279005,0.011492833566995616,0.017844495918491042,0.041345382746926757,0.006025934552533536
0.2713966,0.004275778984890419,0.014380396662967329,0.013831171417787273,0.005272547679291063,0.01144679072488589,0.017785529846899368,0.04159339829509576,0.006036187116951855
0.2718621,0.0042652479472785375,0.014394800003920242,0.013821386607759752,0.005276162277284056,0.011401109057480215,0.017726756104543006,0.0418383369516118,0.0060463189430437535
0.2723276,0.004255029689029025,0.014409586866269117,0.013811878019971227,0.005279739404253394,0.011355795773840457,0.017668186991491027,0.04208015083356059,0.00605632721008382
0.2727931,0.004245122553163831,0.014424752792456147,0.013802663643046465,0.005283280656167434,0.011310857950311304,0.01760983480563585,0.04231879294750353,0.006066209116339111
0.2732586,0.004235524841128276,0.014440293140533743,0.013793761422030012,0.00528678764806307,0.011266302529583603,0.01755171183815526,0.042554217206160934,0.0060759618797944955
0.2737241,0.0042262348136343,0.014456203083937849,0.013785189249121445,0.005290262013124654,0.011222136319807445,0.017493830368949123,0.0427863784448953,0.006085582738873255
0.2741897,0.004217250691492608,0.014472477611351297,0.01377696495439846,0.00529370540174676,0.011178365993755242,0.017436202662051897,0.04301523243798519,0.0060950689531529675
0.2746552,0.004208570656433273,0.01448911152665843,0.013769106296533055,0.005297119480581289,0.01113499808803505,0.017378840961022338,0.04324073591468043,0.006104417804076699
0.2751207,0.004200192851914431,0.014506099448992222,0.013761630953506061,0.005300505931569418,0.011092039002354328,0.01732175748431208,0.04346284657502892,0.00611362659565955
0.2755862,0.004192115383918628,0.014523435812875218,0.013754556513325295,0.0053038664509589065,0.011049494998834276,0.01726496442061516,0.04368152310546528,0.0061226926551905475
0.2760517,0.0041843363217364425,0.014541114868455406,0.013747900464752626,0.00530720274830727,0.011007372201374904,0.017208473924200687,0.04389672519415137,0.006131613333929887
0.2765172,0.004176853698736892,0.014559130681838107,0.013741680188045243,0.005310516545471355,0.01096567659507091,0.017152298110230998,0.0441084135460586,0.006140386007801485
0.2769828,0.004169665513124231,0.014577477135514907,0.013735912945716414,0.005313809575583867,0.010924414025678366,0.017096449050067766,0.04431654989778176,0.006149008078080807
0.2774483,0.004162769728680664,0.0145961479288905,0.01373061587332097,0.005317083582017387,0.010883590199132208,0.017040938766568585,0.044521097032074165,0.006157476972077935
0.2779138,0.0041561642754945225,0.014615136578908169,0.013725805970270686,0.0053203403173363905,0.010843210681114502,0.01698577922937676,0.04472201879209401,0.006165790143815762
0.2783793,0.004149847050673505,0.014634436420774593,0.013721500090684666,0.005323581542237764,0.010803280896673465,0.01693098235020716,0.04491928009535173,0.006173945074703256
0.2788448,0.004143815919042553,0.014654040608784486,0.01371771493427988,0.005326809024480266,0.010763806129893123,0.01687655997813113,0.045112846947348115,0.006181939274203671
0.2793103,0.004138068713826001,0.014673942117245545,0.013714467037306919,0.005330024537803373,0.01072479152361361,0.016822523894863585,0.045302686454893173,0.006189770280497623
0.2797759,0.0041326032373136335,0.01469413374150395,0.01371177276353611,0.00533322986083593,0.010686242079201914,0.016768885810055437,0.04548876683909555,0.006197435661140888
0.2802414,0.0041274172615103225,0.014714608099070605,0.013709648295299068,0.005336426775995016,0.010648162656372842,0.016715657356594662,0.04567105744801318,0.00620493301371683
0.2807069,0.004122508528768939,0.014735357630848173,0.01370810962459075,0.005339617068375478,0.010610557973059978,0.016662850085919306,0.04584952876895642,0.006212259966483351
0.2811724,0.004117874752406258,0.014756374602458813,0.013707172544237076,0.005342802524630584,0.010573432605336271,0.01661047546334576,0.046024152440435784,0.006219414179014231
0.2816379,0.0041135136173016205,0.014777651105672421,0.013706852639133094,0.005345984931844315,0.010536790987383892,0.016558544863415642,0.04619490126374726,0.006226393342834747
0.2821034,0.00410942278047811,0.014799179059935089,0.01370716527755661,0.005349166076395842,0.010500637411512935,0.016507069565264494,0.046361749214188286,0.006233195182051466
0.282569,0.00410559987166607,0.01482095021399725,0.013708125602562132,0.005352347742816829,0.01046497602822856,0.016456060748015474,0.04652467145189832,0.006239817453976135
0.2830345,0.004102042493848857,0.014842956147640982,0.013709748523459925,0.005355531712642209,0.010429810846346138,0.01640552948620109,0.04668364433231758,0.006246257949743619
0.2835,0.004098748223790809,0.0148651882735058,0.013712048707384877,0.005358719763255142,0.010395145733154065,0.016355486745215878,0.04683864541625796,0.00625251449492382
0.2839655,0.004095714612547493,0.014887637839012136,0.013715040570959746,0.005361913666726907,0.01036098441462394,0.016305943376802863,0.04698965347958022,0.0062585849501275645
0.284431,0.00409293918595837,0.014910295928381756,0.013718738272057336,0.005365115188652489,0.01032733047566789,0.016256910114576476,0.04713664852247156,0.006264467211606406
0.2848966,0.004090419445122051,0.014933153464754214,0.013723155701666014,0.005368326086982652,0.010294187360442849,0.01620839756958469,0.047279611778317715,0.006270159211846272
0.2853621,0.004088152866854376,0.014956201212398634,0.013728306475862965,0.0053715481108532765,0.010261558372701629,0.016160416225913073,0.04741852572216337,0.006275658920154882
0.2858276,0.004086136904129554,0.014979429779020025,0.013734203927899551,0.0053747829994127356,0.010229446676190542,0.016112976436333408,0.047553374078754276,0.006280964343242772
0.2862931,0.004084368986504701,0.01500282961815947,0.013740861100403148,0.005378032480648032,0.010197855295093355,0.016066088417999575,0.047684141830154236,0.0062860735257977505
0.2867586,0.004082846520528169,0.015026391031687538,0.013748290737699778,0.005381298270210412,0.010166787114521193,0.01601976224819325,0.04781081522292964,0.0062909845510525685
0.2872241,0.004081566890132145,0.015050104172390374,0.013756505278261943,0.0053845820702411165,0.010136244881048069,0.015974007860121934,0.04793338177489395,0.006295695541345519
0.2876897,0.0040805274570100735,0.015073959046648025,0.013765516847285865,0.005387885568197933,0.010106231203291547,0.015928835038771863,0.048051830281404126,0.006300204658673681
0.2881552,0.004079725560979505,0.015097945517204541,0.013775337249402402,0.005391210435683182,0.010076748552538107,0.015884253416818202,0.04816615082120083,0.0063045101052384735
0.2886207,0.004079158520331013,0.015122053306029445,0.013785977961525737,0.005394558327273764,0.010047799263412661,0.015840272470594982,0.048276334761784015,0.006308610123983201
0.2890862,0.004078823632163843,0.01514627199727018,0.013797450125843968,0.0053979308793539104,0.010019385534591654,0.015796901516127202,0.04838237476431525,0.00631250299912223
0.2895517,0.004078718172709019,0.015170591040295063,0.013809764542955514,0.0054013297089512,0.009991509429559177,0.01575414970522746,0.048484264788038106,0.006316187056661445
0.2900172,0.004078839397640664,0.015194999752826155,0.01382293166515529,0.005404756412576466,0.009964172877405498,0.015712026021659373,0.048582000094207704,0.006319660664909649
0.2904828,0.004079184542376299,0.015219487324161497,0.013836961589874373,0.005408212565068123,0.009937377673667435,0.015670539277369996,0.04867557724952041,0.006322922234980544
0.2909483,0.004079750822366969,0.015244042818485981,0.01385186405327683,0.00541169971844144,0.009911125481210049,0.015629698108793312,0.048764994129034865,0.006325970221284962
0.2914138,0.004080535433377994,0.015268655178270175,0.01386764842401729,0.005415219400743266,0.009885417831149103,0.015589510973226861,0.048850249918576054,0.006328803122013042
0.2918793,0.004081535551761155,0.015293313227756374,0.013884323697162741,0.005418773114912689,0.009860256123813886,0.01554998614528339,0.048931345116614164,0.006331419479606033
0.2923448,0.004082748334719127,0.01531800567653117,0.013901898488281876,0.005422362337648096,0.00983564162974994,0.015511131713419493,0.04900828153561058,0.006333817881217504
0.2928103,0.004084170920562942,0.015342721123183889,0.013920381027705288,0.005425988518281118,0.009811575490761275,0.015472955576543023,0.04908106230282356,0.006335996959163745
0.2932759,0.004085800428963239,0.015367448059050227,0.013939779154959735,0.005429653077657919,0.009788058720991626,0.015435465440701086,0.04914969186056665,0.0063379553913632545
0.2937414,0.004087633961196046,0.015392174872040414,0.013960100313379497,0.005433357407028275,0.009765092208044328,0.015398668815850303,0.04921417596591259,0.00633969190176521
0.2942069,0.004089668600383797,0.015416889850551162,0.013981351544897826,0.005437102866942917,0.009742676714140287,0.015362573012711052,0.04927452168983633,0.006341205260766945
0.2946724,0.004091901411732265,0.01544158118746071,0.014003539485021341,0.00544089078615957,0.009720812877313537,0.015327185139707248,0.04933073741579119,0.006342494285620457
0.2951379,0.004094329442764065,0.015466236984206167,0.01402667035799012,0.005444722460558098,0.00969950121264383,0.015292512099993267,0.04938283283771288,0.006343557840827996
0.2956034,0.004096949723549353,0.015490845254942378,0.01405074997212609,0.00544859915206515,0.009678742113525787,0.015258560588569479,0.049430818957446394,0.006344394838526838
0.296069,0.0040997592669343285,0.015515393930781428,0.014075783715372268,0.005452522087588664,0.009658535852974133,0.015225337089487763,0.049474708081591115,0.006345004238863314
0.2965345,0.004102755068768133,0.015539870864111929,0.014101776551025258,0.005456492457962564,0.009638882584964733,0.015192847873148329,0.049514513817759384,0.00634538505035621
0.297,0.004105934108128742,0.01556426383299716,0.014128733013663292,0.005460511416901967,0.009619782345811106,0.015161098993688985,0.049550251070243634,0.006345536330249624
0.2974655,0.004109293347548413,0.01558856054565105,0.014156657205272014,0.005464580079969223,0.00960123505557622,0.015130096286467944,0.049581936035086656,0.006345457184855371
0.297931,0.0041128297332392325,0.015612748644990971,0.014185552791570128,0.005468699523551083,0.0095832405195193,0.015099845365641101,0.04960958619454955,0.006345146769885015
0.2983966,0.004116540195319289,0.015636815713266156,0.014215422998536889,0.005472870783847332,0.00956579842957742,0.015070351621834649,0.04963322031097153,0.006344604290771597
0.2988621,0.004120421648039964,0.015660749276760477,0.014246270609143371,0.005477094855871218,0.009548908365881582,0.015041620219913855,0.049652858420015517,0.006343829002981055
0.2993276,0.004124470990014812,0.015684536810568223,0.014278097960289303,0.005481372692462031,0.009532569798306923,0.015013656096848852,0.04966852182329326,0.006342820212313328
0.2997931,0.0041286851044504734,0.015708165743441343,0.014310906939947247,0.005485705203310208,0.009516782088056721,0.014986463959678295,0.04968023308036383,0.006341577275193053
0.3002586,0.004133060859380045,0.015731623462706523,0.014344698984515746,0.005490093253995335,0.00950154448927973,0.014960048283571767,0.04968801600009932,0.006340099598949751
0.3007241,0.004137595107899348,0.01575489731925037,0.014379475076382982,0.005494537665037468,0.009486856150720424,0.014934413309991878,0.0496918956314127,0.006338386642087343
0.3011897,0.004142284688406523,0.01577797463257082,0.01441523574170237,0.00549903921096214,0.00947271611740161,0.014909563044956954,0.04969189825334372,0.006336437914542799
0.3016552,0.00414712642484536,0.015800842695892752,0.014451981048381444,0.005503598619379496,0.009459123332338863,0.014885501257405193,0.049688051364500795,0.006334252977933682
0.3021207,0.004152117126952832,0.01582348878134572,0.014489710604285212,0.005508216570077957,0.009446076638286179,0.014862231477661232,0.049680383671858626,0.006331831445794333
0.3025862,0.004157253590511236,0.015845900145201534,0.014528423555655099,0.005512893694132875,0.00943357477951216,0.014839756996005937,0.04966892507891323,0.006329172983800369
0.3030517,0.004162532597605367,0.01586806403316936,0.014568118585744494,0.005517630573030585,0.00942161640360603,0.014818080861350294,0.049653706673197996,0.006326277309981206
0.3035172,0.0041679509168851105,0.01588996768574588,0.01460879391367178,0.005522427737808365,0.009410200063312708,0.014797205880014127,0.04963476071316551,0.006323144194920285
0.3039828,0.004173505303833819,0.01591159834361788,0.014650447293491698,0.005527285668210801,0.009399324218396104,0.014777134614610263,0.04961212061444197,0.006319773461942722
0.3044483,0.004179192501042824,0.01593294325311468,0.014693076013485792,0.005532204791863062,0.009388987237529761,0.014757869383034772,0.04958582093546287,0.006316164987290111
0.3049138,0.0041850092384923855,0.015953989671707598,0.014736676895672575,0.005537185483461643,0.009379187400213967,0.014739412257563733,0.049555897362501135,0.006312318700282308
0.3053793,0.004190952233839389,0.015974724873553527,0.014781246295538003,0.005542228063983134,0.009369922898718316,0.014721765064056997,0.04952238669410066,0.00630823458346602
0.3058448,0.004197018192712078,0.01599513615507974,0.014826780101986722,0.005547332799911604,0.009361191840048742,0.014704929381269296,0.049485326824929544,0.006303912672750036
0.3063103,0.004203203809012097,0.016015210840606864,0.014873273737514446,0.005552499902485204,0.009352992247937932,0.014688906540268963,0.049444756729067944,0.006299353057527001
0.3067759,0.004209505765224107,0.016034936288006885,0.014920722158601747,0.005557729526962549,0.009345322064858051,0.014673697623964543,0.04940071644274576,0.006294555880781605
0.3072414,0.004215920732733251,0.016054299894393068,0.01496911985632943,0.005563021771909481,0.009338179154054627,0.014659303466739363,0.04935324704654593,0.006289521339185165
0.3077069,0.004222445372150703,0.016073289101838525,0.015018460857215601,0.005568376678506771,0.009331561301600417,0.01464572465419417,0.049302390647089196,0.0062842496831765834
0.3081724,0.004229076333647525,0.016091891403120194,0.015068738724274392,0.005573794229879286,0.009325466218468045,0.014632961522997819,0.04924819035821658,0.006278741217029692
0.3086379,0.004235810257297077,0.01611009434748481,0.015119946558296274,0.005579274350447118,0.009319891542620183,0.014621014160845922,0.049190690281686225,0.006272996298906993
0.3091034,0.004242643773426146,0.01612788554643341,0.015172076999349781,0.005584816905299146,0.009314834841116016,0.01460988240652728,0.049129935487401716,0.006267015340899752
0.309569,0.0042495735029749945,0.01614525267952078,0.0152251222285043,0.005590421699589488,0.009310293612232687,0.014599565850097881,0.049065971993189246,0.006260798809054387
0.3100345,0.004256596057866484,0.016162183500166155,0.015279073969773512,0.005596088477957272,0.009306265287600434,0.014590063833162081,0.04899884674414134,0.0062543472233850565
0.3105,0.004263708041384451,0.016178665841471384,0.015333923492278924,0.0056018169239701815,0.00930274723435006,0.014581375449260556,0.04892860759154457,0.0062476611578722585
0.3109655,0.0042709060485614835,0.01619468762204259,0.015389661612632806,0.00560760665959219,0.009299736757271434,0.014573499544364469,0.048855303271408516,0.006240741240447275
0.311431,0.004278186666576272,0.016210236851811447,0.015446278697539765,0.005613457244675911,0.009297231100981657,0.014566434717475193,0.04877898338261286,0.006233588152962199
0.3118966,0.0042855464751606915,0.016225301637851828,0.015503764666616002,0.005619368176479964,0.00929522745210156,0.01456017932132883,0.0486996983646894,0.006226202631145281
0.3123621,0.004292982047016752,0.016239870190187664,0.015562108995425292,0.005625338889211739,0.009293722941439242,0.014554731463204646,0.04861749947525524,0.006218585464541335
0.3128276,0.004300489948243588,0.01625393082758766,0.015621300718730469,0.005631368753595908,0.009292714646179383,0.014550089005836516,0.04853243876711347,0.0062107374964369255
0.3132931,0.004308066738774609,0.01626747198334239,0.015681328433959203,0.00563745707646903,0.009292199592077246,0.014546249568426303,0.04844456906503728,0.006202659623770075
0.3137586,0.0043157089728249835,0.016280482211019166,0.015742180304882763,0.005643603100400516,0.009292174755656211,0.014543210527758088,0.048353943942253126,0.006194352797024281
0.3142241,0.004323413199349613,0.01629295019019002,0.01580384406550632,0.0056498060033402745,0.009292637066407835,0.014540969019412058,0.04826061769663836,0.006185818020106621
