Time,Rectus Femoris right,Rectus Femoris left,Hamstrings right,Hamstrings left,TibilaisÂ Anterior right,TibilaisÂ Anterior left,Gastrocnemius right,Gastrocnemius left
0.0,0.01119282583686266,-0.008763314592156651,-0.024779948326274677,-0.017650737081568668,-0.010274014592156652,-0.007234755021175963,-0.00853376291843133,-0.02637424209887283
0.0004655,0.011321342975453933,-0.007170822314034129,-0.026179971900880547,-0.01781986694210239,-0.009031598006486535,-0.003478122314034129,-0.0077811619833242284,-0.02462712231403413
0.000931,0.013824458347829959,-0.006658671478274145,-0.02474817617390862,-0.017050796434784268,-0.007848951865271903,0.007404447652182764,-0.007505959478248701,-0.018353638569499644
0.0013966,0.01804944316007602,-0.004390152279974659,-0.02322804273596959,-0.014577523647959455,-0.007036961823979728,0.01608599586415711,-0.008818419088010135,-0.00645800869579221
0.0018621,0.02301561174975075,-0.004685583392320349,-0.02193973833750046,-0.011953667933693296,-0.005045557597207399,0.006552195142071097,-0.007124558746259998,0.008811080211868551
0.0023276,0.026349059238273465,-0.0050282652014546,-0.021251052285343217,-0.01312679423819166,-0.0017917064580556916,-0.024472264277511892,-0.008221359238273463,0.004517411764473319
0.0027931,0.025701004744007373,-0.0038005716841793425,-0.02177056230479578,-0.013201305930009214,0.0005823988139981571,-0.058213118719174735,-0.011918060081015664,-0.028939656523010136
0.0032586,0.023289582836788968,-0.0052999448456676505,-0.02141221739392967,-0.01360960640652395,0.0022234192195718498,-0.06766825790957194,-0.0165618743739042,-0.07570945810673793
0.0037241,0.021121856087358608,-0.008684075545991309,-0.019520236775966347,-0.014998614672405215,0.0028796681148353914,-0.051848519458632704,-0.012517431633349917,-0.09292937565056557
0.0041897,0.021071660594131302,-0.013349927253891529,-0.01200966061485062,-0.01579218786874215,0.005691878791018078,-0.03723102878546684,-0.007948784835927685,-0.06774831968702345
0.0046552,0.021747176874622236,-0.016538582270543712,-0.007401008479305181,-0.017325111562688882,0.0045974135823915645,-0.04066168149969779,-0.008423992291540745,-0.02962019306238667
0.0051207,0.022233334126420107,-0.018252075902681686,-0.007095321399824113,-0.016192931428925906,0.0005253120486591577,-0.051167993346329245,0.0007717799417964123,-0.0021848675334342907
0.0055862,0.019144286605074032,-0.01708665764315706,-0.0107649769550952,-0.015319560969978847,-0.004298040553093603,-0.03621211108541247,0.022776603277012145,0.005139212608484919
0.0060517,0.014134473003743963,-0.017647206913175232,-0.010620613826350465,-0.013738442550900308,-0.00988397379903088,0.007145103456587616,0.03852369640457036,-0.005265780988768112
0.0065172,0.006043729509096847,-0.016115515848494747,-0.01149551256665578,-0.013596143169698949,-0.019681050546973163,0.030545797812107357,0.02476383160105387,-0.01762104217168825
0.0069828,-0.00018574478411672573,-0.0130576167932116,-0.01239651552181024,-0.01383665343456928,-0.032789567684978156,0.00541857328271536,0.0004227391841603999,-0.018690267684978158
0.0074483,-0.0012708995291919095,-0.009749541572102146,-0.015050960641646028,-0.013894046452784657,-0.039332239358353976,-0.016041697297821806,-0.01292366015321601,-0.0162303447274665
0.0079138,-0.0003248633684136109,-0.008885302134325562,-0.01350913276417985,-0.01049880170746045,-0.03584926510149458,0.007087499146269775,-0.009312661686573687,-0.021749965101494587
0.0083793,-0.0010662046581050265,-0.010091382049214325,-0.009729895913825446,-0.004144627729222243,-0.020774343865329628,0.03710565488651401,-0.004133439316928558,-0.03090809136001584
0.0088448,0.0024159114953681087,-0.009911200752475667,-0.004767264249121538,0.0024454089977639145,-0.00549620650015972,0.02340589181160609,-0.005238765937355728,-0.0371241975023958
0.0093103,0.0034593833381483525,-0.012296557093406355,-0.006980020698787266,0.0020075991926128763,0.007435457900793479,-0.009349361077464405,-0.007629561130341973,-0.0376265793540903
0.0097759,0.007821045984150277,-0.0162248549867919,-0.006201919090214393,-0.002768584164579063,0.013829718976225413,-0.02707102211702989,-0.008705581994716759,-0.0377661
0.0102414,0.01070067408010372,-0.018057285156359133,-0.001178725390315786,-0.005221246875145512,0.009787767968495354,-0.028839304296965945,-0.007840257421820433,-0.038358061718786376
0.0107069,0.014499783750583155,-0.01762240702029977,0.013046895582365383,-0.0056711895790942934,-0.002745104811482459,-0.028230824461505242,-0.00817130033900956,-0.03761588924008473
0.0111724,0.016065959197195237,-0.017509392677761835,0.035865122276359455,-0.007500107322238164,-0.02151430013205483,-0.024110633277475715,-0.010729811204207143,-0.03407237424785333
0.0116379,0.01759201034785503,-0.016138844837046966,0.06214333108003061,-0.010873413804456363,-0.03972512070668454,-0.010546906891253698,-0.012501344753141456,-0.027874448282673818
0.0121034,0.019925605257902754,-0.013250862894013763,0.07496629564693895,-0.01760690348244883,-0.05854480696489767,-0.0024260060600559555,-0.016745103516678336,-0.02609620087061221
0.012569,0.02128031436284883,-0.00933738834255075,0.07045074808755855,-0.021219341529953153,-0.06576968305990631,-0.01281172060949892,-0.016293593597872254,-0.02699931038248829
0.0130345,0.02334777983981732,-0.00704975157157016,0.05226942822416253,-0.026033176696677,-0.055525779167104626,-0.03224366670272833,-0.01426740314314032,-0.02789660125725613
0.0135,0.023708107793248855,-0.005466231129445781,0.03521779765860242,-0.028287095718847514,-0.0370947,-0.03497958677667469,-0.01039087119017698,-0.02696088326457832
0.0139655,0.02331916761648992,-0.0033250785588094063,0.01323640565323829,-0.030605253634224613,-0.018197423864007006,-0.024332219018374183,-0.00705670403802735,-0.023619326096347357
0.014431,0.023432671351698416,-0.0013641019496954106,-0.010348748796302142,-0.03204906199845923,-0.012729062800924465,-0.0168033154461445,-0.0035136360518453636,-0.02637471819830515
0.0148966,0.02657783956578999,-0.00024812699726897616,-0.03513584384460094,-0.031730385796252585,-0.014901879399491802,-0.01701706105088935,-0.0009956241286838952,-0.02761248001617114
0.0153621,0.03032081291231168,0.0004718876129833645,-0.0611972406330833,-0.03134787448199355,-0.012316880828810323,-0.020313906565494907,-0.0009030808288103221,-0.027830846761221936
0.0158276,0.033194893205893895,-9.877125685471505e-05,-0.08316457873962567,-0.02982435933005895,-0.0031850441143418994,-0.021259366907525484,-0.001620966907525484,-0.02675703559803537
0.0162931,0.03590158159998027,-0.002182,-0.10179732420013317,-0.024554635652939687,0.0020759132264649128,-0.017313876426425456,-0.004232536800039457,-0.025773909200009864
0.0167586,0.03447108582185343,-0.002014734754207787,-0.1102594682291639,-0.01936468582185343,-0.0011123794239387827,-0.01207052388123562,-0.006652548932354357,-0.02677807761045022
0.0172241,0.031554190679060484,-0.00028867243500067986,-0.11726518264719153,-0.016466602825831535,-0.0057271214677105785,-0.010539794348336925,-0.007655254684372973,-0.031522403669276444
0.0176897,0.02815296059943088,0.00029226666210324984,-0.12572596784642084,-0.013382260599430882,-0.009170613407585026,-0.017806945016877407,-0.00625035570738586,-0.040585315400398336
0.0181552,0.024799056936008198,-0.000997619433240266,-0.13191771314215137,-0.010028356936008195,-0.010847526813232995,-0.031222482818441404,-0.004444407580927489,-0.04755103846461101
0.0186207,0.02053506562713893,-0.0022962671256079024,-0.13532311755136633,-0.0030142074182223423,-0.010419200851516876,-0.057929850669048974,-0.0031557422776644873,-0.043771409524917655
0.0190862,0.01591082576161322,-0.0022970483810928156,-0.12954976166597137,0.0067573086175780435,-0.01042124652230484,-0.07572650961776237,-0.004524709476181699,-0.017414333095845613
0.0195517,0.0161665363710178,-0.0024433282422057613,-0.11274008920794695,0.019106942508050184,-0.010381216350119253,-0.07096258168139802,-0.0038095377605343542,0.042213533163412566
0.0200172,0.0201083737977824,-0.004110983529902076,-0.09378899289520586,0.027596963564596528,-0.009926343792634629,-0.05231479395643161,-0.0028998829697425223,0.09163783915723647
0.0204828,0.022404111070746,-0.005991400169672565,-0.07427028737392215,0.03102280028278761,-0.0099031,-0.026079542174047364,-0.002554199971721239,0.078305887628431
0.0209483,0.022342829375055134,-0.006345057432975063,-0.05386010848181176,0.030659147232120786,-0.010908884241104637,0.020031352767879217,-0.00460346595984902,-0.00525735234368925
0.0214138,0.021391875121573978,-0.007911396110119552,-0.03949072674286723,0.02494031468844005,-0.011551608164546728,0.05970134512879481,-0.005829712246820095,-0.07464553426744544
0.0218793,0.022159433226736566,-0.008122060452415784,-0.029045519136862593,0.010331920362274118,-0.009582623626869272,0.041037448033487633,-0.0038842247408331513,-0.09610472041072163
0.0223448,0.023105725511025046,-0.009602058407859253,-0.02523034585993989,0.005668760887036304,-0.010713133631437017,-0.021721911653608313,-0.004468075223577762,-0.1003510787567741
0.0228103,0.022098611886213954,-0.008794950738296274,-0.023542451560373472,-0.006251571593885841,-0.00972383382553085,-0.04703685845638272,-0.004651517127371413,-0.10480475073829627
0.0232759,0.018684045439916985,-0.010616072746777358,-0.01792741189718331,-0.01658566060443522,-0.014187557486498572,-0.023844163680249053,-0.006268257432860839,-0.09552855475160411
0.0237414,0.014326676530364032,-0.010711940961560102,-0.011378088968382286,-0.024220506984646544,-0.01660386409234578,0.011845926746161637,-0.00812943566154885,-0.06515858385386088
0.0242069,0.012685880652798978,-0.012141936396801167,-0.009937807375999636,-0.02963988524800073,-0.01649215344640131,0.016025525930918435,-0.007612203573080107,-0.030556746070401677
0.0246724,0.012482817104707616,-0.013362615131412285,-0.014344928289529239,-0.03519709243429386,-0.011602671742845558,-0.018040984476362938,-0.005659307533331345,-0.017779656579058476
0.0251379,0.012026903454782968,-0.013056359968317487,-0.018635166719470856,-0.038633506592740806,-0.005716149954623721,-0.04983574323730036,-0.006308403296370401,-0.024134359968317486
0.0256034,0.010105950425323813,-0.012475267147625892,-0.01852705299855484,-0.0381258152794244,-0.00422482509986242,-0.05023442494360026,-0.004678545246043154,-0.03157685475395684
0.026069,0.006397909765782691,-0.011433321452174695,-0.01760681903838352,-0.037273475128170454,-0.007308874102806821,-0.028279391240080987,-0.0010572063461278406,-0.02875038149379825
0.0265345,0.006222512673234547,-0.010946523591266197,-0.01733693626450074,-0.036495954396751115,-0.00963670054524591,-0.023394902789240495,-0.00024045439675111528,-0.02474980824825632
0.027,0.006978282914744729,-0.011711254874423418,-0.014895381708525527,-0.03602277256278829,-0.015318273314026942,-0.025747250356398108,-0.0005675724146592409,-0.018880563417051056
0.0274655,0.008516766829997897,-0.012228123902855942,-0.012675766340004203,-0.03840018585428391,-0.019787529271419566,-0.005203425458890637,0.0031269116096940054,-0.01989015590158412
0.027931,0.0125887,-0.01195005506011224,-0.011417824699438806,-0.043644676992078635,-0.019646549398877614,0.012007415781459104,0.008805736511180723,-0.02556633602190806
0.0283966,0.01603116476443936,-0.010315002135488523,-0.012824516016163927,-0.048327168639966715,-0.014367083983836073,-0.01496021747935788,0.013521662233501146,-0.02671889145804591
0.0288621,0.017993627775068164,-0.008908135658988639,-0.010878049975613457,-0.04407212124481765,-0.011429830035692685,-0.047904455550136324,0.006239404570022135,-0.027161766601635884
0.0293276,0.017962918314629192,-0.00977306231738486,-0.012395098328743066,-0.03354259978227171,-0.012298358103957841,-0.036175297893286495,-0.006237600217728288,-0.025239356832872796
0.0297931,0.01705462642834134,-0.007149084081895608,-0.011498073724407622,-0.026519352551184754,-0.01087519459213256,0.019614092054260127,-0.01026470284337036,-0.023379520867724938
0.0302586,0.01775085436543764,-0.000729818399323754,-0.011345564033886115,-0.022672910499653077,-0.0069863711023521935,0.02898788160200527,-0.0056329087322043005,-0.019943520165443505
0.0307241,0.01815418943222415,0.0025970682966724584,-0.010568757991476977,-0.01992696314407472,-0.004894682805413153,-0.03356063659334491,0.003012050634708016,-0.019550461669861456
0.0311897,0.019008535027747214,0.0009338498172849073,-0.0103082612511791,-0.01567808512023793,-0.0018537924676282499,-0.09970074011098887,0.011483843371875309,-0.018853960073992572
0.0316552,0.021341162290893473,0.0012436907065363422,-0.006517752869922232,-0.014809188265295902,0.0016582782117707125,-0.10132232946426782,0.0043499159527541345,-0.02212579755875956
0.0321207,0.02253151250275932,-0.0011914537338005193,-0.0048355769332908615,-0.01091074220044595,0.0033321241688950972,-0.04831626159974517,-0.017688246133418274,-0.02248401533354569
0.0325862,0.022503933907981753,-0.003197673043237226,-0.003111942610864963,-0.00681321565410219,0.0033361956025621457,0.0018535217294890528,-0.033536861694580394,-0.01924133482981012
0.0330517,0.02249199132531821,-0.0050482489043900056,-0.003552736166074513,-0.004922814999724974,0.002630385000275026,0.03456321908139831,-0.04087120849822354,-0.01706360432832108
0.0335172,0.02475025463669739,-0.0061168063495417365,-0.00551351512110087,-0.004948275671375626,0.005139587802752175,0.042597720968806964,-0.03868005742880788,-0.018202002553759953
0.0339828,0.025912673763279114,-0.01017116364451549,-0.01057698177742255,-0.006920581732587353,0.003169714170670538,0.015969591068052055,-0.026443837497464998,-0.023203172621298628
0.0344483,0.025835399762029167,-0.015946868818221032,-0.015777265590889485,-0.006043134409110515,-0.006795829568113196,-0.004026596772668454,-0.00923286881822103,-0.02297902771647659
0.0349138,0.024887942332813245,-0.018907127059988635,-0.02221628501969102,-0.00623980323417756,-0.023758421197181072,-0.0016787211561484724,0.0037699452744751755,-0.01788479674530614
0.0353793,0.024207679537866247,-0.023308309109121014,-0.02575915227728025,-0.00475022546910977,-0.037868693653963274,0.003573574983305739,0.007836731815146498,-0.020186158170901473
0.0358448,0.022821757532514107,-0.02663452192196614,-0.026590705480491535,-0.0035029369488327757,-0.03717577393582713,0.0005245465715310407,0.0072823630130056435,-0.026006948024300588
0.0363103,0.021121267313919757,-0.02896803118354277,-0.024660160080288557,-0.0027765463831844004,-0.023289412553705664,-0.01025244408228615,0.009252662726224523,-0.03262579885660151
0.0367759,0.019428759272273406,-0.027951337548337892,-0.021796509465624968,-0.0027829126450136707,-0.012087121337232396,-0.01947947509667578,0.013434865594780241,-0.032876530802857365
0.0372414,0.01805575735552639,-0.027447319118508798,-0.020012049706215375,-0.00200016500483741,-0.009269649706215374,-0.021388842644473608,0.014806721322236803,-0.03250479235068898
0.0377069,0.01700229966135448,-0.027440495936983285,-0.017326683409287624,-0.0012503878109498586,-0.014258236228504905,-0.01845779187396657,0.01024214356682941,-0.03057781963779253
0.0381724,0.01737039322096079,-0.024523913713262988,-0.014282555264811606,-0.0016349941787176699,-0.019892205254338106,-0.02018183945990329,0.001139072573474024,-0.02586671371326299
0.0386379,0.016894898010855128,-0.021515977613026153,-0.012667420397828973,-0.0030524893378396523,-0.01691571641953923,-0.027675425762949506,-0.006212676618453718,-0.020351436817368205
0.0391034,0.016624247515426304,-0.024645211002863654,-0.012920826242286848,-0.004189052484573695,-0.009985296427402505,-0.03500187733031065,-0.010369175011727462,-0.017327811334844675
0.039569,0.016430024602346324,-0.02836099725175561,-0.01543401534115441,-0.0042952830682308814,-0.0020855136000510147,-0.037867764978832076,-0.009096762804743662,-0.02073938973166709
0.0400345,0.017156360380345757,-0.02751356944999874,-0.01785513460115253,-0.004779506920230506,0.0016671851921885464,-0.03508344176907672,-0.00679673556850297,-0.027760563464146584
0.0405,0.01939002126568827,-0.022217476038926477,-0.021906434789266016,-0.006275892168587186,0.003674940481430948,-0.0203043423192844,-0.0025340730421467964,-0.03502592319284401
0.0409655,0.019106358738169727,-0.015422123301785943,-0.02177559209242387,-0.00667337437423198,0.0022523015984247693,0.005478407423871255,-3.691557329981842e-05,-0.029848658738169727
0.041431,0.01774230163908858,-0.011028072617736948,-0.02067284022981231,-0.008496884227828815,0.001283813691131526,0.026674491692123273,-0.00019491661575345463,-0.019239049799184404
0.0418966,0.01555151355708531,-0.008677272885829382,-0.018549418979919432,-0.009348672885829383,-0.0013936305986176182,0.018916689476763036,-0.0004684116186981864,-0.012436635248421802
0.0423621,0.014362907291450592,-0.0075379732646811675,-0.014001414517152599,-0.00916789513903294,-0.005698512152417651,-0.004708817079133294,4.019978132190614e-05,-0.015272851040154136
0.0428276,0.01565231639317979,-0.008068744671014108,-0.00428083278635958,-0.008203441803410105,-0.007291553688064632,-0.023433962988866023,6.493701113397649e-05,-0.021228341661534672
0.0432931,0.017786110135480537,-0.006937127195168789,0.004930735474181884,-0.009059939389318872,-0.006684250677402692,-0.03192104932259731,-0.0030825170596882503,-0.027347520270961077
0.0437586,0.01919355700242179,-0.0030171144963673175,0.017899956633778982,-0.008238242874697276,-0.010560857125302725,-0.0322012617885182,-0.0043136180688515295,-0.03895609447661798
0.0442241,0.020457241474638687,0.0017967726635477188,0.028544722097402844,-0.007843093520276815,-0.01948592591889274,-0.03269732466273556,-0.005775559719584777,-0.05017315710780177
0.0446897,0.0193027,0.006936068283817537,0.0296146869422415,-0.006389057609891244,-0.03153013892526455,-0.02537354674035946,-0.008508908511902303,-0.05319618422661015
0.0451552,0.01834064632861801,0.012218093757656671,0.021095958813304668,-0.005569030885745341,-0.043350726755945826,-0.02050499628446927,-0.012102845571273295,-0.04493046328618011
0.0456207,0.01646297741442512,0.012357516121637678,0.004283879158016224,-0.007190045171149762,-0.05485952414730711,-0.01866983064639372,-0.01538989193918116,-0.0312885870721256
0.0460862,0.015159947204441169,0.010015445673266201,-0.010409323739748356,-0.009618223464692814,-0.06636402554597887,-0.018992411732346406,-0.016395752795558834,-0.025510376260251644
0.0465517,0.01585829528985919,0.009406509420281622,-0.024882297619826885,-0.010735390579718378,-0.07038838004729107,-0.01955099528985919,-0.014529414130422434,-0.022425310532427297
0.0470172,0.018768868329520228,0.007027924880778444,-0.039023331009153124,-0.011415680587870703,-0.04454253647780227,-0.021383382751487722,-0.01057054627528657,-0.020760028365447644
0.0474828,0.020828638208664242,0.002903658809980978,-0.046206526774959636,-0.011093338208664245,0.013818296501701834,-0.020992094024676,-0.007378843667044852,-0.021914128007165336
0.0479483,0.017470839374117666,-0.003638879917945205,-0.05060582431208904,-0.012112735728938357,0.07083095698070302,-0.019734203541635756,-0.004097593706720409,-0.02531901564688356
0.0484138,0.014004432954986412,-0.008704523395877557,-0.04877117420534503,-0.013693584284348864,0.0924696070959835,-0.021221565166131152,-0.0025889976012225865,-0.02605229164027985
0.0488793,0.01431300987355213,-0.012757489430320944,-0.04331702573498834,-0.01368741264422458,0.08437235035498108,-0.020751806670175753,-0.0027470933298242477,-0.02589737816451496
0.0493448,0.016693410096411777,-0.014162273617433808,-0.04412532247589706,-0.013229637544192818,0.06328212463210012,-0.020587294342864784,-0.003563928133032272,-0.025316583713845583
0.0498103,0.018001606306188894,-0.013936867268801206,-0.053781738290301584,-0.01401903573681186,0.029795031531989345,-0.019561184086001507,-0.0034009252258004516,-0.02462714113979895
0.0502759,0.018613476923125104,-0.01408085034965911,-0.06980675034965911,-0.014174025174829555,-0.02264179080081726,-0.01826818881122166,-0.005789760139801011,-0.02012820134445691
0.0507414,0.01750802087847515,-0.014358746736132062,-0.08580835786019436,-0.014443244128464263,-0.08326144412846426,-0.018039727935767868,-0.0066530164288502325,-0.014013441284642625
0.0512069,0.014654555603677476,-0.012288512265813867,-0.09929246531947623,-0.015261386099080631,-0.11206504915686503,-0.020264601346782207,-0.004886970851379053,-0.01034211120735495
0.0516724,0.01614287566698247,-0.01023286053410624,-0.09911811588027085,-0.016894148666035058,-0.09602288234711202,-0.025119966765278754,-0.0017218544508518568,-0.00816344183538606
0.0521379,0.016424875004280172,-0.008747212023899227,-0.08848068614664477,-0.018319779960167953,-0.06163199394629667,-0.02917108790971403,0.002896691984067182,-0.012849959105188019
0.0526034,0.01772095916917282,-0.007746718338345638,-0.06708764278947316,-0.01960023275939933,-0.022795877085146864,-0.026242371394736577,0.005267806112781879,-0.029580287774436245
0.053069,0.020157313639252605,-0.006952268399057172,-0.04770761276451871,-0.020896637921131393,0.0034171471924573753,-0.017446706943767876,0.0051751126403771315,-0.046361632100380565
0.0535345,0.02491134515066721,-0.009303963397455206,-0.036660896351484465,-0.018750098175742233,0.016374357924681903,-0.009505428050212067,0.004469928050212066,-0.04614307205875673
0.054,0.03025290375565928,-0.016648225432467446,-0.03214589654026043,-0.01596346591818363,0.01672824221558597,-0.009954264703893167,0.0037048728376627696,-0.03582302918812673
0.0544655,0.03494422176492698,-0.027329216784954084,-0.027932020494078443,-0.01559536897178891,0.006363158392477042,-0.02328166024703922,0.0032696509385758948,-0.030544478257662627
0.054931,0.0383542266032016,-0.034883588994664,-0.025819688994663997,-0.017162240832715395,-0.01202050368867959,-0.04891694774557277,0.0025177,-0.024398836692110803
0.0553966,0.037562924879140216,-0.03620242520143297,-0.027138525201432975,-0.017557930980900593,-0.022571114770522403,-0.06236907705461635,0.0025177,-0.01859603595463631
0.0558621,0.036278051108012785,-0.03440668943902237,-0.031104533898958456,-0.015895676662019177,-0.026066623337980824,-0.06404582555400638,0.004534310560977629,-0.020793159452964845
0.0563276,0.03796971903064007,-0.03203448443806144,-0.03297824602042672,-0.01325730449044505,-0.02572492698978664,-0.05297157232126624,0.007377092040853433,-0.03919693734857099
0.0567931,0.04272828330798732,-0.02592228928721253,-0.026431001615150655,-0.012730282714720214,-0.02744865956210492,-0.037446220515581094,0.009155740846418332,-0.06067489383603094
0.0572586,0.0501869,-0.019007746751415085,-0.014445045283716155,-0.01116364088061936,-0.021171901772275355,-0.030106502935397864,0.009738581761238718,-0.06604620167074989
0.0577241,0.04976768706628912,-0.011131275749292102,-0.008476787066289121,-0.010396004850141579,-0.0004486970313802089,-0.02589707304548024,0.00817710889192623,-0.05068637142876638
0.0581897,0.04262838047336215,-0.005836147787368367,-0.013910109433418498,-0.009474869176974935,0.028479867559576145,-0.01378086164605013,0.007027751009463786,-0.028775729334762315
0.0586552,0.02792826978431921,-0.002948499818568504,-0.02247531088893001,-0.009436760431361583,0.04373180233823941,0.012437381475516244,0.0010620341241734112,-0.0169478387663714
0.0591207,0.00933638664134033,-0.0015154228105540679,-0.026951359278331984,-0.011713229639165991,0.04711737333110232,0.021858084115040168,-0.0074229855516831705,-0.012641750916094745
0.0595862,-0.004925172913213644,-0.00492195097727659,-0.028788573534085114,-0.012833279397744654,0.03750393924995751,0.0021955917919045864,-0.024318144102862885,-0.011991614969584584
0.0600517,-0.012876564516850753,-0.010081956447393382,-0.02725462418590893,-0.011891266130742227,0.009039935505612431,-0.02504865969152136,-0.04316554914301446,-0.01516105967517633
0.0605172,-0.005934421396438506,-0.010814664888769204,-0.027002482094449408,-0.007847109364796157,-0.04473875307886706,-0.04929656526974723,-0.043068302285868165,-0.027078771586719168
0.0609828,-0.003839771845424007,-0.009366772438789066,-0.02848724616755574,-0.009180675435904073,-0.09906973365868843,-0.06351245083532926,-0.027404527004324764,-0.04411960965147868
0.0614483,-0.004571520578757413,-0.007540164913294085,-0.033335880198184946,-0.00824765435930979,-0.10775877095035419,-0.05588775464078978,-0.0093117855258003,-0.05905244059455485
0.0619138,-0.0003168659868480919,-0.0016392153039959509,-0.04299762571061256,-0.007898268121872111,-0.08899620073837299,-0.02846690138117766,0.005628442395786172,-0.05725544580094618
0.0623793,0.0014141283635081112,0.0071727826179074534,-0.05291799767318119,-0.005657833890665411,-0.06493377716364918,-0.022191200400310324,0.013727719308601033,-0.039255558182459446
0.0628448,0.006845669668103396,0.01313245845508218,-0.050460772826338283,-0.005742828688793107,-0.02591272896264369,-0.022383900839458112,0.01447915874683913,-0.027667099726149415
0.0633103,0.01180326922609998,0.017568148727411397,-0.047857192676954124,-0.007717350664020899,0.015590584745340537,0.00323680891566877,0.008393189867195821,-0.0213363028097583
0.0637759,0.012769862257579145,0.017289228773431413,-0.04355749334818374,-0.009844491962509002,0.00586327407428802,0.03411680944804469,-0.00485617407428802,-0.014617369816014898
0.0642414,0.014067765830102318,0.019536915486402937,-0.03633245611326512,-0.011475847742640391,-0.0506195273678311,0.022306868462551754,-0.014119578684055821,-0.012451719310918005
0.0647069,0.0152743,0.02044600454613012,-0.02106297358026325,-0.011418307102399397,-0.0807991804092132,-0.009866752692994005,-0.014584689209676175,-0.018867117034517527
0.0651724,0.01727762353718732,0.023817501752152165,-0.0056789252893394895,-0.012165988297498594,-0.05799966638027892,-0.0159892058512507,-0.010980897008282392,-0.024132917553752107
0.0656379,0.017473341011479987,0.02652968305291198,0.0014943106729973948,-0.012387554681973317,-0.012348861520178509,0.020161602810757254,-0.007796522004487961,-0.02960872734098666
0.0661034,0.01727343601864919,0.030327976065272166,0.002316004920127094,-0.009895568009324595,0.019543721457945796,0.056942854607326364,-0.006199103135820475,-0.040489359953377026
0.066569,0.01670769110154077,0.028347868855392703,0.0010430367248996776,-0.009612695550770385,0.028595555868213537,0.04591091298717916,-0.005774836579722637,-0.04190372224614807
0.0670345,0.01676927626745399,0.021308074743939226,-0.0009397386333681091,-0.011205319662012268,0.0021875786480490757,0.007746868817042942,-0.008072423732546009,-0.029119060675975462
0.0675,0.018332018000431195,0.018449209997844017,-0.002428988006899151,-0.013434252006036759,-0.03167521958120163,-0.01839289158292642,-0.01147234599870641,-0.007241324836734338
0.0679655,0.0182956,0.018954769908216196,-0.0037871194492971622,-0.014865219449297163,-0.039953591164998324,-0.02377614512358013,-0.01239022659212103,0.006331449512889808
0.068431,0.018619775825495993,0.017021945047024038,-0.00710225825495994,-0.01753200660396795,-0.03558329881386863,-0.023354048349008012,-0.010637881243332578,0.0010466351410721088
0.0688966,0.019698302151710624,0.007518928007482462,-0.013125320158651095,-0.020435842469012814,-0.02928998939901399,-0.022704526613782968,-0.007895138165591566,-0.03139403816559157
0.0693621,0.019571980621686132,-0.005454301210882901,-0.016572820414457422,-0.02091478062168613,-0.021836831154144167,-0.02059014722051551,-0.0068043140228567535,-0.05317113322643127
0.0698276,0.01869862354998377,-0.013553216413135309,-0.016534776048688814,-0.019528078974522908,-0.01498909266248783,-0.019604229350048682,-0.005462849624474225,-0.04303631467502434
0.0702931,0.018201923027169352,-0.0185610664510672,-0.01349423476904072,-0.019388594739118276,-0.008099697369559138,-0.027008144834230786,-0.0032867664510671983,-0.02130911776628763
0.0707586,0.01866812079047265,-0.0226921444695631,-0.010390137893987364,-0.019687499262608415,-0.00101961468688319,-0.03950168678789998,2.858973746632998e-05,-0.011667520053081061
0.0712241,0.019119918699583356,-0.02721057221797812,-0.014306018877818792,-0.020289956295730417,0.005004865912875249,-0.044321253321414414,0.0024383281384927507,-0.012721774995313772
0.0716897,0.018531364491063136,-0.031148713225125177,-0.02637450715585497,-0.020687315034355523,0.0075754071558549714,-0.039375385870259655,0.0038519923918374412,-0.014849771376580116
0.0721552,0.01800879190368415,-0.03522717571105245,-0.04116716864712646,-0.021457032385263402,0.0008440232565576904,-0.02462146795785313,0.0040006323852634,-0.01161740525210605
0.0726207,0.018396024212714263,-0.035660799588870064,-0.04632089168137019,-0.02047716870204573,-0.004642174326441486,-0.00859377473757142,0.0026776601206557247,-0.00810648579421424
0.0730862,0.0194201699712778,-0.03833683565878432,-0.0473335,-0.019024522480694677,-0.00680270873093046,0.018751751569009417,0.0023714687883748652,-0.014315287596526621
0.0735517,0.019487763494575074,-0.04061918677855642,-0.043681729190865826,-0.018110536505424928,-0.003491087381040513,0.03684005608423749,0.0016146194830340753,-0.029885581172913997
0.0740172,0.01940188289192554,-0.04322600050993745,-0.03660498631768623,-0.016267513682313776,6.86208012116321e-05,0.008921753462732685,-0.00027938075341623383,-0.03858007356057438
0.0744828,0.01872126312323059,-0.042106047507077644,-0.032931355315154114,-0.014277571234013077,-0.013062668109075309,-0.04074905188751034,-0.0019137790420895517,-0.03393513189092469
0.0749483,0.021313280782825923,-0.03925119702887305,-0.0313890029032392,-0.013665740357469086,-0.017519582309013806,-0.04900343234295769,-0.0018384390483055233,-0.028314191154506906
0.0754138,0.019807896184780408,-0.03658291907609797,-0.030124809538048983,-0.012523075011028562,-0.015194490461951017,-0.026502041967415527,-0.0030228961847804064,-0.032097458584244086
0.0758793,0.020269006193858897,-0.02886721262421522,-0.02545126389596686,-0.01160199568788419,-0.010499880359303049,-0.018572995451386767,-0.0038074692672029294,-0.0511124123877178
0.0763448,0.01939613292903876,-0.020633298569062965,-0.024531913656768992,-0.011675032929038761,-0.008432309254151938,-0.05001045583995969,-0.00381382631870758,-0.07089990264382076
0.0768103,0.017917968932584676,-0.018557666048686604,-0.028314086165730844,-0.012106241264046363,-0.0048728429447565036,-0.09756233106741531,-0.0030316070365151307,-0.06407664466292338
0.0772759,0.017702853034070796,-0.017575868495398227,-0.03219234797288467,-0.012608241262380814,-0.004401837572743363,-0.1307335121362832,-0.001096246965929204,-0.03564600332504425
0.0777414,0.01762156632923109,-0.015382755105641452,-0.03356850501208701,-0.0095674,-0.005288516835384455,-0.11791536053032739,0.0005267467318631313,-0.0029412068112104344
0.0782069,0.01868868128220279,-0.008708198820939726,-0.031063615254667887,-0.009218868460174869,-0.0069793871779720755,-0.06877658636558556,0.0016785,-5.161938161280189e-05
0.0786724,0.020247047971391197,-0.004334254462939368,-0.02783315446293937,-0.010834897565669436,-0.007488915624858519,-0.008285819682076126,0.0014102004928037279,-0.039877542291286545
0.0791379,0.021405929246741357,-0.0018594362057018795,-0.02742945457341377,-0.012226733240867114,-0.0024542578771662962,0.03931245126966124,0.001529574673327588,-0.06835254934665518
0.0796034,0.0227390615410446,-0.002837563631218563,-0.0275759076884331,-0.0095674,0.004545742572143728,0.05370861945647473,-0.0019516615746243988,-0.048283857949009926
0.080069,0.02232460605566599,-0.002905746896814346,-0.02551339990934754,-0.009262803239164341,0.007344530942350418,0.06256662479603196,-0.0036615967608356593,-0.013500878261827455
0.0805345,0.02194271257099103,-0.004456622334900991,-0.021283965278491423,-0.010232511029162917,0.00351537916083126,0.0513242111674505,-0.004991522196613411,0.005715506147207934
0.081,0.02121906485035319,-0.0069205225903142984,-0.014483272008641395,-0.01081097371798917,0.00014809972699901565,0.00224321686837288,-0.008213747708979324,0.0015908274453566348
0.0814655,0.02041062293701532,-0.008157682585344002,-0.013293596923107734,-0.00817432639757971,-0.000369323004974838,-0.05951930685316926,-0.006109793146830739,-0.01759049377825595
0.081931,0.021596776016054323,-0.009955207159567166,-0.019475989676810527,-0.009373496420216417,0.00016055191100021904,-0.09224615178989179,-0.002851627147567985,-0.025756078642406928
0.0823966,0.02320194382670757,-0.00828279706262029,-0.025429065112451837,-0.010187175992881208,0.001110373835606061,-0.06395074395372785,-0.00678500690890454,-0.025913208032034566
0.0828621,0.022335820159833764,-0.008197617676850334,-0.02814631037425662,-0.010130870707401329,-0.0015106,-0.00306925858519734,-0.011362583336060973,-0.029415652524095344
0.0833276,0.022874321380786097,-0.0077591534025277945,-0.02671337145427722,-0.009465914182891116,-0.0032593432684355356,0.03706251769186834,-0.009604513643069475,-0.03829701346312893
0.0837931,0.02395878181898903,-0.00693632597456435,-0.02606021818101097,-0.009096610387457583,-0.0009700545430329017,0.03366370908606581,-0.00662910129251242,-0.04193391818545065
0.0842586,0.0226596,-0.00747194502504165,-0.028192406035497816,-0.008654042903962713,0.0007856366155365185,0.004028803951824189,-0.0045319,-0.03757861419207457
0.0847241,0.018659273151929237,-0.007623155056672233,-0.031247934240353808,-0.008896,-0.0014826268480707613,-0.005308223579779486,-0.0011469268480707613,-0.03365378054421229
0.0851897,0.017949057100113713,-0.008408544607249636,-0.036049776050928885,-0.011451523949071117,-0.005841851189034832,0.011310278428998548,0.0034926107855007263,-0.030077189214499273
0.0856552,0.01939431044110793,-0.008719731691421966,-0.03544159483841001,-0.014131747412047832,-0.011310694824095663,0.024986710530407186,0.007651857971083706,-0.023686563043374444
0.0861207,0.018490840476021002,-0.0072586620763826085,-0.024966498410890672,-0.01541008747365994,-0.013540919047957999,0.02404813412670167,0.009521665873298333,-0.017126586956764122
0.0865862,0.016547025913520332,-0.005893167884693775,-0.008040180841453942,-0.015300103100892947,-0.0129244,0.00902696423061245,0.003963725591235052,-0.014706112403571784
0.0870517,0.016241536238867312,-0.0037339613845937545,0.006166473138133407,-0.016336863786963692,-0.010305811727708648,-0.007140656709008898,-0.00020477952985841394,-0.017026759059716828
0.0875172,0.015910088858565204,-0.00359602228286959,0.020956001625061973,-0.01520307771713041,-0.01287358913147836,-0.013631411141434796,-0.003102677990043566,-0.017881033157599712
0.0879828,0.015723526828908905,-0.0043778537486402255,0.033035582134949976,-0.014671013391748849,-0.015592194060120393,-0.014340220934440507,-0.00570284780876062,-0.01899460749728045
0.0884483,0.016731508851132008,-0.005970758912642438,0.03834676762004019,-0.0151064,-0.017640801165312758,-0.017949156828058643,-0.008597089983555234,-0.021682224571119697
0.0889138,0.017826001884956675,-0.006915801884956673,0.0388178267961371,-0.01525941849241029,-0.018542037544409785,-0.022459734129774738,-0.010119783392546383,-0.023458429800272185
0.0893793,0.018772740687937668,-0.009084071972267306,0.030190350599539634,-0.015034139996852335,-0.017430671281181972,-0.025144767699682494,-0.005778343761443212,-0.024094130085250368
0.0898448,0.019415765359379757,-0.010521420030401744,0.010331349934387363,-0.014760492287503804,-0.014147129220437003,-0.02516038065314687,0.0024971845750076074,-0.026676037616481817
0.0903103,0.018466818580872058,-0.010870566554430295,-0.013240678039662647,-0.013912078039662648,-0.006539362838255881,-0.023245795271321517,0.010851144594092942,-0.0268461841201763
0.0907759,0.01895111111658359,-0.009760100049252306,-0.035307011264340514,-0.014204613556992199,-0.004645155632170255,-0.023826653191761648,0.013246244564838972,-0.0276326088239319
0.0912414,0.0197945541164917,-0.009381010341180626,-0.054588079317638746,-0.014034212926475784,-0.010091617445261578,-0.025527334085934966,0.009953959927925074,-0.028145165750319903
0.0917069,0.019140075115196938,-0.00982178755759847,-0.07082711322634487,-0.013550599106037075,-0.014818150113471153,-0.028346937107165432,0.00427007644923818,-0.0283665
0.0921724,0.017808931384419784,-0.00995348128665994,-0.08545209376221999,-0.012471318908859745,-0.0182956,-0.028660218095755117,0.009113968420060532,-0.027728687524439962
0.0926379,0.017410194982162508,-0.009882817502972915,-0.0941634,-0.013676929988108339,-0.02026923500594583,-0.027517155730560478,0.011714475029729153,-0.027715382497027086
0.0931034,0.01927219308607999,-0.009573501382784002,-0.09400476586512646,-0.014889788937727987,-0.019613994468863995,-0.027383805531136004,0.008578604148352004,-0.028024698617216
0.093569,0.021119925926140957,-0.010732923333526862,-0.08602706042845423,-0.016597402592614094,-0.0188865163540146,-0.027498600897142032,0.00032622920108938406,-0.0283665
0.0940345,0.022876124959951293,-0.011838785717726067,-0.0670790607311803,-0.018152585691759596,-0.01670543219385491,-0.02787096065202489,-0.007769721409799664,-0.028086432088105025
0.0945,0.025415184180541815,-0.010760233898838966,-0.035816106624919124,-0.01984119357935939,-0.012959390601182424,-0.029107884180541815,-0.008487477041646839,-0.02840649096030961
0.0949655,0.02636865190643555,-0.008737099663938264,0.0024241202972772923,-0.01991319844642366,-0.008345703732707462,-0.028964379077167934,-0.0032916050303857095,-0.02812958532506825
0.095431,0.02700103088161124,-0.008091717447783213,0.02414115525131351,-0.018578261523725614,-0.004357624369702266,-0.028835082552216784,-0.006176597092036131,-0.02742467673628905
0.0958966,0.026819463534071962,-0.008187040588605993,0.025734910008737892,-0.018370718822788012,0.00012791707444581276,-0.0290379,-0.01903044531005772,-0.027396959411394004
0.0963621,0.023626047706848532,-0.009319524742710054,0.01837791578281818,-0.01663020208393944,0.0023073169576579614,-0.029486726070233765,-0.03522167769962338,-0.02752862932901299
0.0968276,0.01714514370840717,-0.008035726651654862,0.013976380474513772,-0.014017141455596337,0.0031048317088807325,-0.0281572024366789,-0.03180914145559634,-0.026143002436678903
0.0972931,0.0108209990856685,-0.007712177251405267,0.014763461645796701,-0.013420661645796701,0.0029945370685389673,-0.0259273990856685,-0.010550138182537458,-0.0257522607314652
0.0977586,0.009143012000872284,-0.0074645120008722836,0.017757231998691576,-0.0162814,0.0024290120008722826,-0.024205068001308425,0.001757612000872283,-0.027467139995638587
0.0982241,0.008582477675323401,-0.006890671070129361,0.018542589298706398,-0.01625035125454724,0.001881784280517441,-0.023331,0.0011216749005032737,-0.030482717306487644
0.0986897,0.01020716228707091,-0.0075532,0.012096580373264849,-0.014005321330167879,0.004468624574141818,-0.023362637712929093,-0.0027057604811311213,-0.03775378515778
0.0991552,0.012879747209097908,-0.008493243776279944,-0.015028044470573742,-0.01321533869225691,0.008604835757220096,-0.024830394025170517,-0.013192811556633667,-0.03785540558180418
0.0996207,0.014859078241037058,-0.008208054918574044,-0.05433516181032683,-0.012732266319222207,0.00478701035831478,-0.02740796736155559,-0.02935599657480921,-0.02526461989727222
0.1000862,0.014376251928561507,-0.009451522458328546,-0.08791755674007207,-0.013537861229164273,-0.008842613555581094,-0.0270237,-0.03659483727278349,-0.017609433649774346
0.1005517,0.01756549026772983,-0.01032049203569731,-0.10378126836804297,-0.01583720022525372,-0.027240687382075864,-0.025403921899686866,-0.029668453982151347,-0.03446270331068124
0.1010172,0.019816506097317707,-0.010130235366722477,-0.09125067133968642,-0.015497432926655506,-0.05425832560930431,-0.02523463414668899,-0.01947480243721725,-0.07362981981368247
0.1014828,0.021635528563206725,-0.008417786454939083,-0.06031834539543517,-0.01564138228950669,-0.07594155313147993,-0.02427533542098662,-0.0145617452249363,-0.08623321157444458
0.1019483,0.02540233447931708,-0.008856606540467426,-0.03258530887191557,-0.015028642193217314,-0.06661564599987183,-0.020422351065132877,-0.011057374996145631,-0.06439689451695671
0.1024138,0.02729653626710853,-0.010137521203413729,-0.030880550071836738,-0.01292108181563219,-0.024199277169668826,-0.013317283309387754,-0.001222313671566329,0.002340462105974025
0.1028793,0.030794602714406497,-0.0100359073033095,-0.03484631910693459,-0.013029687064457568,0.01736691168879256,-0.004430599168833418,0.005624902086659857,0.09844167067192948
0.1033448,0.03075391459978729,-0.009631788654488754,-0.0310521,-0.016840884055394193,0.04172198304504848,-0.0058503142730128846,0.0014718412363555363,0.14046229809054248
0.1038103,0.030599947560064938,-0.007917787083238245,-0.026209465889458872,-0.005958855837082555,0.03753228139247373,-0.00900562378003247,-0.009405916985737478,0.06689947402741032
0.1042759,0.025798687429222932,-0.009069746032790128,-0.034939595934139964,-0.003923814695936141,0.013286593431503194,-0.02230681857733807,-0.010455718384318479,-0.06605608317890478
0.1047414,0.0172885,-0.00882212094668394,-0.04581593779004896,-0.0060218072828126575,-0.013981616804770317,-0.028811810993146617,0.0009326665889804833,-0.1452081691990393
0.1052069,0.008139388625464306,-0.009515214869694937,-0.05395878372396455,-0.008875125947877973,-0.02854564460908481,-0.0319757037915119,0.01705016667567798,-0.13975049253378305
0.1056724,0.005867171661160759,-0.013091666305459328,-0.05537736884629169,-0.007172499913649995,-0.03169994182193617,-0.0350884649196123,0.027001199956824998,-0.09428566621910932
0.1061379,0.004644561569953511,-0.010498215399358553,-0.059419820614332604,-0.010365565460749453,-0.04425003159036932,-0.0324794103071663,0.025190289570051896,-0.04866806199326032
0.1066034,0.004682267134879519,-0.01098538356743976,-0.06855328096971387,-0.011807150702319278,-0.06605047658332633,-0.02606511511415762,0.011888005493238941,-0.022614141253872472
0.107069,0.006016525445908394,-0.011631867436194317,-0.083688579908022,-0.013592209468843264,-0.07742876743619433,-0.018465195800361087,0.000863479823295953,-0.01413794087835747
0.1075345,0.00806072915665658,-0.010485452897412133,-0.11336343469886534,-0.017417371867492433,-0.07382103265056733,-0.009669268668737652,-0.00719522685574306,-0.015640231457570097
0.108,0.013399163771599346,-0.010539825065046686,-0.14458728418899508,-0.021698560724607546,-0.062468330809117074,-0.01006518723598687,-0.01629264605128221,-0.020292741184704664
0.1084655,0.018121366631174907,-0.010889701956608813,-0.16410665588146794,-0.02641258374568127,-0.05227536086782374,-0.014784864674566096,-0.030001489250293032,-0.021880683745681268
0.108931,0.021313912714321002,-0.010205158746790139,-0.1513510363287035,-0.025984452389629636,-0.03128837901456754,-0.01951429048703705,-0.03363379808604904,-0.02385062380518518
0.1093966,0.02188962358083995,-0.010897043144111994,-0.11242944912129502,-0.022179176544847044,-0.01455664886992103,-0.021079874459544932,-0.029380178427944003,-0.02062556258169704
0.1098621,0.01789168148866584,-0.009558540108788267,-0.0709487853359197,-0.01655728341229277,-0.0031282802899740628,-0.019376072595466334,-0.011469365625893764,-0.013405942068613964
0.1103276,0.01218944978192817,-0.007066878376348159,-0.04480897891052768,-0.013889163108814977,0.00035807237590319884,-0.02000846699010773,0.015589075188836898,-0.007471312356563618
0.1107931,0.007626910903641824,-0.007913498536191102,-0.035244178106859675,-0.010656382180728365,-0.004065205451820912,-0.020064153457814905,0.03177666175139694,-0.010271642322471748
0.1112586,0.004557200103404603,-0.008104919009459722,-0.03334751277637775,-0.006177298616214819,-0.011029880990540279,-0.017128925345946292,0.04059811416016293,-0.015051912776377751
0.1117241,0.00047154752664420183,-0.008524565623026299,-0.026941922542433817,-0.0037392062618422117,-0.01241002811513149,-0.011589153162500337,0.03588074690065813,-0.027994060549997778
0.1121897,0.0008113631874262566,-0.0082246,-0.018719389421691365,-0.00375164300267558,-0.008442313994648839,-0.004369869283803157,0.027036648174048356,-0.05295807986211179
0.1126552,0.004853484579491108,-0.007863966854651206,-0.012381056708212313,-0.006212793573764495,-0.004331437429505798,-0.002718162570494202,0.018265879707122214,-0.0565177272830669
0.1131207,0.008564647580393072,-0.008366862648503805,-0.01288883433787405,-0.00921609095913356,0.0001878460267816661,-0.0036002789046449737,0.010336812420069555,-0.02466946301408477
0.1135862,0.012928596047544476,-0.0078889,-0.015740076223939053,-0.01121652766718867,0.004066123776060946,-0.002154726315930754,0.003826931619644195,0.012479602763843632
0.1140517,0.021096964447516034,-0.006849045813777565,-0.01495787389477709,-0.010809872906888783,0.009557763052611457,-0.0036309349716119334,-0.0034727719190004776,0.035682462558667305
0.1145172,0.026187151896929467,-0.005042785286094431,-0.012129138560964921,-0.009997817400799917,0.01311437980882419,-0.0067895105455886545,-0.007857328015376268,0.04422211598836505
0.1149828,0.026051852354124425,-0.004646836966117244,-0.007800695139881043,-0.009708768483058622,0.013136352430059478,-0.01216449425629568,-0.008427741826236202,0.04228908910164827
0.1154483,0.02264517966840237,-0.004891636272677874,-0.002019361163280691,-0.008920036272677873,0.006123869418359654,-0.018980615378125586,-0.008548282579665611,0.009627136056945021
0.1159138,0.019033811051734843,-0.0048676,0.0006135949765626195,-0.009191715508829423,-0.018091867411138274,-0.025482121537126885,-0.009300155793060632,-0.060530078430916734
0.1163793,0.017719777303300016,-0.005235289140389509,0.005544725630361687,-0.008882868244986089,-0.04608430669114097,-0.032454833144707866,-0.010041823674791334,-0.12504028996359473
0.1168448,0.01909745335452547,-0.004811939936423596,0.008888694632759252,-0.010136176677262734,-0.04765007288661737,-0.036554402130107876,-0.006779176677262734,-0.13814720536724076
0.1173103,0.02474208802873484,-0.004279332175684609,0.01140939763608188,-0.010310056150586807,-0.03225556076493291,-0.03873480697826422,0.00020936608784230464,-0.1022736421129401
0.1177759,0.03151988203805081,-0.0038179219323890546,0.01411600495964743,-0.009510629243185405,-0.022630976268757905,-0.040761188539201694,0.006077745484069052,-0.051333176268757906
0.1182414,0.04531565391618026,-0.0029704363934497835,0.015352324262299856,-0.010152581967248919,-0.018029718870719302,-0.04628275180334791,0.007514187868850072,-0.0310829183606987
0.1187069,0.06394824775460438,-0.0034288137605769245,0.01700054128173077,-0.008991986239423076,-0.00779417295048074,-0.046877641281730775,0.0020867692745192143,-0.03153152752115385
0.1191724,0.08470227793060968,-0.0035248,0.016394524084994217,-0.008300016056662812,0.005709190099400401,-0.043589785107320235,-0.009999665786557236,-0.02889262065282004
0.1196379,0.09368263621422486,-0.0030769630153928778,0.011154768504671569,-0.008514425435032351,0.01531804170350355,-0.034247849179407326,-0.0282767904123143,-0.034742271682803465
0.1201034,0.08170805489113217,-0.003596417928927286,0.00918054433648051,-0.011286824530815592,0.022305462066119705,-0.02763178887224911,-0.042700200838724764,-0.0541948377345922
0.120569,0.060526656634273875,-0.0057452647101920214,0.007645653778434271,-0.012514736977252583,0.03182169208182658,-0.01565973396366825,-0.04469551284209498,-0.053580881511373704
0.1210345,0.03123270342701273,-0.009580906115218193,0.006132851713506365,-0.012440353328175342,0.04453809495831829,-0.0001390213518397184,-0.020726891419729155,-0.0328967609464861
0.1215,0.009411837163937785,-0.009855957420082231,0.004929832775041047,-0.01305264774225877,0.0417624380644353,0.011993658320579755,0.0229548021942146,-0.015261110451735262
0.1219655,-0.008057968597499382,-0.009426757883104828,0.0032502753657363995,-0.010809057759547202,0.006054841993337548,0.011628322170134864,0.04772431736543502,-0.012411937806425825
0.122431,-0.016725529335346618,-0.009221358013201435,0.002445438386864872,-0.008575856057392337,-0.05027985943234327,-0.00190818733188175,0.051694802596634594,-0.023762222239637466
0.1228966,-0.017935099525414427,-0.009547560802291489,0.006446904011457441,-0.008249400474585574,-0.08374218427291151,-0.005962412983543467,0.042950391027913974,-0.03276871203437232
0.1233621,-0.009651047911716183,-0.01016361422516217,0.011793916409568683,-0.006278712252688064,-0.06968279934451575,-0.007923856900648677,0.0375627518566644,-0.03806684309935132
0.1238276,-0.0008130331969167315,-0.01100178835792469,0.02612127240905679,-0.0008675367879242819,-0.02603840675188683,-0.004985356460188887,0.03351540644974966,-0.04580959456817256
0.1242931,0.009866954335491783,-0.011814143078776965,0.03737794152733821,0.0014942974348134863,0.030002457955515538,-0.0052033,0.011101971301360097,-0.04868385849320653
0.1247586,0.0193027,-0.01174324667666377,0.040890625200944566,0.0016206399164944536,0.06850786300495265,-0.008347034882560982,-0.015096800999494755,-0.048282739916494455
0.1252241,0.03155917151658506,-0.013116003017553677,0.031802142725122405,4.403451852228883e-05,0.07842616016588128,-0.011572079360189717,-0.037915949794268405,-0.04302801037161288
0.1256897,0.03717825526800976,-0.01400354135199721,0.022545046915027258,-0.00444834473199024,0.06729702395055413,-0.011263910337999302,-0.055235387478963685,-0.014426340551081634
0.1261552,0.03212941003663285,-0.015708492751320722,0.01370111505494927,-0.00799422500414272,0.0485628180779785,-0.011264310271708504,-0.0626483026568882,0.017727809479042133
0.1266207,0.018805031801461106,-0.01620267735878492,0.005009667292555824,-0.013228427674329628,0.016080982918392724,-0.0115816,-0.06854533647837989,0.01705776352162011
0.1270862,0.004528824084309576,-0.014673733599944649,-0.005033913128831069,-0.020346746331674628,-0.014254883831657603,-0.011147345642099437,-0.051902361010607884,-0.025511512042154787
0.1275517,-0.0006875161347876409,-0.012342070572431783,-0.01607292009959468,-0.021997022397382545,-0.010251076926560626,-0.011930995674041645,-0.008097369987908894,-0.05112451000403037
0.1280172,-0.0017740770888742636,-0.011473260254513585,-0.02570497549899698,-0.024886412118964835,-0.016148984755516606,-0.01123386225050151,0.030237603991975847,-0.01741023089507743
0.1284828,-0.000668163700356312,-0.013367001667827939,-0.03443686567061499,-0.028855098634602803,-0.058816507623674096,-0.011731262334959114,0.038568006323810904,0.029831196664344122
0.1289483,0.0018109622749204635,-0.014916513099405697,-0.03970520453797936,-0.03350354061408844,-0.09631449963736056,-0.013900578339167975,0.02586201258487329,0.026732173801188606
0.1294138,0.0062655858848057805,-0.014014474474850163,-0.04722098623764397,-0.034986128633745193,-0.09804184204326304,-0.01433458418756319,0.006143425928506594,-0.013568001999562217
0.1298793,0.009286364405982602,-0.013140263283478322,-0.06121312450656699,-0.03772407380967659,-0.07287142259116515,-0.018207281569245257,-0.0026165263353112177,-0.03794580236083127
0.1303448,0.011872089148793095,-0.0135958,-0.07396052090749224,-0.035973388727535395,-0.05419042291859308,-0.019439418381522452,-0.005163740505193958,-0.030826600608089637
0.1308103,0.013235923158075029,-0.013557672210309965,-0.08525360417007483,-0.03139803208069864,-0.03623979473654162,-0.0216526,-0.007399189643386436,-0.01765891297176466
0.1312759,0.013470729440960599,-0.011811992193818503,-0.08478725591405313,-0.028570232344520587,-0.009124657548260296,-0.02313284698950686,-0.011633350408909249,-0.011720867806467462
0.1317414,0.013553751281405135,-0.011524396524490672,-0.07806134186449534,-0.029099020136681194,-0.012024181553856922,-0.024399218058466565,-0.015175145340004666,-0.011276409126152409
0.1322069,0.011487886002146994,-0.01308547663112695,-0.061856232739893095,-0.026608215790928393,-0.04006218410447216,-0.02295503084221826,-0.017617606161065873,-0.014206419210081462
0.1326724,0.010888564153912395,-0.0142672,-0.04555042628773707,-0.0257466115285265,-0.05105780646136813,-0.018988635846087606,-0.02134011709661336,-0.017311730461614164
0.1331379,0.012840076067763268,-0.0142672,-0.03551416234881235,-0.021983022932253987,-0.04603963296860874,-0.017037123932236733,-0.023570333380134582,-0.01954202979172945
0.1336034,0.022251080450460776,-0.013966336449251467,-0.029213705571775484,-0.017457923325518147,-0.04281425411525842,-0.017554527101497065,-0.023064972898502935,-0.021142717753742664
0.134069,0.035332185865599476,-0.013016696739435098,-0.02700692094229337,-0.014921820942293369,-0.04565501442116356,-0.018992166087445007,-0.01510662826880105,-0.023129532461653054
0.1345345,0.03999655423922172,-0.011617432542196736,-0.02669596305071855,-0.014610863050718553,-0.042545528135112025,-0.019458556609958922,-0.005777891521556558,-0.025617195594251584
0.135,0.036765487111064456,-0.008869366042359023,-0.027804869313881035,-0.013645624182119497,-0.03496719190024894,-0.01899190961741353,0.0008427437331624597,-0.02887181939293501
0.1354655,0.03165288848394021,-0.005884917066795833,-0.02891046429142781,-0.012099358759756932,-0.03023726498003744,-0.019266288248048612,0.002372052992194455,-0.03053434124024307
0.135931,0.027214820090680818,-0.004500334405676749,-0.028841562057953823,-0.009242221864774417,-0.023269671393643675,-0.021549156258633396,-0.0001678,-0.03019488392272824
0.1363966,0.02270200635842847,-0.002595928098192845,-0.025605960327309482,-0.007090408261847587,-0.020313080657842892,-0.0213169,-0.002799649837957221,-0.028832580163654743
0.1368621,0.017667867335219863,-0.0010176619367351697,-0.015295510490368522,-0.004217410490368521,-0.019791885616714557,-0.019749464635977515,-0.003836783417564024,-0.024827298999816377
0.1373276,0.012924575234113207,-0.001659761059085954,0.0004659481587909657,-0.00479293185340042,-0.025774131216034286,-0.018892419470457025,-0.004047038940914046,-0.024300809735228513
0.1377931,0.008227877649153498,-0.0031145655416078056,0.01062727066325821,-0.007317075902679677,-0.02637873209007487,-0.018306478656012756,-0.002657532326902616,-0.02424180174647382
0.1382586,0.0019283838492090357,-0.003319221202808612,0.012186849762219698,-0.010033221202808612,-0.01958808337364843,-0.019799411267231913,-0.002058767529959477,-0.02561692903497169
0.1387241,-0.003142317569335498,-0.0037936321163773708,0.014080244398278626,-0.012055419798401582,-0.00936875288669651,-0.023005924599877044,-0.0025634186838685395,-0.03233115240073773
0.1391897,0.00202945264801533,-0.0033659735308861805,0.02275301733915353,-0.015184564691138196,-0.0025473176794959663,-0.02495565881468292,-0.0018687351637556482,-0.04121651466607313
0.1396552,0.01733048534600467,-0.0010141688147314396,0.035606866081820246,-0.014380344028390514,0.001920485323869829,-0.025525460537528903,-0.002492971558710057,-0.044195626608281725
0.1401207,0.03285603863869382,0.0007878726279252682,0.03962693809392843,-0.011885152547776986,0.0027522158174076708,-0.025664040993109927,-0.0022157280608641095,-0.04100736767639528
0.1405862,0.05502482692033274,0.00019121258299282254,0.026327667814537232,-0.012253,-0.005738409639280495,-0.02619615808047349,-0.0010668028489290815,-0.03558374331040544
0.1410517,0.06563902367553293,-0.0013327763244670708,0.0016849009101373405,-0.013401637279255488,-0.016427253038512037,-0.02600844493693552,-0.000450889018052289,-0.0310521
0.1415172,0.05988130264462684,-0.001138051259123648,-0.030415753059231842,-0.011847422507140208,-0.01424000282654184,-0.026117494655210863,-0.001553293037017664,-0.029501679111052993
0.1419828,0.04189451096757659,-0.0035964520083673302,-0.04448,-0.009356680464012154,-0.011482079036510804,-0.02431505753807968,-0.002024516503660707,-0.03010064549424746
0.1424483,0.01984609055452172,-0.006168861889095655,-0.05377749609233134,-0.0058713048872347535,-0.010986485996278194,-0.020911616602833145,-0.0006488895749556284,-0.031036467426905273
0.1429138,-0.0042879310294464635,-0.007278492655565616,-0.06209165238063991,-0.0019516509505224276,-0.006052133179827246,-0.02353362676683849,0.001086185061795304,-0.03149869573739203
0.1433793,-0.02693766531584357,-0.008314656202437473,-0.06750812016740936,-0.0015106,0.002214031728819123,-0.025923846835364563,0.0025177,-0.0310521
0.1438448,-0.03943899952393355,-0.010272402856398717,-0.06430837334027864,-0.0015330019042658117,0.010177407376964702,-0.027541300356017182,0.0024952980957341883,-0.03103529857180064
0.1443103,-0.03870448720415173,-0.012141789492854533,-0.04420516086345815,-0.0031567095968862012,0.01601445925617592,-0.028285617440830347,0.0012557825591696537,-0.03012588255916965
0.1447759,-0.029110656497867295,-0.01370344425419723,-0.018168951100319207,-0.007692590201175088,0.01992348995696835,-0.028147949407538578,0.0025620929096712842,-0.0310521
0.1452414,-0.02048359232230256,-0.015949642341195204,-0.004697821757860103,-0.012333910897822693,0.020432220160365798,-0.02663666370754697,0.002902808062881456,-0.0310521
0.1457069,-0.00835904784581901,-0.016964985940939325,-0.010277883520102877,-0.016596257406305735,0.0204776,-0.021223198112474466,0.0014421252434476688,-0.029521496635400785
0.1461724,0.001262204560146348,-0.018905064933865606,-0.03554035002611785,-0.018967,0.017928932466932803,-0.013688702599201593,0.0019856538988023906,-0.027116602599201595
0.1466379,0.008873790260580891,-0.020822757565218144,-0.05522409730449141,-0.01836285547110019,0.014183428507126849,-0.00896326769543567,0.0014528020941179502,-0.02575762526065381
0.1471034,0.013350087291597867,-0.019919855069742573,-0.06228709788193298,-0.015169314826469153,0.0038812489470517676,-0.008506055069742571,0.0004942531831858121,-0.025455936238649637
0.147569,0.018293251378521936,-0.018833010278407426,-0.058200573913888075,-0.012256074308837867,-0.015993437549368723,-0.014365749407575314,-0.0015344758848346999,-0.02879921225315638
0.1480345,0.020012757996137796,-0.02166548343942785,-0.053027778103030374,-0.010651554449817361,-0.03913404379393924,-0.023045587587878485,-0.0055383692372292966,-0.03284631244595516
0.1485,0.02044489666532098,-0.021809501053507173,-0.05101093071730333,-0.01338866155983146,-0.043167738565393333,-0.03111297713078668,-0.00928394295357953,-0.03601555822515244
0.1489655,0.021306639296024672,-0.021654651407276373,-0.0564954313695737,-0.02503581133187101,-0.030209161483356017,-0.04067659099873469,-0.012883359629160996,-0.039737206999353465
0.149431,0.024378144348230706,-0.02042806578366821,-0.06773902912772821,-0.03711651741663619,-0.017493615475197913,-0.04844064765947493,-0.0129244,-0.04161710132449768
0.1498966,0.028178426001547123,-0.017871830878683378,-0.0871028776305657,-0.04146947986138254,-0.013538684738518802,-0.05253200754181036,-0.009267446318025068,-0.042099246140164574
0.1503621,0.028769278224709507,-0.013787475021425452,-0.11975509615803287,-0.03588538189527303,-0.01561,-0.048200438726269695,-0.002929855038565814,-0.03943464005142108
0.1508276,0.02747857870838335,-0.011265125638152056,-0.13885451226032913,-0.026769663536633254,-0.014743914833533392,-0.03800968645306873,0.00015697387511891546,-0.03549478499735826
0.1512931,0.027409007479751845,-0.009554911358005878,-0.12456826438226555,-0.02111605508204066,-0.01062031376557913,-0.023081940709637185,-0.002235315586052173,-0.03340950182047304
0.1517586,0.02375713295872557,-0.009719763861090677,-0.0791796403472733,-0.02342143295872557,-0.0053878849029105995,-0.011122010888725416,-0.005095521409635377,-0.03033486596527267
0.1522241,0.019803672519098973,-0.009945706870225257,-0.015752022900750857,-0.031236729770976114,0.0009102114503754283,-0.0032879368481847646,-0.0095674,-0.02966221735031352
0.1526897,0.016207396824353543,-0.010779351587823229,0.036436529099138054,-0.03406409974084002,0.002570616396552235,0.0018265063512929117,-0.010822967725215486,-0.029472140457636634
0.1531552,0.01643849309517161,-0.011895884063847716,0.053172692566522566,-0.03180202509922504,-0.005724790573429506,0.0005427636128602703,-0.01156732270923181,-0.028698631740555702
0.1536207,0.0213169,-0.011673964695067178,0.04528819796035249,-0.022022045023239366,-0.007448411737667947,-0.011531905730940503,-0.005705919855685776,-0.029826511829596926
0.1540862,0.02301239318161459,-0.009125028505323082,0.030684381195539713,-0.00930281432978461,0.005968588854611969,-0.024482483930344044,0.002487848754308606,-0.03387991637157515
0.1545517,0.023834207348989812,-0.009258828107616378,0.026812789295035337,-5.032970513089573e-06,0.029990743784767245,-0.03135593318909207,0.01210650821887156,-0.03272788799734404
0.1550172,0.0240024,-0.01086778188019277,0.040431087793619265,0.0009774085797071702,0.045096855824917945,-0.024834988855267474,0.013234649128115662,-0.032403383623961446
0.1554828,0.0253684433469976,-0.012116261616968318,0.07100423163303654,-0.0034564308084841584,0.04472107466577582,-0.01348710025514703,0.01223278981487087,-0.03123094124876032
0.1559483,0.02864962770470361,-0.010531583476033467,0.09688166683728337,-0.0034789484457494477,0.03872028074702696,-0.009534476397592135,0.009981875156658418,-0.02574908831974644
0.1564138,0.030731920202760468,-0.007585543153390315,0.11733436376229639,0.006234979391093923,0.030576687415732853,-0.014923079797239535,-0.0009536928019870097,-0.02454702848521451
0.1568793,0.032292305877153184,-0.006381741161097024,0.11647518771630024,0.015398678495243323,0.004899755952724589,-0.0245102878927647,-0.0178259989875596,-0.023093135195711607
0.1573448,0.03199357737623932,-0.006075136406493755,0.09146497676419377,0.02097329473172499,-0.04604889140767797,-0.03580916754471251,-0.027055321073100033,-0.022511604641115776
0.1578103,0.025182010778202854,-0.005862144653985391,0.04761590155951943,0.023271877281028946,-0.08602165979996608,-0.03854886439235076,-0.018356743008292323,-0.017292950667456307
0.1582759,0.024990269266721283,-0.003935752996907015,0.002839606928567341,0.022351913996087797,-0.08734623873555249,-0.03363971533506096,0.005778546333606406,-0.01055359933051342
0.1587414,0.028293546708292747,-0.0023349777660100542,-0.023128439541127213,0.020550939079092972,-0.05933946666252785,-0.011191015528858655,0.033144555069985863,-0.006135677303975812
0.1592069,0.03155458911056835,-0.003169861749635608,-0.04103757793335837,0.017766349281982934,-0.017166611746504596,0.0269414343790363,0.04455912148768044,-0.004485976364803921
0.1596724,0.030411207212024716,-0.004672502798711638,-0.06598225320792364,0.01548465080730072,0.019303792820377808,0.07693546438656892,0.03438016356814492,-0.0023542167922698267
0.1601379,0.021470970817800243,-0.005485696557742304,-0.0907762286997103,0.010076951801543757,0.032292126512521425,0.1000439606821376,0.013916134652105625,-0.008335061454716955
0.1606034,0.013584056986274344,-0.00556552124344115,-0.12337805607129937,0.004555534301014865,0.03942679487457601,0.10979988242075657,-0.01026227901027656,-0.01484437337741715
0.161069,0.010450953957371778,-0.005627607914743557,-0.1741032700768317,0.0021367569960399355,0.049225043003960064,0.09873923309236116,-0.03974452014209407,-0.020610193590128816
0.1615345,0.00662017184233384,-0.005532266196151468,-0.22342453685196378,0.0025446352153941235,0.06723917377498742,0.05873625386157076,-0.07269019123464251,-0.02722135802405475
0.162,0.0035050272380699314,-0.00495973982854067,-0.2580114036681784,0.0006351475809885923,0.07893877334345695,0.0101192084075309,-0.08030122205751197,-0.03431052205751197
0.1624655,0.000962799428494501,-0.003759249181310751,-0.28615664133788654,-0.0029894467918255728,0.06822648417660966,-0.029309014967820485,-0.042454816572120246,-0.04159151304300085
0.162931,-0.0012750036581799234,-0.0029507066149948493,-0.28382265108444676,-0.007455905600537738,0.024541789192885227,-0.032191895640455076,0.02125974945518106,-0.04223223701311277
0.1633966,0.0045319,-0.0028585963972789803,-0.2567838444459567,-0.011039646753819724,-0.01794180591058404,-0.030816484125639365,0.05356288268703853,-0.0412965842693822
0.1638621,0.017643254243604037,-0.002087768093285946,-0.20510071947408318,-0.010464332989330052,-0.043222148016337884,-0.018315694157775043,0.02609214792162796,-0.04106801649466502
0.1643276,0.026924089657463773,-0.0025916030574290425,-0.16252380834757932,-0.009820386535041071,-0.02253427519502638,-0.008555446682505512,0.006232874132554261,-0.03681599900252154
0.1647931,0.034086143380197276,-0.0020682926332995315,-0.13714209582544445,-0.011261668651369173,-0.013099608962772933,-0.003308241784124811,0.00031200010227697627,-0.03231220149379549
0.1652586,0.03938812442918182,-0.003737353866948867,-0.10918040371465063,-0.013785616695284086,-0.04024971141532536,0.0009646933218863654,-0.005204479318691793,-0.027354346780018437
0.1657241,0.040684727041788056,-0.003589522957531867,-0.06822271741470991,-0.0195197380311917,-0.0638979622548088,-0.0006183581705526094,-0.022656206712666917,-0.02376248638354578
0.1661897,0.040946539180965184,-0.003597980400113346,-0.03046718592740668,-0.024527441181531915,-0.026209530145753366,-0.0009172886816492884,-0.044496369326718556,-0.02046946434576142
0.1666552,0.03401882265770399,-0.0032516014054393173,-0.010519922657703991,-0.0278741317705706,0.01880419648855836,-0.0024016497677110606,-0.04733811635571602,-0.020174604212004645
0.1671207,0.02974081574622733,-0.0021842167599003225,-0.009938949266027976,-0.02727139951068532,0.006510250733972025,-0.004795357383798982,-0.010197516748219114,-0.01898709139291431
0.1675862,0.027105128778528678,-0.0034810901449700738,-0.007284937512647965,-0.020488545800115124,-0.035721132922262255,-0.014062629565089779,0.05337305453423442,-0.02030579362000458
0.1680517,0.021821489947655467,-0.004225296903140023,0.006937822578500581,-0.018734224774879814,-0.06794763186908052,-0.037963255971110305,0.09243105731681035,-0.023402656643960327
0.1685172,0.018919983197548444,-0.0028351966835793697,0.013421990092542392,-0.015792745951365598,-0.07524941862309142,-0.060151954666999415,0.075216642949353,-0.027165728824054932
0.1689828,0.023208573949232376,-0.007925933370656568,0.018058146396040378,-0.012493176102789166,-0.07509215613510416,-0.07763271431972202,0.023431599726455338,-0.03231146081980548
0.1694483,0.03636332264073169,-0.007609817204965479,0.011864042949337354,-0.009073181270167548,-0.07082973903843812,-0.09100826492636735,-0.03406934065295621,-0.035842482131332835
0.1699138,0.04476783922994885,-0.008452331309737712,0.0009128830870494991,-0.0069536018494242725,-0.052743997483836715,-0.09119059973186794,-0.07057733461654711,-0.03707076605019191
0.1703793,0.041249959926739035,-0.008927966666726385,-0.010995762283640685,-0.006638222062814532,-0.027544176206490106,-0.0856985359854848,-0.09306319248624118,-0.036187256648321564
0.1708448,0.035619006482072536,-0.009161822878522158,-0.021340202688776812,-0.010712169979954876,-0.02603990513768413,-0.07951465447126835,-0.10387267679753105,-0.03531754821750847
0.1713103,0.028709005341584336,-0.008066764554081838,-0.025807506319773445,-0.013131109506631735,-0.04799025393412499,-0.07230533920306388,-0.08475507090981738,-0.03457470266180165
0.1717759,0.018559823464459394,-0.007105012256138025,-0.026578201518781343,-0.019124025415355198,-0.0820624420851978,-0.0543224980491042,-0.03487426688485081,-0.03227888579296617
0.1722414,0.012773478221415764,-0.008715858447311117,-0.017902156805807576,-0.021885055164304033,-0.10903971669691422,-0.02572709455535394,0.007726872599336008,-0.02951297313974575
0.1727069,0.005065805216883169,-0.00799029046737377,-0.0029164632362975885,-0.02336475755375202,-0.10495080805815596,0.01586903949730743,0.037754849495596064,-0.02423448661729311
0.1731724,-0.007485822832778354,-0.007904821283793004,0.014277648160754733,-0.02705545098744319,-0.08785247716722165,0.052992532896031494,0.06478790398397519,-0.01745460723656468
0.1736379,-0.02233270727173685,-0.009597857105740838,0.023654599220251423,-0.03044160022234812,-0.07300559272826315,0.060285777401980566,0.07559741784735009,-0.015891769128147024
0.1741034,-0.03881650995192096,-0.010884775107718972,0.03322638161263281,-0.03255008376701226,-0.02858872113787584,0.044872198441749764,0.0635696912989312,-0.015325149784562056
0.174569,-0.03341923993533629,-0.010624957140344367,0.039566832314586624,-0.03244535714034436,0.01583233523890597,0.019139521892643674,0.03657059332247149,-0.016071842850860916
0.1750345,-0.010348302422989312,-0.011105424443370563,0.04390210671436432,-0.032410752051903025,0.04051828676329163,-0.003649667161448387,0.01453229906135585,-0.01782710913735363
0.1755,0.025770483840738684,-0.013323177774201675,0.04126190617025676,-0.03128427755871593,0.052362624689073295,-0.021561725924733894,-0.006833867905009342,-0.0172682692443897
0.1759655,0.05668107108602811,-0.015364909168339254,0.0379205816633215,-0.02730072707915187,0.05017798777554766,-0.02695983967316549,-0.01657105195392243,-0.016530896943886916
0.176431,0.08012961825314739,-0.017123876888502663,0.03334958539748208,-0.019481156192446256,0.03718143063803991,-0.015420728447882592,-0.017039530638039903,-0.017676614602517914
0.1768966,0.08338193702536498,-0.01725586224346026,0.0307164,-0.011281350527798184,0.024021087644770792,0.002661297573661737,-0.003892241969649132,-0.020466448009852298
0.1773621,0.08195012256645329,-0.016523001823112816,0.030674229324223028,-0.003375543509571024,0.006402393100371009,0.0053669927654667465,0.012497143651430278,-0.02467546540621579
0.1778276,0.07398674812044168,-0.01772016041765893,0.030154669048753063,0.003970169048753065,-0.01685392549909155,-0.007669884826106393,0.020881683735462304,-0.029860094942035464
0.1782931,0.04893774768684441,-0.02007039364577228,0.03151089004836256,0.005037509111045723,-0.04139194871574586,-0.016754901667643547,0.012805428173728888,-0.03292053177113861
0.1787586,0.007618367140171237,-0.018202026785084466,0.03329773534593603,0.0017504903366186752,-0.07401587257357828,-0.023721175701022806,0.005326952324430625,-0.03559197772593757
0.1792241,-0.0376104601509519,-0.018098294796895294,0.03511065808990971,-0.004788115609314119,-0.10570601069146206,-0.03623415843515262,0.009385181188633103,-0.03503117369922382
0.1796897,-0.05362443519594434,-0.018345895956680316,0.03532126966413452,-0.0050286581864167,-0.10480944511565675,-0.04379786546978896,0.004636920900045612,-0.03369997498112177
0.1801552,-0.05071911362969834,-0.01760405266467755,0.022883842929063234,-0.007647478229157802,-0.058776336886236735,-0.04757830645415145,-0.03495830840119347,-0.034815969467064486
0.1806207,-0.038383754935355445,-0.018572898145334072,0.014795060708784292,-0.0031844455579193793,-0.015909515061605355,-0.023784930556399776,-0.09538497527711483,-0.03466503395097593
0.1810862,-0.0232030521573387,-0.01990264357337618,0.008401000843170922,-0.0028534,0.00497406570954219,0.005026183774068672,-0.12291592724862206,-0.034780524665678776
0.1815517,-0.00411090544850683,-0.019484429413380463,0.004811957010591986,-0.004592476471126821,0.017530805884507287,0.02125118520006244,-0.09618075583788362,-0.03319565735334512
0.1820172,0.0011523848969184707,-0.020124973013287615,0.005687978637206066,-0.00926565397342477,0.02648618626615863,0.013584461129656758,-0.03753225405496146,-0.03157073261063084
0.1824828,0.002910700423484774,-0.0185892931492631,0.006989865547309655,-0.013800741674518183,0.03203904125103341,-0.010698823025821924,0.024375241674518183,-0.02992880980022674
0.1829483,0.004725456844802894,-0.016980516106686917,0.007221532637873419,-0.01857782704851019,0.030367141068817362,-0.04443770024527642,0.05173535475842315,-0.02778986210346474
0.1834138,0.0032454812963051017,-0.015064470502578043,0.005259211548300104,-0.02168031673634443,0.02356994715017514,-0.0664677648968953,0.04368350363833226,-0.0284224115483001
0.1838793,-0.003383738636900173,-0.014612516995426152,0.005861876066079208,-0.025597546339543736,0.006243387145208323,-0.075507642901217,0.03147968179685271,-0.029025076066079205
0.1843448,-0.01879547942786626,-0.014974527906289772,0.009520510377309006,-0.025573124796698758,-0.02940875860681021,-0.07273263760165062,0.04157236923304153,-0.02899540876449038
0.1848103,-0.02647196325098574,-0.0146029,0.014459383732560683,-0.026988202107067812,-0.06430335924724369,-0.0657208994108968,0.06501637707159899,-0.0283665
0.1852759,-0.018890427612552104,-0.013552704677797149,0.016737323388985745,-0.03076855789982566,-0.06897644073748196,-0.06171014634907234,0.06533419059374242,-0.02783067529898517
0.1857414,-0.00643223220419419,-0.013036054025524274,0.013383660677510002,-0.03577570665195921,-0.03429776826219544,-0.05932706300929904,0.04154812322041942,-0.027426392415314565
0.1862069,0.008822741470489556,-0.011510616911796884,0.005797206470562493,-0.03704630288626674,0.0030256576842574196,-0.04219694808827606,0.020980004907853057,-0.023821701801861574
0.1866724,0.013844791320053867,-0.011056372830013466,-0.007498700054568435,-0.033894044971555,0.025185404905047133,-0.018923645660026932,0.011470687490586431,-0.020296166849386635
0.1871379,0.019096711427221764,-0.007495289977289863,-0.01495531230815449,-0.028296341137998345,0.03313034057844683,0.0019882602665132797,0.019467490858222587,-0.016881782138925237
0.1876034,0.023353388274386443,-0.007764527299455614,-0.019690847928879873,-0.02373553959569108,0.03275833597536444,0.017581934540108878,0.03998193258293969,-0.017042165687792998
0.188069,0.023646189484180187,-0.00690915007015178,-0.03032666353713116,-0.025365714589407857,0.02927037559629013,0.02116647461416521,0.06785098023587723,-0.017569499859696438
0.1885345,0.022032066317183314,-0.007510149006263632,-0.04114462549686819,-0.026819208848439413,0.012202773840640902,0.009950262728196983,0.07739490619847576,-0.021288914660956035
0.189,0.01912908520880724,-0.007249917685544301,-0.045227041266270036,-0.027652596887564093,-0.014592094104818567,-0.001975970742177202,0.05119543771766538,-0.027099341266270036
0.1894655,0.015872423723080377,-0.00721641695384333,-0.04045494913847001,-0.023764572861550388,-0.036646377969228885,-0.003432939429943345,0.008397329245337062,-0.029897950385450373
0.189931,0.01561,-0.007168324042116031,-0.03487265749049832,-0.017337675957883967,-0.03573222961684642,0.0036821630652287,-0.02814159700987896,-0.0280566929302091
0.1903966,0.016919408199481064,-0.0070178431924206265,-0.02849691522681321,-0.006103902637301528,-0.016169959661920065,0.01083532144831813,-0.07537695292759161,-0.02531343418711233
0.1908621,0.019282127700691494,-0.005643601763446106,-0.03172526529988611,0.006881357110467063,-0.0011538910694041914,0.016144402190717125,-0.12885418068926802,-0.02397133262276204
0.1913276,0.02297279395059453,-0.005588565772450457,-0.03553111609589176,0.012940184550990844,0.000541820130198192,0.013183489269405492,-0.1466788999627744,-0.023380565772450457
0.1917931,0.028876095720547574,-0.005587478594202198,-0.040433449202923064,0.01813191342031647,-0.0016057748881732887,0.005559118656261217,-0.1274982073478198,-0.022805035782606592
0.1922586,0.03604775392119652,-0.005437501059782842,-0.04681942184558592,0.020728206146740487,0.0007884535533927682,-0.009980732711480303,-0.09726006919612883,-0.024464975187022123
0.1927241,0.0369704866952982,-0.005494156931206392,-0.045634749236775525,0.017528913935754793,0.005915395206493462,-0.03195196090794853,-0.07982666893477482,-0.02785422352276787
0.1931897,0.03725699978824436,-0.00397944973530544,-0.040320598200076996,0.013589680424356834,0.012264100423511295,-0.050473217458086694,-0.06054710793707351,-0.028750617987475812
0.1936552,0.03672968901243999,-0.0021966554937800035,-0.035838456605739935,0.009494122531099982,0.015887078024879986,-0.05667969123635986,-0.04350019863497588,-0.02824925604975997
0.1941207,0.03608120866523402,-0.002588004682425752,-0.030176179191371583,0.007521401106780589,0.014564551991404136,-0.044396914551925154,-0.033136604682425755,-0.025693682669531953
0.1945862,0.03405723089267562,-0.0045480691073243725,-0.02630379267802688,0.0092317,0.005678795085201614,-0.026764996691077438,-0.04107035696990913,-0.024702097141951353
0.1950517,0.0326200214425146,-0.005223350885393429,-0.02421779468763943,0.009422180424808413,-0.00893356625851355,-0.016943073245124833,-0.05143400727621973,-0.02607938219559527
0.1955172,0.03205394931938795,-0.0042036120193161206,-0.02292118201476829,0.005963644231793446,-0.022279430092032773,-0.010201739903419396,-0.04874249306827839,-0.027769220193161206
0.1959828,0.03228431228948807,-0.003480361114132352,-0.02194111514265852,-0.0010300008357670045,-0.028638797146829542,-0.00820838200417102,-0.019707208851780116,-0.028649609144048863
0.1964483,0.027974596318874136,-0.004609743549009509,-0.023681734315809996,-0.0039064796379643845,-0.026312925914109265,-0.00684152129133731,0.02370236201540854,-0.026468613012128283
0.1969138,0.030115297509176797,-0.005539,-0.027004338791295584,-0.0077992412821187886,-0.021525214483962715,-0.007537412454116018,0.057269956688034515,-0.02483375622705801
0.1973793,0.030643154049313046,-0.005539,-0.029379693221908698,-0.009646739172595653,-0.014267226367227845,-0.004898129753434782,0.06004116421361128,-0.023514114876717392
0.1978448,0.03134762727752185,-0.005539,-0.03412789094265294,-0.01337485002637017,-0.0012667817270848652,-0.004847513638760925,0.053640053774927095,-0.024909068193804625
0.1983103,0.031016993810919706,-0.004651763311868934,-0.042294504903134224,-0.01714412557844185,0.010823207457551663,-0.020208617281294812,0.06105040341148751,-0.02730076823247786
0.1987759,0.030676523013297846,-0.0054920528766622305,-0.04863750808539002,-0.01959145287666223,0.013194493292289222,-0.03616858288238238,0.09137457945734911,-0.03000271602464991
0.1992414,0.02889783097209729,-0.005480340064871661,-0.05234615957931184,-0.019579740064871662,0.009473040326313577,-0.040505580422643434,0.11323987087967798,-0.030841890938683822
0.1997069,0.027219762161052066,-0.0048676,-0.053586364697811334,-0.018351455135579172,0.003078536421095556,-0.03470348199444257,0.10569290289603704,-0.03313611475987197
0.2001724,0.02658898495010434,-0.004099227362857872,-0.050133596351834835,-0.018315041574284065,-0.005026753887246275,-0.030164406745405853,0.08111776845897971,-0.03317205023908111
0.2006379,0.024091477058513108,-0.005762881478513298,-0.047053550381160984,-0.018765140016028192,-0.020935848171405133,-0.030782722257351937,0.05262599260718927,-0.03181269260718927
0.2011034,0.026071208929447174,-0.0062691428399865474,-0.049018209615114994,-0.02025317606485811,-0.02860787612490519,-0.03305802342961532,0.02699019466946735,-0.030538104524770668
0.201569,0.02727686429392907,-0.0060977590432378295,-0.04848162905473853,-0.02031202287028651,-0.01361136249578892,-0.03060710165441094,-0.010968187631095968,-0.02945835857635744
0.2020345,0.025357259901675033,-0.005934920056546693,-0.04569852430585097,-0.019092042267282366,0.01802549316608907,-0.025305768815932838,-0.06954236669128071,-0.0290379
0.2025,0.023978091802549933,-0.005503467153740877,-0.04135500266218878,-0.018615400208521694,0.04125775483051737,-0.018177777023297304,-0.1297849019848889,-0.027056431645292974
0.2029655,0.02148592191938362,-0.006504290239922952,-0.03489480614567106,-0.02022495856046229,0.036911449984438294,-0.010952009760077049,-0.14921054246043183,-0.025052531679460664
0.203431,0.01918938151229518,-0.006217222689036897,-0.029009964109067976,-0.021947363865778616,0.026433527133658333,-0.011239077310963103,-0.123805106963577,-0.023043058823258283
0.2038966,0.018148599366012607,-0.005556207316566598,-0.026625986450462977,-0.022582457633560295,0.020473478077087347,-0.019655077443099956,-0.06691133507666025,-0.021806894981430076
0.2043621,0.0159457,-0.006460396382344995,-0.021527601808827502,-0.019934805426482505,0.0164622931961367,-0.022911967872551668,-0.02988070723531001,-0.0230542856544282
0.2048276,0.0159457,-0.008155707179229947,-0.020679946410385026,-0.017391839231155077,0.004030014018980386,-0.02234686427359002,-0.026490085641540106,-0.026868692863445637
0.2052931,0.017741891984858694,-0.00906356859305901,-0.0177583737186118,-0.015056849790357986,-0.026469991984858693,-0.028090769116001967,-0.022407965703470496,-0.030314010251105587
0.2057586,0.019734453620982105,-0.007735205049744077,-0.014036657574616116,-0.017490732325895732,-0.04578437626243602,-0.03917765320593577,-0.005245815149232229,-0.03143132483367405
0.2062241,0.020374669517349352,-0.00671079858448914,-0.01250004787673371,-0.021076154954288013,-0.04552827464612229,-0.046348422173886156,-0.0021725957534674194,-0.0328398455789825
0.2066897,0.020319861697039258,-0.0062266867652865975,-0.012859272339407852,-0.023426322451987044,-0.038148271856404375,-0.050262089357631407,-0.01919133355344363,-0.0349502446788157
0.2071552,0.0199741,-0.00617025160279616,-0.015495110204818138,-0.024848906411184642,-0.03549988686431169,-0.04698667724753473,-0.03434670609786562,-0.0354162
0.2076207,0.0199741,-0.00589238271154226,-0.01702334772022498,-0.023737430846169038,-0.029108902365471968,-0.04226290609621841,-0.02462129490397908,-0.0354162
0.2080862,0.022216324223973755,-0.005378386121247351,-0.019397479181871027,-0.02070964708742516,-0.016237971311398914,-0.034796162454386916,-0.003579425712182866,-0.03419386040906448
0.2085517,0.025464133956029856,-0.006720081114347908,-0.01892364679120597,-0.015534419252764173,-0.004758655155978791,-0.028257542241707477,-0.0022848637296733003,-0.030922040373617912
0.2090172,0.027959278830768732,-0.0062001826901098185,-0.01717679672618776,-0.011856683275638666,0.0003195914655602612,-0.030339830760439276,-0.016508348541568876,-0.028122755789011633
0.2094828,0.03050238738496503,-0.005592503153758742,-0.017275120227113354,-0.011286023380872099,0.006064571616171318,-0.036250720039291945,-0.03270907754804598,-0.026795006307517483
0.2099483,0.03536793240754853,-0.006159204321006469,-0.019459215123522645,-0.011400904892858037,0.01212793888905823,-0.039860021605032346,-0.03655421728402588,-0.026377897839496765
0.2104138,0.03899637698334244,-0.006819598721296803,-0.020318938654600983,-0.008094298407804722,0.00811848401621003,-0.035863488491671223,-0.018323451755125036,-0.02544175080228136
0.2108793,0.04426129669806661,-0.0051724702072276875,-0.020805841893761993,-0.004006631755198337,-0.0005757641567328461,-0.02505253780569318,0.011042918984454973,-0.022965276281140038
0.2113448,0.04369184369871947,-0.0060090390778056385,-0.02205530684878832,-0.0008725632276802644,-0.018698011459760126,-0.012219636772319737,0.03928598447180485,-0.022223009154274224
0.2118103,0.0461585,-0.007259538045759695,-0.022851474599184293,0.001480730701179681,-0.039169501659052836,-0.009327508337414164,0.061613273883995616,-0.020717418056235695
0.2122759,0.04268812651499443,-0.007282885490313691,-0.02465346692796736,0.00043956520749126034,-0.04676074320419273,-0.016317679869849503,0.06591088845372776,-0.023846909673124205
0.2127414,0.04027739984632603,-0.006784170037370558,-0.024521364728104296,-0.0013153400747411151,-0.019296695130796952,-0.028416105550256563,0.06106452577447991,-0.02791516997101292
0.2132069,0.03126699694518075,-0.006156035119732535,-0.025075098752712834,-0.008768271938635261,0.026218535291493098,-0.037558128061364736,0.06016469909623396,-0.033959869507459585
0.2136724,0.02604684788397979,-0.006843279170107391,-0.024731581244838912,-0.014711564362295265,0.04468644125555704,-0.039367558340214784,0.0469674374277448,-0.03564596484910081
0.2141379,0.02190111603234089,-0.007633118637020851,-0.02568816533063826,-0.02171948276638441,0.02772132713467051,-0.04342791106129724,0.01991881154277645,-0.03295582524978603
0.2146034,0.02235090763626002,-0.0068201310692047375,-0.026884878957369546,-0.0273594,-0.02055286068117002,-0.04752452477492967,-0.007067062547319624,-0.029215345088940397
0.215069,0.023331,-0.006315190877552174,-0.029744230292517392,-0.031471263510208694,-0.0587463270204174,-0.046187562214723796,-0.034613841351831584,-0.025911809122447827
0.2155345,0.025175416419521285,-0.00677347382493006,-0.029635129684550825,-0.03453400624606777,-0.06780920624500249,-0.03774901698293021,-0.0454353785262751,-0.024975344140379236
0.216,0.02273943165451702,-0.007809068345482979,-0.028861863309034046,-0.03626363669096595,-0.06034490071791171,-0.02268119529985721,-0.03880389961839443,-0.024417931654517024
0.2164655,0.021777508980913043,-0.007281497108115364,-0.02828380319714377,-0.030487968957111134,-0.0539809964975971,0.0007702901033095544,-0.016897668798095847,-0.025078418108069937
0.216931,0.02194739079213215,-0.005968791178096057,-0.031072554603933926,-0.024772154346624654,-0.046447155020263975,0.021263718029771794,-0.0055471818415735695,-0.023981945396066073
0.2173966,0.02117010273252049,-0.006259332422493171,-0.033721389192502275,-0.019155902732520488,-0.029308356770009106,0.036090256892593334,-0.0047629130563066205,-0.021571045962511384
0.2178621,0.020880614229072277,-0.006315318178387436,-0.034244772719839445,-0.016798945452258292,-0.02079058973282228,0.038533659092338565,-0.004166501177984,-0.019831572143426845
0.2183276,0.01831170234206934,-0.0072175,-0.032564428712457474,-0.016200859501199052,-0.026645595543677233,0.02309194284087029,0.004408142764931653,-0.019684171477389125
0.2187931,0.017186794703038886,-0.007787194703038889,-0.03451744061003519,-0.019594177615179516,-0.04004487881215555,0.0030807694887928262,0.015335468218233329,-0.022701845906996303
0.2192586,0.016579466568174252,-0.008074066272697016,-0.03654065723034254,-0.023389000590954476,-0.05043233991462538,-0.007139232249916791,0.01735476420435634,-0.02384205782129702
0.2197241,0.01715981219951149,-0.00822994916522936,-0.036447328272572396,-0.022933023096665096,-0.0537015264248755,-0.019266205354062916,0.009719677259646137,-0.025093187622332893
0.2201897,0.017500738768982154,-0.007694003077544608,-0.03720081938449108,-0.02485848267303779,-0.03398870333692289,-0.03462133876898216,0.004133960211002103,-0.02715634923061385
0.2206552,0.017652478599975683,-0.006263036380041337,-0.03563458715998541,-0.024742685742462227,-0.007876870762445205,-0.04113121926002188,0.0020769214712067973,-0.027840691439990274
0.2211207,0.018648621708354202,-0.006629462191197237,-0.031840610492542915,-0.02740477758379244,-0.003015888076335359,-0.039835511475636375,-0.003877821708354202,-0.025507682916457983
0.2215862,0.020432122451683344,-0.006472706528989992,-0.024471288500198387,-0.028800057961346676,-0.015660298821129185,-0.03891318407730665,-0.0112370228309909,-0.024542693091702452
0.2220517,0.022042058163717362,-0.005431467656428311,-0.0176242,-0.02982993531285662,-0.02472072210944761,-0.036719013944822146,-0.012319191993747721,-0.02581599257678767
0.2225172,0.022907541496497392,-0.004673055170501441,-0.015356637012124983,-0.028096872537992108,-0.02572795172350048,-0.0323949,-0.009479634488495679,-0.02906142586175024
0.2229828,0.02275048587529985,-0.004241642937649926,-0.017306099436450513,-0.02758661468824963,-0.023649100563549488,-0.039070812434051694,-0.0026466734412481613,-0.03426252712230132
0.2234483,0.021818375989121952,-0.0034725168869879836,-0.021325172681978224,-0.027337398678072097,-0.023256715565060083,-0.05414101556506008,0.00543240976309792,-0.04055626622602403
0.2239138,0.021045841715765,-0.0029098738402240183,-0.025551616568470003,-0.028603679363047353,-0.024715860254095535,-0.057890463558577764,0.005894165335059166,-0.042866241715765
0.2243793,0.019585167132583927,-0.002927083475244195,-0.029697787976926293,-0.031125783475244195,-0.0258512909966358,-0.056455606081529414,0.0021230567314679464,-0.041558726925871786
0.2248448,0.017539200351222802,-0.003609126577915836,-0.03269859884936233,-0.03180782657791584,-0.021213755457107002,-0.04922642052050604,0.0015774547546613935,-0.03937631901864558
0.2253103,0.015658110334496718,-0.00490460794961286,-0.033014488870541994,-0.029104028689770318,-0.010151831869615461,-0.02630048997295336,0.00478988440822436,-0.038441200794961286
0.2257759,0.014600873694459851,-0.00502768980609376,-0.030586037658129138,-0.02485753070781975,-0.0013951013902405878,0.02100889351280629,0.007140498378201573,-0.035005524683741726
0.2262414,0.015404833740210124,-0.006793642340688086,-0.026820370517986546,-0.022378221768982298,0.0007714282193407715,0.08015727455043813,0.00434545796914162,-0.028188498159710217
0.2267069,0.020265579363166277,-0.008017510100421517,-0.030292258726332556,-0.02016716344232323,-0.0030302825473348875,0.08628169834765345,0.002053389899578484,-0.018540974526651124
0.2271724,0.028269400894814865,-0.006893937388148142,-0.03689231146925471,-0.017466413954074157,-0.006841244582953676,0.03972760357925947,0.005526862611851858,-0.013547250447407433
0.2276379,0.035303843612034654,-0.006888785309830097,-0.045353641498337635,-0.013052876937676351,-0.0051794629054393235,-0.004833893083610394,0.011257135638796534,-0.012707310462775867
0.2281034,0.03742004641454135,-0.007668438167134136,-0.0505226,-0.008978804017593066,0.0005907941137398337,-0.021000515278195082,0.015133876898839866,-0.015520420087965335
0.228569,0.032685181430901905,-0.007750013799425063,-0.04936904403790872,-0.006614227853647137,0.007220018506658576,-0.017568693162726984,0.015854862861803817,-0.0199892395230327
0.2290345,0.020216825484402692,-0.007674562742201347,-0.0416299783097995,-0.004667741967157038,0.008160013711006732,-0.007710760804590575,0.00892438822660404,-0.026870087728516266
0.2295,0.006368431683378651,-0.007941844814195246,-0.035152289918924974,-0.0019325417644536767,0.0075191115212286,0.001936946254348821,0.005937513130816595,-0.03209152638273326
0.2299655,-0.005265816381249035,-0.007826345434743814,-0.03148064091622283,0.0002991422977692902,0.0048467484782479375,0.01389394826042989,0.022524068214289546,-0.0325637878259835
0.230431,-0.00809380831442051,-0.00703606763184221,-0.028397353526368442,0.002764528210947535,0.004617092189802812,0.0339006976086967,0.04584448614663789,-0.027716786146637896
0.2308966,-0.003174264082618773,-0.007128181497453293,-0.029724135917381225,0.001969154806780679,0.005205202494174384,0.040598314592423496,0.05463660819286922,-0.02471323771069617
0.2313621,-0.0006028859283426585,-0.008516791407165734,-0.02886536046326797,0.004942248442994405,-0.000783329144770552,0.015544737110748602,0.03678715666122902,-0.020486811079989238
0.2318276,0.004744296126967862,-0.009776070429011526,-0.028170100860673807,0.0058507118315826,-0.02112421924558504,-0.010091500645505356,0.00710331075574034,-0.0173952524744372
0.2322931,0.009182033931724416,-0.007952361277531702,-0.027466087924010986,0.006828500969504739,-0.04482812158555867,-0.01138661776431952,-0.0001678,-0.02186596571104243
0.2327586,0.010659798456551298,-0.006712207520652528,-0.02462890741282206,0.006769566526071036,-0.054537531822649796,0.000860645203140705,0.03587211049971946,-0.025349689392450067
0.2332241,0.011255203086845304,-0.006417837426280001,-0.025648339196041432,0.0048676,-0.043786232542080854,-0.0008337581973832301,0.09338036434348143,-0.028380454630267955
0.2336897,0.010623369967869221,-0.00832341475804355,-0.024554955056543256,0.004265103096825999,-0.027330292983739488,-0.012805822290347742,0.11751874989526058,-0.028899559338739028
0.2341552,0.011211692165100606,-0.008906033352950826,-0.0241343110627213,0.004672200011770495,-0.01840415554901639,-0.02422954445098361,0.08545701110980328,-0.027365332044318205
0.2346207,0.013667819898915464,-0.009346616947908393,-0.021623477150077466,0.0050592688774297005,-0.0198867314502324,-0.02971087445178174,0.014018868549767598,-0.029074742837718288
0.2350862,0.01343346274532545,-0.0107915776145224,-0.021900770261606098,0.005755329248791223,-0.025047003758140327,-0.028203414379594272,-0.06449197794100592,-0.029752640686331364
0.2355517,0.014931839143880736,-0.01154039141758769,-0.026989891995980984,0.0054772320229533895,-0.02229938252359968,-0.030614052955958815,-0.1129754857133872,-0.029579186499497624
0.2360172,0.019089146824727964,-0.012794947333397356,-0.02379398473087027,0.0013107188151459124,-0.007786822769436738,-0.03818636412120048,-0.13077979503203777,-0.030023226082634014
0.2364828,0.0188087674017912,-0.008896538379303685,-0.01871149305771177,0.0049071581495522,-0.0029731629910439957,-0.05265222060527444,-0.12236427708477479,-0.031190009252239
0.2369483,0.017523478870014125,-0.006463400188541208,-0.009276454568285124,0.003414972150233814,-0.013976251585871563,-0.0712605110204056,-0.08990412634222489,-0.031507943547879516
0.2374138,0.015602632707049351,-0.006401949616716864,-0.0032217646475324307,0.0011417482790251718,-0.0267027345859013,-0.08372830936429455,-0.050570977769530887,-0.0292205345859013
0.2378793,0.01707329653671567,-0.005477017922029402,0.0014520991306662084,-0.0035962092638185785,-0.026724206057234867,-0.0898518684815339,-0.013488692898977774,-0.0270237
0.2383448,0.01801404804056582,0.0011378326120825193,0.006577043054247928,-0.006365115271239639,-0.017361861711731843,-0.08664498058955387,0.007260850110169061,-0.030003259015355315
0.2388103,0.019254157337816945,0.013877987794695982,0.0077779647099454,-0.009588158066729776,-0.0016040113002839874,-0.06971286919090657,0.014509610219156756,-0.035973430632986234
0.2392759,0.01889957230441713,0.032325069078628275,-0.0018540536725006015,-0.011414953549760559,0.00981376096294362,-0.04213429302321893,0.016820351708355375,-0.037525525731437644
0.2397414,0.01850527982095198,0.045649877628750495,-0.019024053191287697,-0.012661857960316625,0.012147983184126649,-0.005649269220813814,0.021873132185040445,-0.035846061323491295
0.2402069,0.018580750042821476,0.04221854739750369,-0.035278880986902426,-0.014700191110265234,0.005336820246725607,0.02873210789689362,0.016107851850442053,-0.04246842247319479
0.2406724,0.01848013131144986,0.037024264454871565,-0.04152805215862472,-0.020445957474333084,-0.0014125988343993419,0.05056427657310696,-0.0026262818888153246,-0.03212258505133383
0.2411379,0.018005268296593806,0.01967793119878296,-0.03864290673065665,-0.028311188020894315,-0.008722202496745783,0.06403752258500561,-0.03637590861377736,0.013473281035280192
0.2416034,0.018578091833167786,0.01089034744500131,-0.03569286598459725,-0.03178253401540276,-0.010739944009478617,0.06825075400355449,-0.05355903423436736,0.04080109845096231
0.242069,0.019043932076834327,-0.000676011948777114,-0.0323272918207199,-0.030290965372215758,-0.011469074506827777,0.043195584281725874,-0.030718184865084087,0.0251692093978272
0.2425345,0.02000574209233891,-0.0085603,-0.029784947200405806,-0.028468342337899653,-0.012341699482005327,-0.0001644372567059367,0.007611046655537954,-0.016369400790428597
0.243,0.020172673869031044,-0.015299422740110308,-0.029750441101654635,-0.026153515958393013,-0.013209854519779383,-0.03929386355933815,0.043944463276911344,-0.04643013403751054
0.2434655,0.021290914949835604,-0.023233663989277845,-0.028736843293646498,-0.028314535059530254,-0.014374376816048156,-0.05854720635046416,0.05945244600264849,-0.05675159388894905
0.243931,0.022737227003862538,-0.030814503498954347,-0.03190599704248793,-0.03249977003862539,-0.015429554007725077,-0.058789753466282804,0.07862942652776335,-0.052257274983664226
0.2443966,0.02328563647529491,-0.03506463606181411,-0.037938501228243986,-0.03798386475294908,-0.016526372950589816,-0.049603935660531714,0.0957670999878016,-0.0455392997993588
0.2448621,0.023331,-0.040645119427528485,-0.03959948209500633,-0.04192344628501899,-0.017924286589750194,-0.023716366996883894,0.10531857466504431,-0.03350907007894442
0.2453276,0.02243360890317024,-0.04780882534686582,-0.02499037905909579,-0.042396362684504356,-0.01676156720385588,0.025082049466619533,0.10824000756266822,-0.01044504015417539
0.2457931,0.020435091103250876,-0.05357319088926042,-0.011683703804374184,-0.04176358360149774,-0.015075483601497741,0.0473853658079995,0.1107009711143649,0.005558838582775979
0.2462586,0.018491029065552944,-0.06307609611930613,-0.009702557873070575,-0.03982048079498825,-0.013605800421823263,0.03871366294969364,0.0950335354076458,0.021942995697482873
0.2467241,0.017480970883586095,-0.071282781237637,-0.01551039241937994,-0.03527521897613744,-0.012469522577260321,0.011694681802380025,0.05778782799836714,0.03128595866037668
0.2471897,0.018937298137228123,-0.0841548519045127,-0.028580402034001494,-0.02291215146075673,-0.009451593454239529,-0.03661334925552562,-0.021043459869289075,0.030775795760767388
0.2476552,0.018213279691764936,-0.09651972499315906,-0.035943860398941624,-0.014286817261999802,-0.006275676779158477,-0.07012236357880569,-0.046957110581327136,0.00897241605052067
0.2481207,0.01895188532977609,-0.10723740582348526,-0.045080206728918465,-0.004961467527634299,-0.007270401345783693,-0.08951332409070975,-0.02669873684140278,-0.0030902566078878655
0.2485862,0.0182956,-0.12281574764946002,-0.05836164764946002,0.0061378190126131875,-0.009504366419724927,-0.10839173234097291,-0.012620216790137535,0.01878763937556539
0.2490517,0.01834430777401632,-0.1377430796955082,-0.07345944964990729,0.010675259017241857,-0.008774230564959198,-0.12617799470068697,-0.013947255999684702,0.04411087705172557
0.2495172,0.0182956,-0.15145756627503298,-0.09917634361908806,0.013946127280134123,-0.006287507782684699,-0.14965411893318217,-0.01872104937181178,0.04233026943352846
0.2499828,0.01739491710223722,-0.14634116445048537,-0.1170022092983036,0.016969248693288332,-0.00467378946964963,-0.13759909073803278,-0.04125470011299341,-0.02759328719520654
0.2504483,0.015447933125308835,-0.09675243525486155,-0.11574479787595661,0.019688386418752035,-0.007643572917163799,-0.051973742708467836,-0.0661479264198539,-0.13597322641985388
0.2509138,0.014025225565159165,-0.04003175691914178,-0.09901783722606401,0.029753677438615726,-0.008802338069921818,0.062386040077083336,-0.07046193231584719,-0.22736478332815874
0.2513793,0.011279475575443981,0.016681920646317502,-0.10060910083817903,0.041257086557048586,-0.020354407844395562,0.11208763330428018,-0.07166081741833949,-0.2633988933505039
0.2518448,0.010914925033484643,0.08245715690017445,-0.08550607114630994,0.04996948651051894,-0.020654952882841447,0.14352080101697104,-0.05890552305009374,-0.2419745307612541
0.2523103,0.011883631598104303,0.12108270741417176,-0.0526519767200858,0.05456739051991728,-0.014318146283874116,0.13315027522148457,-0.0778856483770582,-0.16267620772360722
0.2527759,0.015300356467739279,0.13939481979298265,-0.0028896814528749032,0.052148987064521445,-0.007202469235420406,0.06926600683897191,-0.11882677782364216,-0.07165065564728432
0.2532414,0.017840171096885953,0.14063300948526894,0.02583885522395334,0.04848749438814321,-0.0047441861940116644,0.028054280582154874,-0.11918129819927838,-0.02776889000514684
0.2537069,0.021058083336832723,0.1277612692320116,0.03319418753636912,0.04067249945293658,-0.00290535311590772,0.0184004525688443,-0.08179187486477205,0.0036443714722568144
0.2541724,0.02187633565063454,0.10359898123061453,0.02554090081862016,0.02568032641446121,-0.002424589423625161,0.005725033663403642,-0.05645400228426971,0.029672552135750305
0.2546379,0.021052068651873333,0.0853159033043102,0.020387496950809533,0.016077471017661285,-0.004678616928337773,-0.009213747878583783,-0.058343171160422216,0.04118528464168887
0.2551034,0.019896569724032996,0.06378789108306925,0.020088284925808553,0.008394163694356414,-0.006490721231452138,-0.008235675753709574,-0.07809842069182113,0.04600344274736706
0.255569,0.01735286889006786,0.047058556189411585,0.011277229816785457,0.0026861776114814008,-0.0048676,-0.011668175673719047,-0.0982615997300259,0.039978852205304054
0.2560345,0.015912688073506487,0.035799343620594726,-0.0010293586188417406,-0.001765091823068238,-0.0048676,-0.02816426757658761,-0.09328656436267678,0.0321235332042265
0.2565,0.015430428102198447,0.02385924415309004,-0.016017376161842293,-0.006278808342019639,-0.006693679606673503,-0.05097816156330792,-0.06437623164006057,0.020419043058219746
0.2569655,0.01666649828397316,0.019934581372821475,-0.02565146936063359,-0.0095674,-0.007538381986308916,-0.05673788713438943,-0.037123925251350644,0.013610466791184068
0.257431,0.018360907866913537,0.017963686374650973,-0.03520765192359695,-0.009335186565095991,-0.006962619961910996,-0.051819068038314056,-0.015205523999549898,0.008066850774135409
0.2578966,0.019171789244236136,0.01947100557162065,-0.05220140683658652,-0.007028535874943977,-0.008376574880819887,-0.032552420723282315,-0.003739968520953823,0.000477193746895317
0.2583621,0.020497925367972465,0.020420255685190222,-0.06749686849044009,-0.003129808536833244,-0.009404806743039269,0.004434344045823561,-0.002456728739492101,-0.01726172476652064
0.2588276,0.020877246206169296,0.012416557616004735,-0.07269946941903359,0.00297110377624886,-0.010618256103491878,0.036765252950757214,-0.0072964419908018475,-0.035371012646102346
0.2592931,0.021907673808574644,0.006708079775667642,-0.06872469827501812,-0.0008392,-0.005270730957126773,0.03553713928713803,-0.029049332756589837,-0.037597880299257945
0.2597586,0.0208062589879436,-0.002944500165249446,-0.0551115487463418,-0.0014179438498717056,-0.0034566971621846944,-0.0035821853591139776,-0.07127159512779202,-0.03326267277688274
0.2602241,0.02092286842169234,-0.005881591317869752,-0.04155850312902827,-0.0025374305853281443,-0.003242447223449011,-0.043782092946836215,-0.08981256095159895,-0.030191362451660753
0.2606897,0.0177777530559763,-0.01361401469440237,-0.028527893982618176,-0.0023095028608165905,-0.005188898131986897,-0.0658906666630044,-0.06191310334570678,-0.03447157958396445
0.2611552,0.0186313,-0.018079367238346022,-0.018787746665077133,-0.009723172984709726,-0.006679166314863987,-0.057842938903795695,-0.023433838903795697,-0.037971767897976044
0.2616207,0.0203098,-0.01662805772885822,-0.009023599645134097,-0.0196384,-0.010158299290268192,-0.01883116966022672,-0.02162762461719382,-0.03656185737399231
0.2620862,0.020500264009226613,-0.012870767681012599,-0.0003365881304290742,-0.027227622088973464,-0.013037679550583525,0.020696829432545433,-0.042616176271469554,-0.03314949937125181
0.2625517,0.02070003367873179,-0.00842716228389939,0.004879682858538931,-0.028168232038346074,-0.012929985255522037,0.011711838968690892,-0.03972077653238446,-0.02431403428292214
0.2630172,0.021132425217789446,-0.006596013356176954,0.009416174782210553,-0.026591907689212397,-0.013634473147679967,-0.02364461262498529,-0.003421416905170383,-0.01680908058914124
0.2634828,0.02284888404008709,-0.007545343864313532,0.009518563381274341,-0.028584036521029085,-0.008870737892069677,-0.03702537313975474,0.029934692656715552,-0.01810024742136143
0.2639483,0.022280768017306295,-0.006486155661133959,0.0051359276885097485,-0.02715313450468066,-0.0025460760374452834,-0.032078117358296854,0.0422891720995772,-0.021341127476596698
0.2644138,0.020651471209796223,-0.007584319209124967,-0.0012120839912773016,-0.025182120804294102,0.0061552088069779165,-0.028495965603220576,0.05308578162200728,-0.030929681622007273
0.2648793,0.018372361938169334,-0.012750402818072618,-0.0040989678051333266,-0.027613218973210642,0.010105743331467293,-0.03031928922990798,0.06554515973770454,-0.043389059737704544
0.2653448,0.01769169888312982,-0.02500233239085652,-0.006007903350610535,-0.03509284370838616,0.01054075055843509,-0.03113562136936125,0.08045833685833724,-0.04682811563780385
0.2658103,0.018846022576971974,-0.04345772508694805,-0.008348589509700955,-0.04370877343286654,0.008741766134542039,-0.03274727822121497,0.09017282907710952,-0.03311473135548189
0.2662759,0.018634686734117403,-0.06243168982589509,-0.01155111939294338,-0.046473879595295586,0.005901793872939218,-0.04569241224976603,0.08582349387439106,-0.007132417315830421
0.2667414,0.018022848963886264,-0.07630829044227101,-0.011392753108341208,-0.03755631948464822,0.002580676771279669,-0.06043609792909388,0.07964448756663517,0.007458627374496633
0.2672069,0.019362258767681724,-0.09863575415961955,-0.011394796919204316,-0.023488032567787063,-0.0051667750647066,-0.06182402801608909,0.0720181633757439,0.001269711347509402
0.2676724,0.01995395784045106,-0.11638663821355556,-0.012874044601127652,-0.021713023478623056,-0.019811283051175625,-0.045700272347696726,0.05545067746734655,-0.02446902205966865
0.2681379,0.019652689729207425,-0.1285616697485327,-0.015495682166340598,-0.0357945561715695,-0.037344448608702674,-0.028759571932882474,0.020817402782594648,-0.04157637080337313
0.2686034,0.019334449198267347,-0.1234529648967512,-0.0174337048103959,-0.05374840515637152,-0.03779784919826735,-0.031070308017326506,-0.01413179764820199,-0.03606705383567545
0.269069,0.02138687031316069,-0.09304282343465474,-0.018342251507702172,-0.06459153456646205,-0.02720325940272926,-0.03581683039987175,-0.042000332251863934,-0.030488189323170645
0.2695345,0.0221770895921924,-0.06143107031384294,-0.01886911667546969,-0.06235239683975989,-0.027334936458361353,-0.028967583218894047,-0.05569874814119977,-0.03549340841696204
0.27,0.019993114079011578,-0.013519743683953695,-0.019473611315233008,-0.0543099414913186,-0.035624925965388056,-0.0152743,-0.07414820188480671,-0.04791918083451539
0.2704655,0.018251080554632926,0.02731909204900903,-0.01821854968131896,-0.049450524991696346,-0.045815583361012165,0.0031470679967485014,-0.07439210210258795,-0.062155375645665735
0.270931,0.017978738354273875,0.04760854541242817,-0.016720708142674567,-0.04699944518846486,-0.0539858493717838,0.02547896617286933,-0.06023038881057794,-0.067602138526186
0.2713966,0.01780190646979337,0.05548775864309689,-0.014405849275565494,-0.045882221118099496,-0.06465957474027202,0.04423981930463592,-0.034611243170366686,-0.06134524192647624
0.2718621,0.01672539838213326,0.05376050598193459,-0.0142672,-0.051917925765901166,-0.06986465354209394,0.02291984898381112,-0.01737139654397047,-0.03868218173679268
0.2723276,0.01973876914282206,0.04820537242424847,-0.015643448115143736,-0.07249043283451856,-0.058148772128320876,-0.0225845294643027,-0.004701110317785734,0.00377822763123097
0.2727931,0.01755985606599349,0.049687083824017354,-0.01428864797800217,-0.09261915197287504,-0.034910819719155335,-0.05194928836883598,0.00770238726894448,0.06358260796518435
0.2732586,0.017101045697298648,0.034792320139212844,-0.014650686161749252,-0.10428706220583454,0.00899831029168003,-0.06258285945144315,0.020558405232848045,0.13399044986203262
0.2737241,0.016358084142549956,0.021471426675456387,-0.014151754322722908,-0.09975694021845517,0.027925991354554182,-0.09447784877939451,0.034686873140399636,0.1869078238993737
0.2741897,0.01692630620982191,0.007692168492741357,-0.018271321994234625,-0.07901691939544875,0.01968685601153075,-0.1191954240733046,0.03923264967857528,0.18136761642726215
0.2746552,0.016759413700350237,-0.004913152205185861,-0.01965515249569677,-0.047848426124250505,-0.0051740089771551345,-0.10193005220518586,0.03707683510140564,0.08552364122464859
0.2751207,0.016698744913612756,-0.014055159116485184,-0.02419225124506203,-0.03650295662636112,-0.01874623397581667,-0.04340680787142315,0.040533344913612754,-0.07404843820461803
0.2755862,0.015075361419421479,-0.024608305929837673,-0.02609829958258251,-0.03866054376692671,-0.02311254516256018,-0.04317868888381414,0.040219396020231536,-0.23797807706981153
0.2760517,0.014838250760215216,-0.031514509331755466,-0.02811201929838588,-0.04134887831638203,-0.0234965577067386,-0.09161642406885007,0.0416727817963425,-0.326158828671649
0.2765172,0.016812150098501233,-0.033494880877445295,-0.0323949,-0.03420360018012103,-0.026019918205068136,-0.09844291201663141,0.05557468055096612,-0.3509105428799827
0.2769828,0.018206448956455516,-0.03023524671238085,-0.039698405688231034,-0.0172176842923743,-0.026939242440781094,-0.07707395157316849,0.05586352003878933,-0.29982334712287706
0.2774483,0.01810238039992336,-0.027998159766244167,-0.04466753211766142,-0.00259416802628987,-0.023903042157009634,-0.06942299560728431,0.03532538671589285,-0.21053232387843812
0.2779138,0.018354463010278835,-0.032538812517736396,-0.04204463893404634,0.011313937797702938,-0.01551109894752447,-0.04686941744238505,0.01542091404983207,-0.09369844725124798
0.2783793,0.01683350382997932,-0.04672980215724725,-0.03513677232053873,0.01601766635610922,-0.0006698595822287874,-0.04430128427219482,0.011848066772233216,0.002957002134450189
0.2788448,0.016902493200869,-0.054601306799131,-0.030515172803475998,0.01794731955380683,0.026530837425791525,-0.09478062214570739,0.03404727509023368,0.058981854393048004
0.2793103,0.01630342411051711,-0.05520037588948289,-0.028118896442068435,0.017797507667792405,0.05064323447217578,-0.14210690182980096,0.045729033125242645,0.06377440711586313
0.2797759,0.015353420499212162,-0.04625193149238425,-0.026638876820683045,0.01856536232252133,0.07101717737281497,-0.13951622899632343,0.032857552632437274,0.04570042862823548
0.2802414,0.015297104178732878,-0.03102227320221977,-0.02464463653678552,0.019438201799777354,0.07947689409588417,-0.08347174776583902,0.00807637283823629,0.01820678294122506
0.2807069,0.01574114610840738,-0.01573395245485844,-0.023861950880792373,0.015672145655607587,0.07015421425758551,0.0014120506932737001,-0.005039579858145883,-0.007679111571635845
0.2811724,0.014870350515340997,-0.0014095341796648516,-0.025198047184479735,0.015758668120514418,0.049200558862290536,0.11415076535032127,-0.00968618239482658,-0.01932356523091363
0.2816379,0.01712790593892684,0.011106950730457433,-0.02588419863673422,0.01292581606530011,0.03140658636734219,0.18337496441027792,-0.009184292259106348,-0.014872821420714149
0.2821034,0.014290488537766464,0.02442539124292654,-0.02896803438670061,0.015258774308155691,0.02682773122659878,0.16967429410362952,-0.007295128459221544,0.007633726053460324
0.282569,0.013352778655330213,0.02772187114889929,-0.033305199608459006,0.012835843080880567,0.028212035574449644,0.14467061449138818,0.0016218155343355257,0.010952422192718117
0.2830345,0.013110839691178629,0.025541070231616027,-0.03886696262498167,0.0076134560118595995,0.03593888247057098,0.14420914939873755,0.004635107049816683,-0.00047131421975642944
0.2835,0.011511414542611037,0.018074459722492185,-0.04485079272869448,-0.0017340645817092723,0.022086615727077128,0.09797196209142438,0.0,-0.009725828246759804
0.2839655,0.011486783481125994,0.01001431730047991,-0.04264553176767487,-0.007611626784900794,-0.015541571945026058,0.01387026187432786,0.0,-0.006310852788195686
0.284431,0.010459561481771629,0.002858877620887948,-0.04123803851822837,-0.011748538444531487,-0.013133938755171312,-0.026662000036848443,-0.0004590765784231538,0.003587746880002133
0.2848966,0.011529531236152458,-0.003067058312527792,-0.041667311593723756,-0.015543889343760808,0.027042800556683226,0.03725746018749691,-0.0005404304745497899,0.006897025410253032
0.2853621,0.009208117071938547,-0.005085421837658147,-0.04597213009326808,-0.01646439054575675,0.04374695493729383,0.1189399876165851,-0.0021422042050009164,0.00940509992280405
0.2858276,0.011589030388287196,-0.0055379093241647295,-0.04168797087387544,-0.01857803543693772,-0.012581269611712805,0.09778314037705599,-0.0001086996844593423,0.002701047492436111
0.2862931,0.00990790923702458,-0.006108587457546024,-0.03734612326237735,-0.01950958217058067,-0.08133054059315953,0.020032919810955296,-0.0006045100752935487,-0.021950120296579757
0.2867586,0.00836105280655069,-0.006178455167797486,-0.03458672102684916,-0.01937987483619364,-0.08539155002804649,-0.02713183083300074,0.00042170702764738786,-0.05164814949860311
0.2872241,0.008258808899873621,-0.007247443733154851,-0.0314669149455005,-0.0196384,-0.02781057208465468,-0.03833700296662454,-0.00044902384537412254,-0.06152372692437646
0.2876897,0.008170400773992786,-0.015386740765453998,-0.028921416921106433,-0.0186175507633193,0.03127698442245499,-0.06334229355529385,-0.00015045586446402895,-0.052319652789839854
0.2881552,0.010142762941873615,-0.03028494829061949,-0.0268630089035704,-0.017443692924699394,0.046144185553506266,-0.11531789817173022,0.0,-0.03289143545112607
0.2886207,0.014735743092173632,-0.04411119386643794,-0.028451595122914907,-0.015511648170217444,0.03264649562769295,-0.1764748764231719,0.0,-0.021945745255346077
0.2890862,0.014426246643115669,-0.06590790607893357,-0.03624264048108917,-0.010855113429165623,0.03718180248691047,-0.21658136184126373,0.0,-0.022832247194857828
0.2895517,0.016611869647871393,-0.07577391483331203,-0.04106393495972441,-0.0028012721586328426,0.03116519972842257,-0.2077582907848084,0.0,-0.0356231092151916
0.2900172,0.019192229205157944,-0.06960664962098674,-0.041995669881083025,0.004177858924341136,-0.015765162405246686,-0.11002200798986159,-0.0012641432016305735,-0.04369525745511583
0.2904828,0.021329061860991167,-0.06837296395020162,-0.03823400317237261,0.0098244849610289,-0.05338940356769093,-0.010235627831254352,-0.0006092606974654835,-0.019022783255922132
0.2909483,0.022919902529288855,-0.06541448652899397,-0.0337377,0.009874416000294877,-0.05881904493643884,0.028292411023634553,-0.0004578165081460319,0.011134810969022963
0.2914138,0.023972266232035716,-0.05520422438705559,-0.027280952871468644,0.007302783771107037,-0.11288234172099552,0.04801238742164945,0.000260512416935321,0.014785116104908378
0.2918793,0.023340560372354647,-0.042726642748825316,-0.024604855052647957,0.0035142945594117667,-0.16902278083294295,0.1100778675982337,-0.00030990893264621055,-0.0039029958611763974
0.2923448,0.025403152326069097,-0.0243660446827682,-0.023887125531025587,-0.0009103892262800641,-0.12714613596006358,0.164435648547909,-0.0014029754613974217,-0.02778348031896124
0.2928103,0.02858785642101783,-0.007716898610761425,-0.022537665606511492,0.0003402825336675634,0.020793445589992427,0.18565370416771573,-0.0002128033176535171,-0.043686425034297004
0.2932759,0.03201258066085875,0.007793696585145514,-0.026568334869742284,0.008032051616773693,0.11042578328834177,0.13176307712212837,-0.0013181757464488938,-0.04011763966027623
0.2937414,0.0355948013332542,0.01672508339773441,-0.030381878319863075,0.008780968944309792,0.10397813307327021,0.04097187067134693,0.0012143719566693344,-0.016537077766798258
0.2942069,0.04260354215298712,0.014924799434482291,-0.029657852560980958,0.010187352560980956,0.03192555381158042,-0.04521477531264987,-0.00011090207749825485,0.009445672245933226
0.2946724,0.0473189133526246,0.002925992999490214,-0.03129895229322144,0.008135752293221443,-0.03829506394736027,-0.11144200458644288,2.644583378803268e-05,0.03197653835938803
0.2951379,0.044693948297302305,-0.0076683131210939365,-0.030897804705643968,0.006395136294558662,-0.10810850470564397,-0.10097064789033244,0.000516053409916114,0.04500130988855538
0.2956034,0.043135971534462275,-0.011255659983656807,-0.03234947770069247,0.007353145992321783,-0.15442983151811907,-0.029143727792418445,0.0,0.05076498512464559
0.296069,0.039789299839546,-0.007617903041486451,-0.030603339543564975,0.012444985391425082,-0.15587921092527246,0.030776758013805913,0.0,0.04087018935267686
0.2965345,0.03486733808568569,-0.0013488769404791463,-0.029662820220752714,0.01587459273956307,-0.1359713735759831,0.012213689107438941,-0.0008895129603157825,0.022924200769107755
0.297,0.024110519053558127,0.005150478215870161,-0.025029623597444005,0.017851792931907886,-0.10036939235205437,-0.05250859747579377,0.0027075092368523115,-0.0015346653704315142
0.2974655,0.012732157420651929,0.01254341189318969,-0.024485286347133508,0.011656568256569196,-0.059054368117640976,-0.058021220267025775,0.010072698525942914,-0.032957040534051546
0.297931,0.004370156071979596,0.022408075497390947,-0.02651613797705941,0.006695670934343937,-0.028190926948900713,0.012242430910297924,0.013079649936404217,-0.06775582265796719
0.2983966,-0.0005675863750868503,0.0399878326439087,-0.02960900314979614,0.000857307934599703,8.56091125364584e-05,0.10529290359823536,0.01560577731834402,-0.09703843010339139
0.2988621,0.004109558334159775,0.04934221494766844,-0.03366260906504085,0.0011691237742339111,0.04202470021543772,0.16687629971282522,0.01264357328445229,-0.10608108945278343
0.2993276,0.01001755285145967,0.04936235213795605,-0.03511639583077231,0.0054643178905492305,0.0830912613017091,0.18241719736446396,0.010750378046907474,-0.1062486
0.2997931,0.015690579385647267,0.043752035797054285,-0.03508847014430451,0.009072249616029543,0.09030327947172503,0.1476627798392901,0.008016460307176367,-0.09537693130549955
0.3002586,0.018485979300433022,0.03649817012623185,-0.03509889486458193,0.009891690900851772,0.03390711822331411,0.06126371689373151,0.0010422752866675658,-0.07197428827059861
0.3007241,0.01758296754246512,0.03065482308343318,-0.03590231896333094,0.0021265750716432416,-0.05695665007184105,-0.05203011143415282,-0.005757379759089716,-0.053218647373000263
0.3011897,0.015420845464192288,0.025749767384257667,-0.034059668831508814,-0.007089094635311385,-0.13533291599045785,-0.1267206870446474,-0.009400102012170064,-0.04896328312720992
0.3016552,0.018286876410296332,0.019690415299964792,-0.03003510420613555,-0.014402190185683717,-0.16270927522031098,-0.1270545519754235,-0.009797797195909634,-0.04942880514083234
0.3021207,0.02522150568568054,0.01422270391405732,-0.027634628108277104,-0.020003301080686757,-0.13283684268381962,-0.10718406345412777,-0.01139811459448193,-0.04649488991011646
0.3025862,0.03379477716539584,0.006916653311183732,-0.027118461881445025,-0.026693577332788602,-0.05539718117029842,-0.09228638193119153,-0.01927624090341263,-0.040629983620370534
0.3030517,0.03682426534694838,0.0025700134141631447,-0.026723277130828574,-0.02853758973444387,-0.04183055773695357,-0.08214435295806362,-0.02638878169498801,-0.03615166778777918
0.3035172,0.040202891946058535,-0.00315574823520813,-0.026295690678653658,-0.030081420904871547,-0.08283659887413615,-0.037609832242316045,-0.036808577325111,-0.02469705755655447
0.3039828,0.04936439511212988,-0.008372398411879589,-0.023700100173671038,-0.027972500918517336,-0.11438060161320149,0.03803160312607868,-0.036310098363613916,-0.008956007294183574
0.3044483,0.05908855460470152,-0.012388775909440706,-0.02021645153440895,-0.029734760510870695,-0.11391293136608494,0.10901804591271225,-0.03954269215847876,0.0009033532368197134
0.3049138,0.06779996622530245,-0.01483607683836738,-0.01837595467214023,-0.02997468531679814,-0.1323285891831317,0.12318622396270443,-0.0347065937952289,-0.004413307871692605
0.3053793,0.06971857750178354,-0.017064151194695426,-0.01723383934229354,-0.02909663791341578,-0.1481484682942437,0.04769244432457176,-0.028198458268315605,-0.013067158779257978
0.3058448,0.05922065589587033,-0.016319118988449514,-0.01670910582988764,-0.02503086035740181,-0.13176110352401868,-0.07827992460747575,-0.017220040431439494,-0.026110805110821814
0.3063103,0.04121166269487663,-0.017313752283707493,-0.017330052021747158,-0.025049246943796507,-0.08978688044061589,-0.15468678526329874,-0.005167290092674032,-0.03675630051388192
0.3067759,0.025575053129002056,-0.015366661393194406,-0.02281510212487291,-0.026769187367377156,-0.03700022514753016,-0.15079971369554387,0.0017967574974325467,-0.04328144085036317
0.3072414,0.01272840605579008,-0.013542880817538202,-0.02007209697210496,-0.028282674784452025,0.05512827878203082,-0.08576860507475438,0.007934067674190253,-0.03854472930926666
0.3077069,0.001969741206049299,-0.013540659622343316,-0.015821273283139047,-0.03163527293277701,0.17188230054138054,-0.012713126716860954,0.012400967986260218,-0.03008021413882631
0.3081724,-0.005401142806726197,-0.013794383947477677,-0.014618662544114577,-0.03453045350840774,0.2817778539928747,0.010161570118796346,0.013291625088229155,-0.036465827172895676
0.3086379,-0.007568567144667788,-0.012981599820749581,-0.012722166248415686,-0.03723973393083474,0.3213331867495001,-0.015170080772789543,0.009498632496831371,-0.048657508368412816
0.3091034,-0.010775175527059174,-0.011316966626267968,-0.011463448755355892,-0.03453701992728234,0.2842527438635724,-0.048136815918274664,0.0021589931555790615,-0.05626672016967454
0.309569,-0.009548571339348994,-0.009185917333760162,-0.009560351785193086,-0.0239859731126895,0.15258669373261466,-0.06004309453786789,-0.0020505468885216416,-0.044737063559139166
0.3100345,-0.009560193172368746,-0.008309683436459115,-0.017824445615533296,-0.017533244641207358,0.019277158274420732,-0.05949554464120736,-0.006682579724290711,-0.03338170779460748
0.3105,-8.696708015014224e-05,-0.007267846605619406,-0.019903993102991638,-0.01357554289043879,-0.03173382920466924,-0.048467985780877576,-0.012250195410147813,-0.025495647480290973
0.3109655,0.006892282433861972,-0.008871172072865252,-0.02061774035327444,-0.009988772056665242,-0.013959253094384916,-0.03969231516982426,-0.017816921374794105,-0.02438209241508787
0.311431,0.005501891229189581,-0.010256364189952327,-0.021086582523659463,-0.006807153500729858,-0.007605892569856985,-0.04170667905023836,-0.021498912029889877,-0.02713451507462768
