Time,Rectus Femoris right,Rectus Femoris left,Hamstrings right,Hamstrings left,TibilaisÂ Anterior right,TibilaisÂ Anterior left,Gastrocnemius right,Gastrocnemius left
0.0,0.06387704731041617,-0.01037883418226666,-0.03604092193924444,-0.015283253574711126,-0.009624941822666606,-0.018584621939244445,-0.014340738784888929,0.0
0.0004655,0.06864456532182256,-0.008208755546902447,-0.03250871155939248,-0.01573965601249003,-0.012284698348658217,-0.019511606605367132,-0.020106628072810304,0.0
0.000931,0.07415674487532979,-0.00807755227171648,-0.03067131837489007,-0.01403346610317359,-0.012547183089301419,-0.018461667642794326,-0.015644387481875882,0.0
0.0013966,0.07882209370591174,-0.009718451049014712,-0.03269700209802942,-0.012343630629408827,-0.014324232727438248,-0.01783731981428883,-0.0064218714686205955,0.0
0.0018621,0.06868412618857113,-0.011099906753825644,-0.03580056441539146,-0.013600750907740164,-0.01683566753825644,-0.01834426441539145,-0.009533588307829039,0.0
0.0023276,0.04676401511205911,-0.0122247630186415,-0.037615502766088,-0.01390090923591382,-0.022077715705739638,-0.0188822890559245,-0.01125604422169618,-2.1177035071070367e-05
0.0027931,0.029075839139040334,-0.011146646379680112,-0.038212607098784296,-0.015211540064338114,-0.0207476297460014,-0.021302321420115723,0.016351391834062447,0.0
0.0032586,0.02676122236453009,-0.009557911968907465,-0.04443816176481784,-0.015263839662209986,-0.017493881930973575,-0.021171424461659403,0.04888221652633337,0.00013598439127016882
0.0037241,0.027028424981875413,-0.008298253857944667,-0.04615146977057983,-0.014364464280535833,-0.009947007158392503,-0.019989571753925926,0.043595185998212584,0.0006322178234829102
0.0041897,0.01887252890170554,-0.00760549738357701,-0.04461706424290524,-0.014759362042377308,-0.0029510841598909144,-0.022708529946264083,0.007781357225426386,-0.001093346202268223
0.0046552,0.005776490935294283,-0.007208142182292094,-0.04180179517433394,-0.017043342242906556,0.000842681991817488,-0.023231099939385536,-0.022255641898737993,0.0
0.0051207,-0.010493618071593411,-0.0058747,-0.038086386000805196,-0.017635990146516036,0.004579074638682165,-0.022706774638682165,-0.029308315571201598,0.0
0.0055862,-0.026319075589261987,-0.005474195035982096,-0.029832540635524683,-0.01737719554813959,0.004044700614963483,-0.0232737850051403,-0.024660372440886556,0.0
0.0060517,-0.05047113328558504,-0.006310115383128507,-0.023892766122106036,-0.017920016222904518,0.0036811041405279614,-0.026528464891618062,-0.013582551578753536,0.0
0.0065172,-0.07548150727568104,-0.006861037451301068,-0.02395523436282527,-0.017682446716728473,0.0015979771000610102,-0.02944988899553897,-0.002290939441047433,0.0008253916255895241
0.0069828,-0.09667003676400697,-0.0072175,-0.027749951514190536,-0.016884234245641484,-0.00434247070450809,-0.030707258080968247,0.014205754847711968,0.0
0.0074483,-0.10658422864867559,-0.0072175,-0.029425596609480534,-0.01478963628073176,-0.008810857625281422,-0.03042798389841991,0.02258389713256752,0.0
0.0079138,-0.10455631970723395,-0.00689520154010217,-0.027292109554707275,-0.013629301854196427,-0.010534295379693493,-0.03231449075938698,0.02303550462030651,0.0
0.0083793,-0.08724958420825624,-0.007519849076609692,-0.026685809233903082,-0.014283870494324974,-0.008358003693561234,-0.033706539842706607,0.02249065461695154,0.0
0.0088448,-0.05702697109931842,-0.007640757740400436,-0.029636262788967256,-0.014707963029140092,-0.0056090420194267274,-0.03312183192229309,0.029847682648134123,0.0
0.0093103,-0.03718516724074926,-0.008399008830779391,-0.03179373650693474,-0.01561,-0.006366658485766979,-0.030690356919038837,0.04109705691903884,0.0
0.0097759,-0.016542376818615645,-0.008666516969230452,-0.028771703841027438,-0.0155391886871797,-0.010610554118899312,-0.03015121696923045,0.03853979455385186,0.0
0.0102414,0.0010535827631989077,-0.009552235063061895,-0.02338615092534881,-0.015044754558566732,-0.013797722237462609,-0.030915615567557057,0.022107800777983883,0.0
0.0107069,0.015575419389616136,-0.011235793896161354,-0.019520279465096144,-0.015076922441535459,-0.015540838779232272,-0.031530384740403386,0.004033403051919323,0.0
0.0111724,0.025930045930110626,-0.013061388720457192,-0.0125887,-0.015491406803683739,-0.017070922180114297,-0.032072372586083996,-0.0020762935752875796,0.0
0.0116379,0.036848487424926614,-0.013551660761803516,-0.0023840733368769057,-0.014669102283085877,-0.0187242276157105,-0.03243903923819648,0.004254312952984462,0.0
0.0121034,0.04918415273845126,-0.012505863184612815,0.00922191647331984,-0.015269947261548735,-0.020484179107676897,-0.031392152738451265,0.015232881592306407,0.0
0.012569,0.05358107712845974,-0.012298301633681447,0.01370093632632086,-0.016390591831592763,-0.020400403267362893,-0.031142703267362893,0.01817828366318553,0.0
0.0130345,0.046987018990090196,-0.01195657974752255,0.003591720337318179,-0.017467081009909805,-0.01718847848513529,-0.029195018990090194,0.014958239873761273,0.0
0.0135,0.02663914240611381,-0.010296504388136429,-0.0243381,-0.017227161982022617,-0.0135958,-0.026846793701541364,0.011348676376221214,0.0
0.0139655,0.0006321377526626859,-0.008859754649685057,-0.05378455935198221,-0.017056048724689375,-0.012432124973693953,-0.02883074691774733,-0.003989046917747328,0.0009076274972094552
0.014431,-0.024870571536033052,-0.009562823917766673,-0.06474262413503364,-0.01528802824669998,-0.015117840887156484,-0.028681608311523197,-0.036642950584053355,0.0
0.0148966,-0.03949549411715305,-0.009459112289073172,-0.048201933931256706,-0.016076728939834146,-0.016696153779670122,-0.026497995905462497,-0.05089943829294451,-0.0006140131804975647
0.0153621,-0.0485967573871875,-0.008042023768802083,-0.02374843375203186,-0.017677896653841754,-0.013735662901809895,-0.026953811750754602,-0.03219906290180989,0.0
0.0158276,-0.0492281472659087,-0.007139307215314493,-0.0165317058113858,-0.017739410366375073,-0.012767922057424058,-0.025524422057424057,-0.002820717159231592,0.0
0.0162931,-0.03111160287001028,-0.006607530690568785,-0.028032736898416028,-0.016495880000779884,-0.01069707494249652,-0.023529856322854207,0.0029757794259979435,-0.00027426930943121535
0.0167586,-0.00010345897166336247,-0.0071504063071226205,-0.0322475961212653,-0.017974959256570715,-0.010253859256570713,-0.023250179913192708,-0.00880831018585732,0.0
0.0172241,0.025753563070822813,-0.009235976604684474,-0.023087035009912927,-0.018664179616147147,-0.01264755539376578,-0.02485464278598181,-0.014576924222381368,0.0
0.0176897,0.03224999829542715,-0.012022147585746039,-0.014805099526507541,-0.019157798295427148,-0.01606390160987436,-0.023411100284095477,-0.0108949011363819,0.0
0.0181552,0.02176139076688002,-0.01066749166670734,-0.012805680555650458,-0.02024780555552844,-0.01637171156121458,-0.023788099549842304,-0.0035663361114229345,0.0
0.0186207,-0.0036530389347219265,-0.00896389639724222,-0.012501973236321403,-0.019163125219304446,-0.01512152804987515,-0.025620567575179998,0.013724018604371812,0.0
0.0190862,-0.0291724203554064,-0.008230886922417925,-0.016691245576700105,-0.018904130775820756,-0.01517999616373113,-0.02708028230176132,0.022992806888150006,0.0
0.0195517,-0.05444362538924037,-0.007814396014079092,-0.026840518545466527,-0.018194754290332127,-0.014391661352105454,-0.027489998007039544,0.004835221621318945,-0.0010425967061481003
0.0200172,-0.0798835781149412,-0.008929661702595716,-0.03466814665003168,-0.019680477128244646,-0.011510984654526666,-0.029578862155856204,-0.02982711595908501,-0.0003155772084202405
0.0204828,-0.09408468577554088,-0.009070964277764989,-0.03370904404609923,-0.019231259536668485,-0.005803259536668485,-0.03174136543609378,-0.05205458219277317,0.0
0.0209483,-0.08754391156825687,-0.007757034817905311,-0.032151607749882814,-0.01866210258329427,-0.005388115499765623,-0.03182465954025774,-0.04744532126609209,0.0
0.0214138,-0.05509921125786204,-0.006818504350918024,-0.02820209312861326,-0.017047743473622964,-0.006895400796691237,-0.02942446957913111,-0.025580335568478153,0.0
0.0218793,-0.007734964923333761,-0.006783504236015199,-0.019651168351138268,-0.014882960687318562,-0.011382735708293014,-0.025753648871381464,-0.00958135473300696,0.0
0.0223448,0.0363881440760693,-0.008911557888158408,-0.00669450263980199,-0.013724604604029701,-0.01311169736019801,-0.024490241436267313,0.0011045881521386076,0.0
0.0228103,0.069051266352382,-0.008619680029792598,0.0012478936327217113,-0.015103216679080248,-0.012437606731217294,-0.022271666931297014,0.0174201933432642,0.0
0.0232759,0.09874319009135744,-0.0082246,0.005735078897258646,-0.014619522896140389,-0.008550415037477853,-0.020678745792280778,0.0322850288331134,0.0
0.0237414,0.12107081283699753,-0.0082246,0.010124818574980536,-0.013695730308068824,-0.004310191347599951,-0.021552669691931176,0.03034479092420647,0.0
0.0242069,0.13455288632385812,-0.009348348326200765,-0.001685555213565044,-0.012206339742893597,-0.0033556961926973087,-0.02447808077131921,0.009181172138718696,0.0
0.0246724,0.1333363165059983,-0.011629371434947909,-0.024800291153421562,-0.011293912379498734,-0.009894713663953817,-0.0272153628615038,-0.011500424165418185,0.0
0.0251379,0.127288124668379,-0.012823536663762349,-0.049799996885196485,-0.011706178987407952,-0.01959868976419568,-0.028280049390702177,-0.02225547289442974,0.0
0.0256034,0.12132283190147214,-0.010930988702498607,-0.05580844862112855,-0.011573284023559602,-0.022843036145647058,-0.028341552070678806,-0.014553004141357611,0.0
0.026069,0.1152326927680257,-0.008669503287822383,-0.032763136116771056,-0.010365917028247254,-0.01845197440302563,-0.027652727657250915,0.005304199714391852,0.0
0.0265345,0.0933712426697978,-0.007931609208921536,-0.008957523732353971,-0.009664765760587616,-0.014511507910784658,-0.02688363775292425,0.023587758369403713,0.0
0.027,0.08087090116477476,-0.008211559159902557,-0.010561459159902557,-0.006637385880682109,-0.014615940840097444,-0.0276951,0.016278239480149392,-0.016939557837219614
0.0274655,0.06768428464956142,-0.007959327830763066,-0.027808948088075353,-0.007010917689732289,-0.016088854504253916,-0.02837237073417988,-0.010729432737636768,-0.026871106366680025
0.027931,0.055810099081663525,-0.007572936582971509,-0.043235979975241375,-0.006985554635534511,-0.012805980502170949,-0.029003362449607942,-0.04407006920982223,-0.03051885608080056
0.0283966,0.042630628102053536,-0.007952736348586559,-0.04529347562159965,-0.006000365214222673,-0.008873344695715546,-0.02696811885510193,-0.05747341965432858,-0.03549961975492454
0.0288621,0.02497330492673158,-0.008029049648515004,-0.040659372885741944,-0.0018970136512110037,-0.008633981986549284,-0.02627016825605502,-0.029405018092733978,-0.03842298142205741
0.0293276,0.010133624370118532,-0.008507102068434184,-0.033860608273736735,0.0012103652877105435,-0.014620632643855273,-0.023965719761328202,0.009760018615907662,-0.036705802068434185
0.0297931,-0.0007755022770154178,-0.009211045232966763,-0.031007124253800762,0.0023601773835166184,-0.021536294738187623,-0.022796467849450146,0.008989817072894268,-0.022869630155311176
0.0302586,-0.011554215154506936,-0.009342422340873444,-0.03183451808059874,0.0026010457410119603,-0.028816455318253113,-0.020963822607195357,-0.043248014095241864,0.0027326702064381365
0.0307241,-0.022509231800888613,-0.010273673990216373,-0.03620526187281286,0.007601113892380112,-0.02766903058411167,-0.021931581533291843,-0.09880224620545615,0.010217279053725728
0.0311897,-0.022414378542627362,-0.010585161894552974,-0.03991342506216638,0.010664977483954485,-0.02162061431634108,-0.024437611015827754,-0.09236584270682822,-0.010324095156423787
0.0316552,-0.013590468189733992,-0.01164755591092408,-0.04561436864669574,0.01298570782395226,-0.01338736373487634,-0.024811637179047163,-0.029358388292496162,-0.037909852712607356
0.0321207,-0.0035447418305238733,-0.013703488508663242,-0.052059064871542354,0.013475480251669666,-0.007781211491336758,-0.022638773011846,0.031625780789427106,-0.051258260982751803
0.0325862,-0.0011613647231877482,-0.01638017155703433,-0.053143223489856575,0.014016736280222078,-0.0014321019227648728,-0.019546352936232074,0.0727910521009318,-0.05712695201687702
0.0330517,-0.002993743881567321,-0.01598755786868839,-0.04895492827070327,0.015456501750255714,0.0009237361611094902,-0.01902281603383791,0.086795625251526,-0.06223139782677044
0.0335172,0.00026404728219574095,-0.0142672,-0.04197316320711344,0.017650372798814425,3.039475534541002e-05,-0.019586054402371145,0.08396108714981473,-0.0666361
0.0339828,0.010801569130186239,-0.0142672,-0.037558648592704684,0.018443730062517996,-0.003342185228684104,-0.01815734252932794,0.0551432623866966,-0.06630033479871278
0.0344483,0.024603963376780526,-0.014223353265149903,-0.0316151759458853,0.016054256521334305,-0.00797672593691981,-0.013921246326529474,-0.002323926345240433,-0.07061290139131028
0.0349138,0.029203087366817513,-0.015593298780878034,-0.023406670373306723,0.015042327650940154,-0.013252989697723936,-0.0121791047154816,-0.05461351933176141,-0.07313482887006212
0.0353793,0.02903597736788217,-0.01465246251888197,-0.01955839709698561,0.014532098740146207,-0.01148672153157597,-0.009116592600189172,-0.057508480111584624,-0.06456444630009459
0.0358448,0.025474463171875888,-0.0135958,-0.017543917682679544,0.014493943718286568,-0.007137217682679545,-0.010003214877611124,-0.002571942684127922,-0.04898069512082078
0.0363103,0.018151271234420233,-0.013570701345330758,-0.018176369889089477,0.014623252632095138,-0.006089615728120641,-0.012256128882712523,0.06507059368919467,-0.02891402386651537
0.0367759,-3.6987968772916966e-05,-0.014351380425653794,-0.01783566649772778,0.01583945276531759,-0.011704811799657048,-0.013409452881102606,0.09705740765890414,-0.014663991914010004
0.0372414,-0.01994670125508879,-0.015062816361848178,-0.018082327114076945,0.01677971659915955,-0.01744864786112321,-0.016964702295920998,0.09764585073086635,-0.018199354044564763
0.0377069,-0.023757208572806367,-0.013631837395063127,-0.017923862604936874,0.02104661953702655,-0.017989282141963422,-0.018942326049368734,0.07369439694736724,-0.02956986397857966
0.0381724,-0.0023625922607460313,-0.013310088599159551,-0.012743461069579224,0.02137143178658249,-0.015214626271642195,-0.01978322927070623,0.040460193035496396,-0.03529863797633574
0.0386379,0.025777932573894335,-0.013784394759016634,-0.005854804424719108,0.020240491018646903,-0.014678242760363369,-0.01804608766712885,0.005347955870937875,-0.02273584194409911
0.0391034,0.04149669398375474,-0.013922026504061316,0.002918487623925471,0.018623061449872257,-0.015418458161987664,-0.016462217199931458,-0.02490200087595613,-0.0075655537761088
0.039569,0.045847554155997165,-0.01298659102137791,0.013029730190020317,0.016256655106889544,-0.013993691021377909,-0.015031886532066864,-0.0467296145360378,-0.006850704489311046
0.0400345,0.04370542522344311,-0.012455065602245937,0.01006719401895124,0.01143829160060942,-0.016746430382781147,-0.016348755200748646,-0.07022884320262027,-0.012458283581423084
0.0405,0.040453412406652206,-0.013120571763662277,-0.011227648361727297,0.013546757059084431,-0.022701056963663844,-0.01868034294091557,-0.0889393288227467,-0.0053445552521471885
0.0409655,0.035041084226410564,-0.013817086025365782,-0.03082328043086961,0.011445582229824829,-0.020924935753170722,-0.018685678765853614,-0.08999622486390246,0.0019176188589554066
0.041431,0.02636412551678498,-0.013637654171936147,-0.0456488378497928,0.014003472107381114,-0.011089620765117178,-0.016029497624166097,-0.0732411335519633,0.01399751470884172
0.0418966,0.02520985325999244,-0.011720676291254251,-0.03985996409813941,0.014072441066877599,-0.0045819883149981104,-0.015571085973672153,-0.055702770618124293,0.01801929782804503
0.0423621,0.02638049625305399,-0.012717627477604057,-0.028347702497964006,0.015823516236766033,-0.001801961281557921,-0.013234555983846815,-0.03419292872658606,-0.001801961281557921
0.0428276,0.027372227596859144,-0.01347236983796294,-0.021639772403140856,0.016769110628418557,-0.002383454600823635,-0.012184864355694441,-0.0064730267233113915,-0.02375658909092834
0.0432931,0.02449339681488947,-0.015583353129994131,-0.024284806259988263,0.020879196925122266,-0.0010521371621547292,-0.012057778695451878,0.016976549131836854,-0.03440475339274648
0.0437586,0.014791023322584205,-0.015023736146769417,-0.024020158605933848,0.02325469694464174,-0.0012296597335351557,-0.0129244,0.028714917807300417,-0.043989389300683614
0.0442241,0.007471910193770415,-0.014293699482997238,-0.019786802788658377,0.023331,-0.0027950992427814617,-0.013574599150519132,0.03032769787629783,-0.05484078786705207
0.0446897,0.003183607389640997,-0.013114659254183142,-0.016468912949003642,0.02160227471242945,-0.006311022237450574,-0.013019529627091572,0.02922815925418314,-0.06415459078008065
0.0451552,0.0025377473334662203,-0.011462062637659393,-0.015311329913376841,0.017464647622210085,-0.013334259826753682,-0.010821842695408165,0.021959427883091676,-0.07044788054962545
0.0456207,0.004074457406945739,-0.010589310263051958,-0.01703538381139145,0.013688742332495308,-0.01622234444167444,-0.008876830741941077,0.016739562858599226,-0.06282693666749767
0.0460862,0.0027032354963953745,-0.010555951977184902,-0.0195093432057674,0.0066724971076756725,-0.019341543205767402,-0.007067335496395375,0.012642619015605849,-0.04737956206323282
0.0465517,-0.008243341950965927,-0.010900595123933857,-0.021110580495735425,-0.0029297712073627882,-0.022899254100487227,-0.007697086379260309,0.006709382893124441,-0.039291389784108066
0.0470172,-0.026207374964872538,-0.011566070445413495,-0.019360373238845766,-0.011702817503656928,-0.02731725323203252,-0.010200398564249175,-0.004455000212206566,-0.023026356025464788
0.0474828,-0.03792749863713799,-0.012978199545712665,-0.015784301362862005,-0.021009186081225373,-0.031642800681431,-0.011944199772856334,-0.006007018234504306,-0.003901396819988658
0.0479483,-0.03918854042744433,-0.014257178345797511,-0.013148293985626615,-0.027401869198011387,-0.03028128785183583,-0.013575746322400318,0.007749662453516314,-0.008711931412692903
0.0484138,-0.03710201683743034,-0.014121259233193793,-0.012165171788127607,-0.03878149164960784,-0.02251956603258357,-0.012982952141248262,0.01636630813579127,-0.023008967583585952
0.0488793,-0.03744462818243786,-0.014530050173749635,-0.010505916029584672,-0.04507581493284734,-0.013432818168819811,-0.01412150034749927,-0.0030105925940362996,-0.015387184665413866
0.0493448,-0.03555480274343216,-0.014447604344159811,-0.008375807087591973,-0.05269157953758791,-0.009135407468493475,-0.01613019291240803,-0.03211580001190939,0.002373637812399906
0.0498103,-0.022462282210904315,-0.01354220497795221,-0.00792836515433454,-0.059813547731501805,-0.012547772621262852,-0.016328615191680974,-0.05084710256366897,0.004735809772772939
0.0502759,-0.002936883979614016,-0.012984334083038477,-0.011833461418730666,-0.065671192128096,-0.015616062543288381,-0.015073447223470244,-0.040247638650998396,-0.007118905198798707
0.0507414,0.029001868962715477,-0.012187564295473798,-0.024755356558063032,-0.07072613601644229,-0.017363409472274077,-0.013237932605143294,-0.004636214139515758,-0.017985187254217657
0.0512069,0.0642476346116696,-0.01476641011372245,-0.04610406121826564,-0.07721209872416977,-0.01700872810393205,-0.0095674,0.03778617579739389,-0.009484111879797273
0.0516724,0.08355014607040451,-0.01588233389249987,-0.06179311217790464,-0.07859180680717531,-0.013826745966240546,-0.00916877759496955,0.06653011205737781,-0.0005925886330574013
0.0521379,0.08936675327369169,-0.017557476086006774,-0.05554034891763411,-0.08146509130561423,-0.011825353804585229,-0.0095674,0.03512805543399111,0.0039392771832525725
0.0526034,0.09134937438248766,-0.017842152229986436,-0.044003265390094796,-0.08081434163571372,-0.013115224488091456,-0.008872067068723115,-0.05358327438248767,0.0007686862596782107
0.053069,0.08820382583593951,-0.019556027126278637,-0.04326391531582823,-0.08651300181495476,-0.013401963602883345,-0.006905335106777533,-0.12822393357533057,-0.011792762998779646
0.0535345,0.08158839654862064,-0.018940413198038044,-0.04411249583764565,-0.08680468521799997,-0.007414950213759808,-0.007222817360392392,-0.12874743705849567,-0.025515355532556527
0.054,0.07314777608276846,-0.01748513380737387,-0.04236616056884865,-0.0882598779074791,0.0001524159165088529,-0.007513873238525226,-0.08319740888366972,-0.034829143632807216
0.0544655,0.059059319209990954,-0.01518299231600362,-0.03373805334064266,-0.08732799198176659,0.00439909208981365,-0.006575430735985523,-0.003709761245781074,-0.03970370768399638
0.054931,0.047929924513706375,-0.01272939699965058,-0.0324238657898767,-0.08601064103694904,0.004704206109161887,-0.005225747516090448,0.053607609348732585,-0.0323210391779424
0.0553966,0.03682522371515985,-0.010921284056264635,-0.02926557678265518,-0.08374635254665026,0.0065461,-0.0019874850749247407,0.07034852170086968,-0.02588768187595571
0.0558621,0.024453810575001213,-0.009016256261020275,-0.027154885095833536,-0.07996890600902816,0.004349249278472458,4.755025199212747e-05,0.04784203555018463,-0.023126485095833534
0.0563276,0.006348326438670647,-0.008248697614792955,-0.02397664295642406,-0.07698176907030774,4.731910435360434e-05,0.000407116719146559,0.020672923650677306,-0.026760292844378863
0.0567931,-0.008573581494675716,-0.00830510964043784,-0.019410148572447224,-0.07458560500534794,-0.002047842862236127,-0.0011346835742298699,0.029480971783549647,-0.02748020285510555
0.0572586,-0.016659870524777624,-0.007268444256560413,-0.00670710650146403,-0.07079186064140104,0.0002656535441707691,-0.0021310557434395866,0.06555810446821388,-0.02381953276968124
0.0577241,-0.003948895095309673,-0.006503468150865385,0.013035593950651627,-0.06866606852285514,-0.0011563520803553945,-0.004826753081891024,0.09107370868196549,-0.018447640868760603
0.0581897,0.009163152369814437,-0.005720492010254258,0.02229191791283881,-0.0686503,-0.003316037485174838,-0.005938161984618612,0.09111500976894862,-0.016576317758694364
0.0586552,0.02965193125063305,-0.00260377875475243,0.018095978830470226,-0.06795249153656069,-0.013602210312855037,-0.010442824253422115,0.06193419845805383,-0.018662065972944168
0.0591207,0.04225453254983177,-0.0019517459557379386,0.011965882583684686,-0.06810973711019846,-0.024184452383927375,-0.012561584658995487,0.026519289701613883,-0.020595095024657197
0.0595862,0.05234929012297339,-0.004037049930448799,0.007705946776773996,-0.06397419185243193,-0.025650892647610002,-0.011225404143335234,0.008741605678311415,-0.022897613086081375
0.0600517,0.0582437,-0.006983604238812771,0.0006446257283799826,-0.060735649495290346,-0.020940006717291477,-0.01019314567911886,0.007111708736130085,-0.025106369187524683
0.0605172,0.0582437,-0.007691464255821395,-0.012379138323388023,-0.057054996689109794,-0.01598523961622837,-0.011042442756597336,0.016879552859789194,-0.02694665342094875
0.0609828,0.056994097964515926,-0.006471497964515931,-0.023545924242183887,-0.05377689491128983,-0.013434842713182722,-0.011859047801892895,0.024473618644602693,-0.02577409796451593
0.0614483,0.057933664538575874,-0.0057058233232839045,-0.0318364707919534,-0.05070019077151741,-0.013762615678202412,-0.011853134831019577,0.01217286870904261,-0.022838267448233505
0.0619138,0.05874143267790205,-0.004634672598676058,-0.0554454392204527,-0.04632053698897648,-0.015201938615792521,-0.012413566017116464,-0.016405970915207832,-0.02093778316947551
0.0623793,0.052762117051052985,-0.0030953679887029003,-0.08343705877572481,-0.041716043909623204,-0.012783455902091805,-0.012690416052719797,-0.031698865020927385,-0.020411506745599224
0.0628448,0.04555194474633576,-0.0022709228683082732,-0.09376773440989741,-0.038334057322185575,-0.009923091473233094,-0.013630220112335938,-0.02887039625374688,-0.0199741
0.0633103,0.03220457716203798,-0.002182,-0.09018927435606108,-0.03444980518963447,-0.004921874356061077,-0.016915970395261503,-0.00878902648857758,-0.024619526798761598
0.0637759,0.015287238917099728,-0.0026026393573992325,-0.06839953935739924,-0.03191844776865659,-0.0011660045365036234,-0.01902847366417854,0.004923419861940971,-0.03301938258955219
0.0642414,-0.00023235524294204783,-0.004402789514115904,-0.03978358351646241,-0.028482759999120894,-0.005099973401188669,-0.020070932864413072,-0.004422143350297167,-0.03720445664970284
0.0647069,-0.015044280345001387,-0.006152897388217946,-0.028949486567304842,-0.02592637046151997,-0.011371657402609694,-0.019344742597390305,-0.021400994402651002,-0.03486412425360826
0.0651724,-0.02156822674597929,-0.006755870874059159,-0.031051988997491092,-0.024380187377822524,-0.015337036305885978,-0.0196384,-0.033443433866902315,-0.031262092879076976
0.0656379,-0.02437452198692619,-0.006471449192471296,-0.037951812483305085,-0.021951420745315475,-0.015106101489841992,-0.019340025403764352,-0.035713442545518316,-0.028665490621594313
0.0661034,-0.02576844742068041,-0.0072321185045673185,-0.0468346676286932,-0.018485290156009592,-0.01406289133942309,-0.01951192830103433,-0.0033520687645833044,-0.026751230052003198
0.066569,-0.022192052880159463,-0.006847087581879487,-0.05864891555103787,-0.016793315159070996,-0.01662427469703204,-0.019243901137111774,0.04297179224387549,-0.028593108148091385
0.0670345,-0.01795570512820522,-0.005011258366814276,-0.062320489849862895,-0.013827854906441943,-0.019730991411422448,-0.020232443975525056,0.05059728550243745,-0.0276046494409835
0.0675,-0.011774470961925595,-0.002776256040729023,-0.06037647789308632,-0.011802255081512572,-0.020233315997399907,-0.02128118997454436,0.015085733033092331,-0.025715179048365715
0.0679655,-0.0067599124963671235,-0.00013647653953969088,-0.057532062481399346,-0.009680473445492532,-0.01792073750876756,-0.023026628126550056,-0.03481068133520475,-0.02696995313895049
0.068431,-0.00015399836192870806,0.0005426547125641365,-0.04863741557411396,-0.008442835862307591,-0.017022719050390756,-0.023901628275384817,-0.056204417212185255,-0.03406186022718064
0.0688966,0.004699669002478029,0.0008200094939540529,-0.040039499970860155,-0.007610771518137841,-0.016329373406832767,-0.025565756963724318,-0.05246016897333818,-0.043491922794437796
0.0693621,0.007613721395464192,-0.0010788223557569316,-0.031427737059292825,-0.006090588822121534,-0.020197506933447944,-0.027171625522027808,-0.045791548355038195,-0.059298267067270795
0.0698276,0.0017770188537365463,-0.0029034391861715485,-0.031584933121140094,-0.005345714812244986,-0.02449206319873323,-0.026731172215573366,-0.03773998648297691,-0.06483754618506002
0.0702931,-0.011221887205150041,-0.0032371284510911056,-0.03555978619563558,-0.003985373972836876,-0.02359416245781238,-0.025805572963322414,-0.011647844377643253,-0.05411013656523731
0.0707586,-0.01919056950307283,-0.0026128240105354117,-0.03619973049692717,-0.004051439511852338,-0.017168512507658825,-0.025489268997366147,0.008464835001074193,-0.03773554448112405
0.0712241,-0.014819565979218335,0.00017895943944828106,-0.03471876130795401,-0.0021522426028811846,-0.009494864197624475,-0.027008820747402292,0.010552181121103439,-0.02983577364708052
0.0716897,-0.004172836561864274,0.0006140243275200057,-0.03174052880482549,-0.0007117468676545039,-0.004119701830208135,-0.025587418400689354,0.009588597592417087,-0.04018828400689356
0.0721552,0.005064152648016157,0.0003901671444077956,-0.029255781558361497,0.0023869710649831004,-0.002236473634772954,-0.021286227691340937,0.0079324763116723,-0.05776033423104921
0.0726207,0.011996072918215547,-0.0014877309802901226,-0.02334116434518285,0.003074751873644481,-0.005660972142194188,-0.014719788455699698,-0.007677900776021359,-0.045186975208139975
0.0730862,0.018516942885151738,-0.005360165197837561,-0.017595269965536297,0.0036324394964614994,-0.010781704730998896,-0.013024525340164645,-0.028537827025334802,-0.024191945930980473
0.0735517,0.02694493827120856,-0.009861043738524068,-0.01260935308483424,0.005009832100917795,-0.017991254673155085,-0.01756913633202237,-0.03524872504590373,-0.03615105943811762
0.0740172,0.03424840010196686,-0.01596699044174116,-0.009122977823096378,0.01010170559520933,-0.02574241119041866,-0.023950422278870474,-0.034813411292385514,-0.06860075564619275
0.0744828,0.038910607406446675,-0.02075874208250374,-0.011195069958420746,0.011914786213618153,-0.029368572427236304,-0.026540537448025935,-0.043101779833682984,-0.07274493991684149
0.0749483,0.043462273334307036,-0.023048782232608398,-0.018349232263360483,0.0126455077570873,-0.02910722273294792,-0.026887829966326802,-0.08011415777323383,-0.0378036427973732
0.0754138,0.041819099559107904,-0.01810997640472027,-0.023446750820602495,0.012668903630043036,-0.02393709379551465,-0.02428767927534251,-0.11152572256878336,0.01660616431427827
0.0758793,0.03923920664992824,-0.012478075122603328,-0.022971607881831228,0.011293284236337542,-0.015917994007430526,-0.024361792118168774,-0.10718653456501692,0.050044939326341596
0.0763448,0.03404301085035842,-0.0068359205767995835,-0.022598466862231183,0.011139005718525987,-0.006637740566905614,-0.024780817104822245,-0.05555845938233867,0.02893160620370811
0.0768103,0.031564151584505894,-0.0035475640593563007,-0.024207276534206706,0.0112686640593563,-0.0037296765342067066,-0.024315335940643702,-0.011399487525149594,-0.00846376237425203
0.0772759,0.029692160635711163,-0.003814991337755548,-0.026614122039799935,0.011536091337755548,-0.006136522039799933,-0.024047908662244454,-0.009260069297955614,-0.01916085351022192
0.0777414,0.02749107770690677,-0.005429268577577691,-0.027651207431031076,0.0115816,-0.011566159448248611,-0.0240024,-0.025524853459792836,-0.01250984968108047
0.0782069,0.02638625474620878,-0.00854808965062703,-0.025572178015820946,0.01187381120632838,-0.014199290507582441,-0.02339623319050743,-0.012209511206328379,-0.010378800428477705
0.0786724,0.024691839628057186,-0.01226797834670727,-0.02348984421599257,0.009844967664001406,-0.01306569634313771,-0.022335931095378514,0.03703054510130157,-0.02729427562091807
0.0791379,0.025537912218308884,-0.016343032563227493,-0.022857242882117917,0.010064019599657572,-0.005013311278473913,-0.0240171919914271,0.08524751844550015,-0.03209150601086613
0.0796034,0.02407361349282591,-0.01585586574796685,-0.025389217042824676,0.008112580495823763,0.0012562585612391612,-0.025646987134689592,0.09038934648982806,-0.006420729447003382
0.080069,0.023299985833496215,-0.011044307917725395,-0.028500607917725396,0.009918607083251893,0.00014684170453421692,-0.027726114166503786,0.05750941587494715,0.02865845666601514
0.0805345,0.02256410050246573,-0.006714663432445236,-0.0235979308847545,0.010167170042476529,-0.0076234030926329984,-0.02843812995752347,0.03551170661003129,0.02964414804698068
0.081,0.021249755250884756,-0.00447147172593775,-0.013595776254423783,0.00915112630106171,-0.012857255250884757,-0.029427315799292194,0.03689328949823049,0.00838574003407751
0.0814655,0.019782355568424653,-0.0031508557233615024,-0.006258777842123268,0.007390246682109585,-0.011389855568424654,-0.03060123554526028,0.039828088863150694,-0.006434953047131686
0.081931,0.018204847222399376,-0.002161168333439626,-0.0020984733337585035,0.005497236666879252,-0.00637182055615788,-0.031146508536669452,0.03208810444543651,-0.01276297944384212
0.0823966,0.018288707980064992,-0.0031649789567422164,-0.004798679800649946,0.004545684039870011,-0.0024153731628678153,-0.030069123096287252,0.015262522883915781,-0.01852791970097492
0.0828621,0.018339406589258044,-0.007173693410741954,-0.014611601815024433,0.0036196766473145115,-0.005543358081279053,-0.02999828802322259,0.006448317965166121,-0.021512449722134088
0.0833276,0.01804703053043478,-0.007152152102173914,-0.018553129980434787,0.0032326652652173906,-0.011124164715217395,-0.0297093,0.007195717367391305,-0.014681070019565215
0.0837931,0.016845936125954388,-0.006425882120842044,-0.028889211779579826,0.0006574513386726243,-0.018539544503817545,-0.02950493081359117,0.008896,-0.009109727748091226
0.0842586,0.017198914939139155,-0.005894556516000555,-0.04353764182495653,0.0005967799170431935,-0.021183911865271996,-0.02949919842236331,0.012038510041478405,-0.017753493278545657
0.0847241,0.017099064835650202,-0.005641928242153146,-0.04769090465659791,0.000655014233030217,-0.019253944516874823,-0.030965423585555246,0.02335266910361119,-0.03438743089638881
0.0851897,0.01634448984341652,-0.0069316487304270655,-0.03609617495528825,-0.0005665898434165224,-0.01450320253914587,-0.030015416901680206,0.028353258887010544,-0.04164183808718804
0.0856552,0.015441101144240226,-0.007074056652468475,-0.029254063877057063,-0.002335945115384162,-0.009843335499330525,-0.03129316995740543,0.010429058940948924,-0.043485948907252076
0.0861207,0.016331811047413682,-0.004435662092818945,-0.030766811047413682,-0.0028579828224921527,-0.006334762503747472,-0.03184557177507847,-0.01506233484213397,-0.04307543121377887
0.0865862,0.018064584876506296,-0.0009829829237478177,-0.035045605041164565,-0.0028708474794177158,-0.00366652618220208,-0.030921246503038475,-0.023684147479417716,-0.044174671708861316
0.0870517,0.019679745317030907,0.0019780643618649185,-0.034507218227656365,-0.003140040886171817,-0.003262695977729737,-0.028902336046723907,-0.023953340886171817,-0.03946382718500573
0.0875172,0.02074867272603802,0.006597538201129644,-0.03597152684150608,-0.003266479544528515,-0.006210011359623565,-0.02476446861736085,-0.029424797722642573,-0.019045156825281385
0.0879828,0.021675749932272642,0.008606599864545282,-0.03942147260176509,-0.003883649932272641,-0.009301149796817922,-0.022445500135454717,-0.033760849932272644,-0.005353748577725454
0.0884483,0.021966490442352757,0.009188080884705515,-0.034914951391902475,-0.004174390442352757,-0.010173371327058272,-0.021864019115294484,-0.03405159044235275,-0.011459299289407907
0.0889138,0.021272756482069454,0.010913877530686499,-0.023493805650579742,-0.0055721087342556225,-0.011611029011953697,-0.021824079722301926,-0.03689878780678006,-0.021093821698394532
0.0893793,0.019379555010325136,0.011025163611273718,-0.016315782210531458,-0.0069680401206572914,-0.012847544989674864,-0.02198349513098243,-0.042877914340152666,-0.018439162474187157
0.0898448,0.01794999635599344,0.005459099995466242,-0.016612430805957146,-0.007462917648658974,-0.013665796360527198,-0.022301331653311385,-0.03788123753619771,-0.02227123753619771
0.0903103,0.018182951063439666,-0.004063076094251164,-0.020227875719230275,-0.0076351242807697235,-0.013972462140384861,-0.023554057164443594,-0.017406911104804367,-0.032579229631731876
0.0907759,0.018990157887008016,-0.011506245635609631,-0.024430731548032054,-0.007807936757088151,-0.012658173661024041,-0.024442228028307412,-0.0038026087316737414,-0.033402
0.0912414,0.01925127766128114,-0.0182956,-0.025978034522456207,-0.007681755846797147,-0.011177336881708189,-0.026008029610213524,-0.016987760234804965,-0.030260714542989328
0.0917069,0.018925449556997424,-0.028647463733079852,-0.030329260189059244,-0.008013551329007728,-0.009989497341984545,-0.02677110088600515,-0.046397913290077274,-0.03065246991887924
0.0921724,0.01866975880641904,-0.036573877001009725,-0.03621014745236206,-0.008780623580742877,-0.008455352838514245,-0.027282482387161917,-0.05406863580742877,-0.03129165871210349
0.0926379,0.0186313,-0.044373592489224234,-0.041900214150829514,-0.010397723172134223,-0.0082246,-0.027059055365573157,-0.04921550731146311,-0.03589296951640267
0.0931034,0.018122381259346777,-0.04657002534060292,-0.04024588836122064,-0.010926448287272055,-0.00916409696482412,-0.025840577694572958,-0.028014551712727945,-0.0446235283757788
0.093569,0.017769093164016675,-0.04058582213542534,-0.0328659569665277,-0.012018663541422269,-0.010308869726219852,-0.025195553124406352,-0.010219412044491285,-0.043181978840864284
0.0940345,0.017887746304056647,-0.03491112412839654,-0.02886852412839654,-0.011209823152028325,-0.013548714783773407,-0.027839407391886704,-0.007004090655376867,-0.03321459107778693
0.0945,0.016963469190435506,-0.030106967232066576,-0.024958201958368932,-0.01135711736315118,-0.015742555744022193,-0.02879412689282663,-0.013798944255977809,-0.028565377564670286
0.0949655,0.015787084625459146,-0.023703647951665276,-0.011512938423255244,-0.0118697106627234,-0.019096495288182545,-0.027334349112172425,-0.03284800659224773,-0.027713569250918293
0.095431,0.01630878848150218,-0.013284581301569561,0.0038086302169282604,-0.013128971952354343,-0.019270950748598897,-0.02560309532539239,-0.06932460717993262,-0.02686809065078478
0.0958966,0.016562277369964302,-0.004025883573522982,0.009022275185765281,-0.013969692704341811,-0.018019655482989734,-0.02700707007430611,-0.09094058886651714,-0.030551016426477017
0.0963621,0.01696776974041469,0.007163843713254319,0.01307910203454482,-0.014254100919729479,-0.02028734538937797,-0.030011318084066953,-0.08857139744369871,-0.041858120281947075
0.0968276,0.018066971994185478,0.015296179964310213,0.011721333137873269,-0.013271841154915498,-0.018491566862126732,-0.02705636114368779,-0.07132126690904424,-0.04593357483225147
0.0972931,0.0183726648073797,0.02560315736125541,-0.005654597211069556,-0.013538001394465222,-0.013776592553875703,-0.017910275963101477,-0.04258003867878335,-0.047406427523061574
0.0977586,0.0176066731828629,0.030527997481161268,-0.026886858239289314,-0.013215610338558469,-0.01072722626596575,-0.009984996378818573,0.0008813365783386839,-0.04567653405949995
0.0982241,0.017016320212110768,0.03219729865694583,-0.03235514324258581,-0.01412617211106422,-0.010729415353650027,-0.0067248729583509175,0.07097040450694152,-0.04846270535422821
0.0986897,0.017714045469405353,0.03559471873985537,-0.02511626358216871,-0.012813318768701058,-0.011346262491443571,-0.011016953391793361,0.14735862667185862,-0.04175724717760727
0.0991552,0.018071053796924048,0.03711652036610953,-0.01655343104631652,-0.012687794398389698,-0.009480111856987616,-0.012948865261651454,0.1938174690844369,-0.02661954754154673
0.0996207,0.01922911765805794,0.03620532473342047,-0.013990362366710234,-0.012983262366710236,-0.009755944083224413,-0.012515117658057937,0.18852964840052283,-0.0014798218428446223
0.1000862,0.019480206315738324,0.028409045387290978,-0.02394812288652546,-0.012159354649582005,-0.016719299926254035,-0.014428569232277408,0.13031718530668565,0.015329803718072584
0.1005517,0.019793142822327147,0.015559263104211962,-0.04211336408218006,-0.012234243124948465,-0.023351680625979143,-0.016337670625154604,0.08351957219717254,0.0063734462100730055
0.1010172,0.02165622977845886,0.003665131452433624,-0.054545426642296016,-0.012447482551287612,-0.0256809,-0.01696394671540797,0.06497313583587964,-0.022747638139480966
0.1014828,0.023721416022856368,-0.00962211602285637,-0.04941429724081302,-0.014509101103674794,-0.024314495084222947,-0.02141851314257849,0.031231468506124658,-0.04814883989252719
0.1019483,0.022011457204476618,-0.01973418096238101,-0.03292635318374613,-0.013547442887143024,-0.022755897594047482,-0.021684127811063762,-0.011501626987460335,-0.05167291672328612
0.1024138,0.022936663485676977,-0.02359338917159204,-0.022671041928527005,-0.012815740725370565,-0.0201447210552377,-0.022467296390530682,-0.01424330060157822,-0.042719056967982505
0.1028793,0.02408812321234424,-0.026022553273915117,-0.02612016849503372,-0.011795273704073808,-0.020260992389440697,-0.020160357800892467,0.005838396916418049,-0.04130047062049186
0.1033448,0.0246738,-0.03356999528704832,-0.03147700524299275,-0.012561311693665861,-0.019343782459501208,-0.01902862164961029,0.007834123387331724,-0.04502815670077942
0.1038103,0.024856141687634805,-0.04494939820438235,-0.03313009104084743,-0.011874772639435049,-0.01717766271406801,-0.017212476713777573,-0.0095674,-0.04631346188466483
0.1042759,0.026820381565704866,-0.050629132455143014,-0.02922831190746898,-0.011796256954673501,-0.014527873896638182,-0.01641769364821881,-0.0271447430453265,-0.04331885855850483
0.1047414,0.028582658324054818,-0.04637731561465896,-0.013068292297876026,-0.01264714298400185,-0.014512579024724413,-0.017788901372251645,-0.03586391430660229,-0.031232741950551174
0.1052069,0.026198123672032683,-0.03633202195923658,0.005307473565435855,-0.013802066950924874,-0.015714377827569768,-0.023331523885226337,-0.042360694025069985,-0.021187983155671955
0.1056724,0.024833261903491773,-0.02585996348528946,0.016694005562964652,-0.014214046032169409,-0.016294684533515003,-0.027376176193016452,-0.04977845236725701,-0.02780839125466408
0.1061379,0.02388585208411569,-0.017129645270176942,0.02014578355922177,-0.014582397944902722,-0.012814222606070062,-0.03021668355922177,-0.051152995889805444,-0.03939842807159525
0.1066034,0.022776033954277013,-0.010041865044831438,0.01418933659414602,-0.013972205788552496,-0.0092110959282697,-0.033680446532273554,-0.0383310098602828,-0.045270477415711816
0.107069,0.019029887493447743,-0.007229842719922056,-0.0005754998123305499,-0.01423428608020785,-0.0077342253332863846,-0.037393371840233836,-0.0036235417593764507,-0.04364413040103925
0.1075345,0.018988014607364885,-0.009525432840228361,-0.020876250739657456,-0.012871906897459366,-0.006588104437944744,-0.036381258283882154,0.04160557322468142,-0.04015792988159853
0.108,0.017781091440548583,-0.0182956,-0.03745231356794346,-0.013062400348904452,-0.005167538288109717,-0.035651488936302565,0.0725814114126019,-0.0408885401830722
0.1084655,0.01595062139631169,-0.029096956755740276,-0.05561611023892496,-0.013267481361462425,-0.004850375845914196,-0.035717450225818174,0.07635171441475325,-0.03893172973277917
0.108931,0.01597812442443585,-0.03173189650164271,-0.0789242430482578,-0.013627130508058622,-0.003738186819272133,-0.03294708663665377,0.07539253069067699,-0.026053227192319697
0.1093966,0.0165865135967076,-0.026964028065847946,-0.10465661526759384,-0.014831543032860986,-0.001862018419754384,-0.02974063683950877,0.08235132632098247,-0.028549267983538015
0.1098621,0.0166171,-0.01341291453856732,-0.11290446216233972,-0.015262087045584414,-0.0028106564785735115,-0.027109190680909105,0.07774781556688523,-0.04196516886896097
0.1103276,0.015874516971364612,-0.003419903482887169,-0.09991325376912591,-0.014977284483840224,-0.00582355516159776,-0.024350560354562015,0.06106207156784028,-0.04959418391136273
0.1107931,0.015049721514622298,0.002622602890721442,-0.07290104302924459,-0.014112505825717188,-0.011004146513766761,-0.014951123255172312,0.02836775114846036,-0.04334178545784418
0.1112586,0.016336790580291163,0.0058747,-0.05077369595565041,-0.014606147342775032,-0.013621811533544408,0.008460867330474443,-0.006288642150143697,-0.031576877898465014
0.1117241,0.0179018985104112,0.00390621328415045,-0.03720312822392854,-0.01445279370956712,-0.01296323058284087,0.02141913757655844,-0.03687696894570342,-0.02675622735460501
0.1121897,0.0186313,0.002691385846198256,-0.02503773600249222,-0.0162814,-0.013516012581157106,0.021978995594654015,-0.04708582656662439,-0.026525985846198256
0.1126552,0.0179599,-0.003150657177824783,-0.021163825451664064,-0.0158643635504441,-0.012645633091798168,0.02519879439079938,-0.03397357328082115,-0.006596368998444774
0.1131207,0.019607234920809465,-0.007644775093609166,-0.021147410661146143,-0.015438827511365705,-0.010259576719460355,0.01862091164026982,-0.015897030689983407,0.022609013640557674
0.1135862,0.020964163873475317,-0.008220340968368831,-0.023301188047283518,-0.015603610818202392,-0.00924447709489351,0.008688070948935107,-0.004515294988555688,0.022668118063262337
0.1140517,0.01927405786747843,-0.004981325605973361,-0.02134233226150507,-0.016596459191706214,-0.008660547463825495,0.008181636801217645,0.0015455618745545715,-0.002731673069798856
0.1145172,0.018351232189109383,0.001052375546985632,-0.017499454290839815,-0.01692805859426298,-0.007993925429083983,0.006371057618193364,-0.010022510192697254,-0.0236554399252044
0.1149828,0.018723751605025128,0.007287971452323641,-0.01766929305395777,-0.01583070186799599,-0.009057790308793973,-0.00382414185276384,-0.04223477098743718,-0.032000854815075384
0.1154483,0.01941101161710954,0.009637242079336437,-0.024301175818396453,-0.015141370306376294,-0.008108902666619441,-0.01770297168519316,-0.08450204836320709,-0.03320907633759583
0.1159138,0.019346648789245243,0.005359495782064231,-0.03526609484443934,-0.01574184636773573,-0.0064142536322642696,-0.033609575784904866,-0.10165542030970098,-0.03603148304943341
0.1163793,0.02043141286807208,-0.003195069361857055,-0.04076520861531062,-0.01688143926316373,-0.005836381671059194,-0.04008892203254248,-0.08276851490477409,-0.040471203424166706
0.1168448,0.018575978193861108,-0.011340190198708288,-0.039393047357027755,-0.01609908116801383,-0.0056949082499328845,-0.03413249096930554,-0.03414002929563884,-0.04725235187237499
0.1173103,0.018625813539818938,-0.019351792893023217,-0.03161708568558143,-0.017749721454883693,-0.0065951928930232185,-0.02817542859534881,0.00016657211227415355,-0.05727746436465108
0.1177759,0.019448408283750072,-0.02879666838629096,-0.022810497373946755,-0.016924621134315462,-0.008222575740807344,-0.028261924689602397,-0.002634274474397527,-0.05985671903190557
0.1182414,0.022016585964534853,-0.039957200405639895,-0.011755112598372391,-0.015857244054011833,-0.00955151373470899,-0.02683546291127888,-0.03279977038709321,-0.04115487253058202
0.1187069,0.020245897314832947,-0.04314534519064761,-0.001024943399860895,-0.01630696107406682,-0.006766775166699308,-0.0189320644260311,-0.05765835391497205,-0.019536155703732717
0.1191724,0.01848583978543754,-0.03806644235070543,0.012506555192874663,-0.017049773476374975,-0.003908986738187487,-0.008888585665375181,-0.06790246994714276,-0.01898922856040166
0.1196379,0.017754183554838165,-0.03282294235631462,0.018847575858069242,-0.01753754429677456,-0.004152872148387278,-0.005474189922578101,-0.06582948028534924,-0.029232343138983485
0.1201034,0.01829431051186266,-0.025481544319496646,0.01825191352204121,-0.01681903465677804,-0.007523249355935914,0.0015947685754235316,-0.05309354399152403,-0.05436248562881473
0.120569,0.019342092056250954,-0.02239112428192862,-0.0003059209009529341,-0.014101623107878011,-0.011222206696195627,0.012656062399182927,-0.0666440945513578,-0.0677182807160321
0.1210345,0.018143545478922513,-0.022207964666689773,-0.024804465927598822,-0.015734696679339154,-0.01440009569686666,0.007359120848097683,-0.11081708151626868,-0.05386208219412661
0.1215,0.018032525286937814,-0.02988998001628486,-0.036500633360474766,-0.013741064997964392,-0.012972821665988132,-0.007551404749703117,-0.13881421282324008,-0.041049003877353385
0.1219655,0.019247320183160766,-0.04296073669423708,-0.022988457802070813,-0.013112969493416919,-0.013568110091580383,-0.024400326138972833,-0.13900512935893733,-0.037807634862629426
0.122431,0.021641045638315787,-0.05800428634736845,0.00782665207923598,-0.013611205815578951,-0.015633108723368427,-0.02798073109936841,-0.11327956853626493,-0.04243123691494736
0.1228966,0.02073625637456904,-0.06554419687859134,0.029239908146854118,-0.014817591500574614,-0.01744268725086192,-0.0240599776231325,-0.08553287746347445,-0.03971686912370712
0.1233621,0.01909065300295975,-0.06047423182312477,0.05422896853847154,-0.01340170636751581,-0.017378348065520025,-0.019296228284997698,-0.037712158663592094,-0.01825823534494269
0.1238276,0.01668912991717895,-0.04445141270874066,0.06410343069827369,-0.011567050507540647,-0.015174094485221059,-0.020019809209823988,0.022402854006457314,0.007609543079592388
0.1242931,0.017880953296286313,-0.029393877962098948,0.05297385453493455,-0.012549226648143156,-0.012440895573622096,-0.022422495111905225,0.07198703379642112,0.012530737295252541
0.1247586,0.018268280022094855,-0.023596339513913163,0.042180710734950264,-0.012897080022094857,-0.0110877757872774,-0.023530108248686347,0.07562590033142284,0.00907937958019773
0.1252241,0.0169231824314647,-0.020763411681969875,0.016203571224848445,-0.012381935612424223,-0.006908528339210053,-0.024789098548064707,0.07782398978350312,-0.005076983922812118
0.1256897,0.015924502589123313,-0.020450043997299414,-0.013873484188167284,-0.012918040145297885,-0.0034993631069479745,-0.025001021035649326,0.09533160032266283,-0.023084329125682087
0.1261552,0.014773981377665897,-0.017857299063551612,-0.03659757091553689,-0.012407107175838539,-0.0030035584846747664,-0.022365753946187363,0.10735183002091149,-0.02997651955878249
0.1266207,0.011825639706482335,-0.017428157663012367,-0.04762823591306007,-0.012542147445662543,-0.0032709367871490186,-0.02697860087408895,0.07865219357607243,-0.016715121168493816
0.1270862,0.014278741889836069,-0.01596643458786424,-0.052925520447912246,-0.012231476093301332,-0.010469683700079457,-0.029835286164854303,0.027473844275018235,-0.017866190312846007
0.1275517,0.013658125963397534,-0.008185742188829375,-0.053563486535636494,-0.012744137859340966,-0.015801364844897674,-0.024371408112715924,0.01912505673218175,-0.04455216923121578
0.1280172,0.01646903041534826,-0.0006422691316385302,-0.04975562042790324,-0.011435887646532162,-0.020187346790725678,-0.01757406721862892,0.044631584077635796,-0.06347973112548433
0.1284828,0.01614475403214963,0.006221742699413306,-0.05053336741861749,-0.009271510806429926,-0.023017897257869336,-0.00812238112927081,0.0710825193970356,-0.052099955408947886
0.1289483,0.017810691657307837,0.007693068742980879,-0.06397374045630316,-0.0095674,-0.026193752057596553,-0.0056601895435583124,0.07309376845745025,-0.032133766629231356
0.1294138,0.019150860604732395,0.00741117122042253,-0.0832539788279818,-0.010854424233126766,-0.029488519724122652,-0.012596952959726534,0.06662224236595188,-0.034736547040273465
0.1298793,0.018567563265486715,0.0029569132872679055,-0.10758874998844992,-0.009506032025593036,-0.026325702331359967,-0.01901035779396727,0.05509758906719222,-0.06403071560839677
0.1303448,0.018980738312313786,-0.005795441394205077,-0.11389315965760534,-0.008683238801449014,-0.026005679951086477,-0.021327820048913523,0.03944559962117471,-0.0659034603545382
0.1308103,0.01927305589166906,-0.012945852790356259,-0.09442003516529342,-0.008195995332758126,-0.022358311552871254,-0.02156916901046939,0.02946377731624906,-0.017652804667241874
0.1312759,0.01919449092674412,-0.00995143680746852,-0.06399688477357565,-0.006385043746105849,-0.02094499017606149,-0.01715109209477909,0.024928465911167517,0.044500249899274306
0.1317414,0.01884622326657038,0.0016191665089690071,-0.04722603379368476,-0.007154056790655009,-0.01714719360548177,-0.00892776703164244,0.01967113073948911,0.06452785346685923
0.1322069,0.020171890458570086,0.015155745256773994,-0.04262335767354696,-0.009172217522579984,-0.013250018275230955,-0.0072969467070980315,0.005696867885160993,0.016734840205944887
0.1326724,0.018491473828984802,0.024841357026091186,-0.04334703231450259,-0.009548865105313071,-0.014388148302419454,-0.014905520671977656,-0.0067791436183586625,-0.029243212763282674
0.1331379,0.01776120250891508,0.029222984946509524,-0.04444240303845982,-0.008575170011886773,-0.01852635244948122,-0.020869439375361083,-0.007996262485141535,-0.02680897502971693
0.1336034,0.01729674951862451,0.03202620192550195,-0.049428881283146604,-0.007569699037249026,-0.027007200962750975,-0.021565980054442616,-0.007893024759312257,-0.00954265144412646
0.134069,0.0172885,0.031314407389887895,-0.05100517397053524,-0.007851134794107048,-0.028811308764642288,-0.016587708500180185,-0.008782704382321144,-0.00658805205892952
0.1345345,0.01792552335128654,0.02946813834403416,-0.04291279131313072,-0.008844435026929807,-0.02585278324356731,-0.014671653297426923,-0.008258976648713463,-0.007484446702573077
0.135,0.018804165780109985,0.02664318245143533,-0.028340889972248758,-0.009954320055502478,-0.02033541002775124,-0.01568683008325372,-0.0135958,-0.013824424769514638
0.1354655,0.0193027,0.021724508360419167,-0.02185043980070678,-0.00981800205760179,-0.014164615533919069,-0.011693709482332431,-0.029639155148401115,-0.0318349771063563
0.135931,0.019654493928079025,0.01629347044605927,-0.022336896541506876,-0.008928187856158051,-0.010150283395565356,-0.0028775408921185392,-0.040553113145941524,-0.06202574269988225
0.1363966,0.0209812,0.014062777184634407,-0.017485083274079185,-0.009968782269339645,-0.004319637643347997,0.0007040156906775061,-0.03801297528669599,-0.07285961683746148
0.1368621,0.020900571223315272,0.01722802841748645,-0.010343448973327448,-0.011420342446630543,-0.003296858271766003,-0.004746656834972908,-0.03541309070156144,-0.05595116228407499
0.1373276,0.019086869484734443,0.023762661030531113,0.0016065610305311111,-0.011209928247455741,-0.00456787175254426,-0.004831529891662577,-0.029385455871308506,-0.010250546800069243
0.1377931,0.017018426001629575,0.027877048534459766,0.00169235142968405,-0.01000995333876525,-0.005857871327358224,0.004940795993481699,-0.016405082011407026,0.006530973424795325
0.1382586,0.01667621505848427,0.030267799069827163,0.004437989420732799,-0.0109102,-0.0019592921254277533,0.0069219247075786375,-0.004213046345138268,-0.003932335047333224
0.1387241,0.015993552477923674,0.029697338068397097,0.003905514941109477,-0.010926150825974559,0.0029259137471758243,-0.005570901651949115,0.005011892464061335,-0.04413307309868741
0.1391897,0.015071466502948544,0.023589665520639812,0.0042183510136481585,-0.010618788834316183,0.008434500982308732,-0.01632121313030128,0.007534589325470548,-0.08090630890345743
0.1396552,0.015261978375352502,0.012634966693645078,-0.006475190057059926,-0.0105745,0.007938186498589992,-0.02491248690529247,0.014033089131697539,-0.09840730355846994
0.1401207,0.017859583549815577,-0.00195893924969263,-0.02996615252521516,-0.0109102,0.0016424904760143208,-0.030871877200491792,0.016639627849938526,-0.05014526019120693
0.1405862,0.01962764322020016,-0.020918899147405884,-0.04713332966060048,-0.011689167797998409,0.0036830147354443878,-0.026894618642401908,0.0026898084767974554,0.023233295050736662
0.1410517,0.023071144200651497,-0.0376437790752886,-0.039090291409415584,-0.011267491041700597,0.001234705871640734,-0.02048396659657715,-0.01441011431764069,0.04733110300811259
0.1415172,0.02580559340491445,-0.04644144835122861,-0.018190087337337867,-0.013627238705692067,-0.009829035408149295,-0.038355441846363546,-0.018486355069860048,0.025239696702457227
0.1419828,0.026802981380651326,-0.04749351043308296,-0.018326771910658447,-0.01457999341927737,-0.020424486677646785,-0.07925530144463512,-0.017211514927896288,-0.004928308186265707
0.1424483,0.0233411313958616,-0.04585953744866145,-0.04268631922020097,-0.015391117963010133,-0.020852618929684916,-0.09209727366519777,-0.017583338415336238,-0.02025469382700782
0.1429138,0.020888318442888156,-0.04551765504325311,-0.07591347982698757,-0.017319856892931897,-0.016340888183369515,-0.05729447538212238,-0.03227267982698757,-0.025712265994821456
0.1433793,0.02306665782628678,-0.045644416062496675,-0.10277647282858475,-0.019002678913143393,-0.01800607347886034,-0.019074787594667315,-0.04385237997334209,-0.030115606971049636
0.1438448,0.023311193149451768,-0.043159896931657775,-0.10826697697531118,-0.019439436537269754,-0.019765183111995637,-0.014647272223245772,-0.034452906969113906,-0.03716445923601308
0.1443103,0.02270325044467559,-0.03868485251982834,-0.10289055340917953,-0.01994499970354961,-0.01996682275875183,-0.027376047664137298,-0.023869355484332274,-0.04033529881419843
0.1447759,0.018612749815080536,-0.030827146098358103,-0.08528277332578105,-0.019404171005898366,-0.018267774722620804,-0.03141217825286936,-0.019190180389386982,-0.03185916468197028
0.1452414,0.01558295110299809,-0.026915509016059932,-0.06499026242109181,-0.02288711131809372,-0.01424401621772713,-0.00902737476621294,-0.011450225233787059,-0.022974794313001267
0.1457069,0.0152743,-0.02975326314927053,-0.04455625541725062,-0.02334639327761858,-0.0041243718366244944,0.030613788338034995,-0.00033197865914401175,-0.028864967888577918
0.1461724,0.015017649181497863,-0.041837275136417024,-0.026365302182672364,-0.023128816620155233,-0.002359601637004273,0.026568066347321184,-0.005731494484912708,-0.027461733785978555
0.1466379,0.012407443291621158,-0.04947447783839364,-0.009228476794903281,-0.023747149451541542,-0.010551761824808863,-0.014897189689915784,-0.025962121130014802,-0.020622752623540373
0.1471034,0.010987128208302267,-0.03952013168000257,0.011841066826670738,-0.0249004014983614,-0.01503615989082219,-0.0382685509891868,-0.043949273760001926,-0.02163091930666688
0.147569,0.009195013228335838,-0.01345461884304805,0.02741089749867254,-0.02631367687599559,-0.014357320622676951,-0.03591282776581005,-0.04720925900585412,-0.03116893563064169
0.1480345,0.012783454086513876,0.010904621486347434,0.02419527885813138,-0.024082144429708022,-0.01235774024369197,-0.010190583600414603,-0.04213390328527007,-0.034435066472322626
0.1485,0.0119173,0.035872063846057615,0.03308958766445511,-0.02576000664822659,-0.0035227987624905643,0.022157603873717728,-0.05190796107154875,-0.031819369671676485
0.1489655,0.012300870041490632,0.04349711366183241,0.04606370304630913,-0.02258854039157969,0.0028063063779373504,0.032729899794267714,-0.07051988481501303,-0.017672065289573987
0.149431,0.01134652271257687,0.043598770897221494,0.06398617761073198,-0.02692307728742313,0.010541541011961907,-0.004822555863097729,-0.07729610252990478,0.0013792654719624706
0.1498966,0.012159909498952385,0.031695995591577195,0.04586405802904774,-0.02883166410400188,0.006991117823585719,-0.07273904745473521,-0.07150939284968572,-0.0033435520075847146
0.1503621,0.015688962308290002,0.015193267815562366,0.0023306287495253814,-0.02766345337003033,-0.006198963273700712,-0.1040389856920817,-0.03804253906211204,-0.028329088722002634
0.1508276,0.01758517072877343,0.0031276555540040844,-0.03975340897120132,-0.02732426020816742,-0.018596154684704283,-0.091325583441414,0.009387800514516839,-0.04580037930176751
0.1512931,0.019999322545096537,0.0023255777774470856,-0.04840362818320533,-0.02802691951952846,-0.025742987687544686,-0.05361184800340053,0.03750412912895932,-0.04810673298792076
0.1517586,0.022126236153271167,0.014432901900167648,-0.03956865129879965,-0.02769969454323871,-0.030978587308180604,-0.031033422114825557,0.043721403678464464,-0.04254400586641252
0.1522241,0.022315859736260664,0.02451085990089528,-0.04439857995044764,-0.027854954944685133,-0.04064054042837396,-0.03519100553324118,0.04205077165058588,-0.03479514765730084
0.1526897,0.020728417040024073,0.02616988266731066,-0.06016797496770385,-0.02858819595949293,-0.048085309588711496,-0.034545912999517,0.036595573371264435,-0.04485245759064347
0.1531552,0.0172885,0.01875856879440157,-0.06877757057560008,-0.02969734103325721,-0.054838013420628454,0.0067579945222858194,0.026163947164400313,-0.06757657675171277
0.1536207,0.01699803947306669,0.0029865792958934548,-0.05474844245749332,-0.029764094579252692,-0.06558148404058645,0.04062055018661296,0.01940859984858581,-0.07602386840746714
0.1540862,0.017335537425142836,-0.011445809056857058,-0.03837338188628588,-0.02900262193114287,-0.07087616841314277,0.027207088465611082,0.01562492836828578,-0.08259039034428564
0.1545517,0.02051541549424484,-0.016909486555221055,-0.023764409888199892,-0.0253886927709105,-0.07705360755823157,0.010710021496723617,0.012734766516970959,-0.08686476204427113
0.1550172,0.019816517961700173,-0.00800450738687095,-0.0225220428851096,-0.028023922041813448,-0.08537339837632102,0.042501607693233245,0.016692757540052096,-0.07035438293045483
0.1554828,0.020241044477688704,0.0010510748067422148,-0.016862335625984513,-0.02774093246393944,-0.08282649217545496,0.057782960600074554,0.019805642896666167,-0.050686649417388895
0.1559483,0.02002218976325442,0.006544243314438125,-0.007605003134378169,-0.02654465905301768,-0.06400703052306295,0.04558986360075549,0.014701357546071141,-0.03398370454773781
0.1564138,0.019668322007445404,0.005688610037227009,-0.000247774688526496,-0.024517632044672413,-0.04350004551107022,0.025707954424387905,0.013304978554509263,-0.021021361347271388
0.1568793,0.019187238976522296,-0.0033666152933170667,-0.002167001769993595,-0.02140185808915693,-0.026850508464783446,0.020912786417828035,0.02689005679108598,0.008773039861519094
0.1573448,0.01856064444690485,-0.016246943975048125,-0.01042418638087006,-0.018755033340714555,0.0017234489344964432,0.021723338322306527,0.04015167226773973,0.03382663282457051
0.1578103,0.01740132431025465,-0.02773099329774469,-0.023088264381950545,-0.01609548592580914,0.0669718,0.002418963205072674,0.04962153951033739,0.04122357256857718
0.1582759,0.016441748151113076,-0.05279753458545588,-0.03098083179620196,-0.016438929490504902,0.12917929448008594,0.005042073298749013,0.06821052696977614,0.024829389380034643
0.1587414,0.018149279583770668,-0.06446944213317533,-0.027969076113077328,-0.014849280104057333,0.13694761503570263,0.022163924927496005,0.06915615782240966,0.0017384153846759954
0.1592069,0.018808794348827016,-0.0664943712213499,-0.01983868565643138,-0.0142672,0.11528711341912559,0.03145234514748549,0.0659455016888298,-0.008841149201341528
0.1596724,0.020739851448835042,-0.053013633728938546,-0.012157633254212291,-0.012121462423938852,0.08669989496606176,0.034061887457379585,0.05755337667741371,-0.011667370592910311
0.1601379,0.02261864213691458,-0.032096079218443076,-0.01145233437357081,-0.01459035081572335,0.07184116840547736,0.025620118289409122,0.049103386336895635,-0.0319622941550033
0.1606034,0.018878077567389295,-0.027881089977477874,-0.01814180296171239,-0.00937323599099115,0.04063302869405327,0.007185062697161546,0.026849482342522206,-0.05810776303517933
0.161069,0.01713184294726906,-0.03627113780979106,-0.02596738689059543,-0.007571091032016128,0.008905012953947158,0.004469237178907625,0.004469237178907625,-0.05251893219688703
0.1615345,0.017043410707356987,-0.0488916162647649,-0.030787198354501808,-0.004983268668344076,-0.037108542958764174,0.0065548063478229526,-0.00836744203901291,-0.03226894011539211
0.162,0.016013050338674305,-0.056910086669553675,-0.03542382213841156,-0.00239071173472007,-0.08370068400346442,-0.0219086242031449,-0.00910006839994323,-0.03306835253575648
0.1624655,0.01701106930048035,-0.06437234600461787,-0.046206856735574973,-0.002551846547063347,-0.09907515911196874,-0.08506792410118263,-0.0023358362187663384,-0.02461262042168484
0.162931,0.01663143012589921,-0.07279707599414352,-0.05866077316071485,-0.0022393375836038706,-0.09268378112914566,-0.12511982381133996,0.005133524163961294,-0.00398812534351841
0.1633966,0.018007971494960816,-0.08208961113819188,-0.0692312125791743,-0.00012255713194180001,-0.08237441101632845,-0.14054272322991246,-0.0035510547374306496,-0.014474431263791327
0.1638621,0.020639359746292364,-0.08237398457519168,-0.06378361536675185,0.002322888739728854,-0.08055809413409991,-0.12424933079156017,-0.02341446377536447,-0.044335592710744505
0.1643276,0.02186318030786795,-0.07615073316959323,-0.04565355404902406,0.0047673924588509985,-0.07406503924508476,-0.09509526588480728,-0.04027135796277964,-0.05860650639069135
0.1647931,0.020162048454243738,-0.06440688139429102,-0.03160236495258429,0.005796392809650807,-0.0560008009841441,-0.08905846497576432,-0.04639136293793601,-0.058720356675097105
0.1652586,0.018478925551815722,-0.0479957003880643,-0.03901919978065931,0.005210200016872361,-0.020658248796642586,-0.11636885032750284,-0.04666382449036518,-0.06489214983971256
0.1657241,0.01825622913441411,-0.025951325520587935,-0.049172963692445636,0.006059336748132071,0.004878792060484832,-0.14117239206048485,-0.05660576248549302,-0.08271903526989434
0.1661897,0.01670058419464663,-0.0015002931651167822,-0.05169314169625041,0.007555613601851798,0.005634185350989319,-0.1384824719056014,-0.06890149447792332,-0.08342592720370359
0.1666552,0.014486186137632823,0.01951730720145519,-0.06286423111302933,0.009750411108713327,0.0009933588377636913,-0.10223188231368259,-0.06003727102216841,-0.07392196382071323
0.1671207,0.014366955551425569,0.03348564390885541,-0.08152636742896262,0.007793336893538522,0.0035062901580762357,-0.03202277252614967,-0.02842683766822443,-0.07442559055357303
0.1675862,0.014147468914305635,0.03783878160207823,-0.08158787715306888,0.010161734328452751,0.006045178874120101,0.018543138806490143,0.009639213662484254,-0.04137648231938976
0.1680517,0.013313329927919131,0.03248506479510134,-0.0630273407206524,0.009609986479510134,0.0052884729590202675,0.029342329431019866,0.02349457428310286,-0.0222162015628568
0.1685172,0.014687642395575936,0.02111154065131866,-0.04030112543734556,0.007565932172203472,-0.0010276099709513279,0.00846974065644363,0.026405776054490578,-0.05305180848936513
0.1689828,0.017454540968724182,0.02061922420609831,-0.03857170212694643,0.008775180313032802,-0.01546651967215431,0.01837783962519983,0.027653490961737776,-0.059016385113055125
0.1694483,0.018764157333246913,0.024365382800025925,-0.048601574695898785,0.007404922933298765,-0.03414218776375223,0.06777133913898935,0.014408353970724676,-0.020894599615200807
0.1699138,0.02074305346743472,0.02711374894632072,-0.05223976379366845,0.004646015212162837,-0.05547137387192354,0.14976776831478245,-0.01890759275873369,-0.01309033578309821
0.1703793,0.020004889582205216,0.026001205208897392,-0.03458190046207945,0.005226394479592711,-0.08754783496925277,0.20916693841739017,-0.06341130995571534,-0.015991884373307824
0.1708448,0.020670782318257315,0.02573146965782908,-0.012362715586192495,0.005732182318257315,-0.10128737544032027,0.1636501429169267,-0.08369193488417555,-0.01661566894780613
0.1713103,0.022717286304620887,0.028387922135350865,-0.001190428854398988,0.006270100313889275,-0.10043015911583233,0.03246467276071902,-0.06740547729218378,-0.04958527276071902
0.1717759,0.023449513875545402,0.03553449809598964,-0.008165371698173163,0.0072175,-0.08642284442390075,-0.07587741339872703,-0.0154329153799182,-0.09114206625474255
0.1722414,0.02173782130741742,0.047078616446653856,-0.006977876628591322,0.0072175,-0.06792613557890506,-0.0939962932306467,0.02446074219285684,-0.09210357926996211
0.1727069,0.02072784456854501,0.060380034058575206,0.011061298732216363,0.005116417569528875,-0.046869689490030196,-0.07407942934728232,0.047079715988250066,-0.04644754723030636
0.1731724,0.019263327509692202,0.06112563023932743,0.03770850946585322,0.0076685765021089125,-0.03736217358719967,-0.06095286957539856,0.04748830764783585,0.001988263012579378
0.1736379,0.019770466932487858,0.05194439441775496,0.046593876241978444,0.0078889,-0.03204509760760927,-0.06476116812868322,0.04427839634208418,0.02013771409427205
0.1741034,0.02015750241979668,0.027946159097302734,0.04822808093825575,0.0053901209145500945,-0.03390725718523274,-0.058923773678865705,0.05407684765436062,0.026200186048210745
0.174569,0.02074143025368923,0.005320247814501126,0.04328049040366694,0.004723571688870115,-0.04875020024093709,-0.03927412041641908,0.07349661348545664,0.04371524932989169
0.1750345,0.02242807527238838,-0.02390633605801451,0.030071883756750444,0.0048873002858284935,-0.06425095695755263,-0.012989176564739573,0.08636105281916062,0.07908701156247094
0.1755,0.023831572690690347,-0.04514052798147761,0.02221968527077103,0.0046173136546548265,-0.0551608048198224,-0.0002830740260274039,0.07062076867568033,0.08910409424724673
0.1759655,0.023456639231584534,-0.060137318986439314,0.011198223416378113,0.0008960145815020955,-0.0067812886147323725,0.012398708859877585,0.03908775193353945,0.042392867690764474
0.176431,0.023558645142925865,-0.05113407442382177,-0.010864651207333369,-0.002426876325669892,0.07001025491255546,0.04496359721046133,0.027043621176693598,-0.02248322195392592
0.1768966,0.01976710036747699,-0.045267351675162104,-0.03828232014680767,0.002108856654356393,0.119391927420645,0.06802222792556849,0.023675046328490813,-0.062487345961013824
0.1773621,0.025774143567035928,-0.03797334831904339,-0.05182212730704687,0.001484197579669638,0.10997958723259277,0.008306259925545895,0.021612175934065392,-0.09323735344332136
0.1778276,0.024462855617589783,-0.038105296363301004,-0.042635425736629644,0.00045365267107120975,0.061265489460331495,-0.0792896439687185,0.0066790394106962855,-0.13474966514732595
0.1782931,0.02458067897909141,-0.04374923417463405,-0.020981595706692648,-0.0017731354649544535,0.03733022978952266,-0.09611108498506529,-0.013755436035843296,-0.1619150381373993
0.1787586,0.024352477528143575,-0.046029106529558036,-0.017257188658789054,-0.0015249775281435739,0.026855513485025087,-0.05440587009296421,-0.03046518191388747,-0.1182460802055385
0.1792241,0.024671683378008045,-0.0451514,-0.03521733198440024,-0.001211766313183643,-0.0009760319844002397,-0.027325723667316656,-0.04458218229320855,-0.027060566313183643
0.1796897,0.02471125300744454,-0.03875773888266699,-0.05492345812799338,-0.00038083356611104326,-0.04055682067820247,-0.027429165001012876,-0.048138568724895456,0.043975805120548835
0.1801552,0.022393813592389816,-0.031245070214595227,-0.062263676595134924,-0.00195261773008995,-0.059036663239507535,-0.018934591613383154,-0.04072149007630816,0.054297948815807295
0.1806207,0.019361934344775074,-0.025787524996794025,-0.064082858334402,-0.003165405556267994,-0.0508504357306361,0.004411483722713827,-0.024652051379449078,0.06672893371630188
0.1810862,0.015873246122052168,-0.02814726050202341,-0.06420898982484011,-0.0029508294116456545,-0.010770251634317628,0.031552231372826804,-0.012572049390687425,0.09384192208043551
0.1815517,0.015236127649428732,-0.03596215884694487,-0.05836408574286975,-0.0035274937330427047,0.04214120497615752,0.02377338703366952,-0.026783671488963434,0.07000949244224293
0.1820172,0.0161792205646857,-0.0526445143895562,-0.05970315058094373,-0.0025815621470714383,0.09898900617512948,-0.016706507005900012,-0.0631878748750866,0.0079855444810724
0.1824828,0.020800684837098755,-0.06422974776349147,-0.050790709338294875,-0.0029522243704425367,0.139144320007226,-0.05019937842158358,-0.08587051273929487,-0.01651489903778347
0.1829483,0.014255156483408808,-0.07992559955920128,-0.04320804263499376,-0.003536843516591192,0.12978510050199213,-0.04072566574628222,-0.0766257838006336,-0.01017256065874844
0.1834138,0.013771889739481336,-0.07091227742352602,-0.028063881251192028,-0.004163186452253183,0.07434090396093736,-0.019385206574456307,-0.0325767660644872,-0.005951803686062359
0.1838793,0.01655975412141777,-0.04732154142328266,-0.019152569414278512,-0.003808673974130569,0.041384966924105364,-0.02826790445529957,0.009721391056206811,0.0033527623642533064
0.1843448,0.018003642035730807,-0.030716902094111886,-0.020115161357153872,-0.004410258095713084,0.045355622845751634,-0.043428655870157304,0.0192269506493864,0.007684426107192423
0.1848103,0.01828265410124526,-0.006252450104206183,-0.027720915477272998,-0.005222673957386126,0.05958005848011313,-0.02840524791477225,0.010619689434659125,0.018440823853179942
0.1852759,0.013215102980190378,0.012105468137027698,-0.03242148853879941,-0.005541045928352164,0.04922915654702403,0.020350975270695012,0.011483155795001832,0.02178376809177444
0.1857414,0.00944480234431422,0.025576119719800807,-0.034030771700724,-0.0062307372127712495,0.025147254266495486,-0.004683936498246909,0.029824763179990738,0.0038212592768862774
0.1862069,0.010366802803286458,0.02571043932441922,-0.03275026347025922,-0.0052629337307583245,0.009587063470259225,-0.0795119556995774,0.03357068603521579,-0.024891530940383887
0.1866724,0.010009522851325595,0.011383218785524226,-0.02497860406580137,-0.007711116756748536,-0.00027422285132559603,-0.07492217817131223,0.021100621302144757,-0.04967268527202715
0.1871379,0.015596701873460399,0.0036230811501921545,-0.02024366282017341,-0.00765146801731292,-0.011351070755913139,0.03490094743722544,0.0038130049886689597,-0.06264313509789564
0.1876034,0.015704783544049358,0.012868293682772987,-0.016913017171524776,-0.00824775611198797,-0.019309229395500716,0.08822321854120296,0.0005233914142376125,-0.0803300482417997
0.188069,0.014120138178951054,0.018243490256200555,-0.010706083033794396,-0.00894134118120705,-0.018363864217575805,0.04429573153588434,0.0030740000328255803,-0.09692223882394167
0.1885345,0.01611760706455749,0.030912925965798133,-0.010615371549317701,-0.0036722339763337005,-0.008290090450558344,-0.021791761839278317,-0.0035166068669148193,-0.11009682710941887
0.189,0.015918533186807138,0.03795238252743926,-0.0085603,-0.005915450219789293,-0.0016532277924091712,-0.07089547651329063,-0.019083433536299686,-0.10693939648337132
0.1894655,0.015317557871091457,0.034647018291003015,-0.0085603,-0.006816913193362814,-0.004808392955301938,-0.1019958148354208,-0.03651162818128355,-0.09251598890619499
0.189931,0.014651956055283237,0.0241404249121734,-0.01509491141952602,-0.0068818,-0.01359268289312146,-0.11854821803501749,-0.04710116647728337,-0.06067196012345637
0.1903966,0.015908054384252367,0.01523512048823251,-0.03280199369785747,-0.006714382043795576,-0.022884732511212598,-0.1203098723404568,-0.03842521468633994,-0.008387074291179897
0.1908621,0.0152743,0.010500085979145797,-0.04877006876047164,-0.006858747643992377,-0.02844860119180491,-0.10880073714334852,-0.025731878883520735,0.011605039715755714
0.1913276,0.014418186578536009,-0.018530109417355105,-0.05571568545156546,-0.007409552632754264,-0.03118255748166692,-0.07587151960564514,-0.014415211241391735,-0.03726473499888345
0.1917931,0.015394882715148961,-0.07055790715878303,-0.05708563368557923,-0.007852725185455312,-0.03668471876849353,-0.027343242399155546,-0.014996959755157387,-0.08103092585612576
0.1922586,0.017937472151721423,-0.10608696962556138,-0.06041081009491025,-0.008863673925112277,-0.04212275242735783,0.006130862334393558,-0.01712314102451363,-0.052303079532597115
0.1927241,0.01951941306723576,-0.10433081102981005,-0.06736572432694708,-0.008081722059620105,-0.03528686544951339,-0.006504146656111574,-0.012976132782605277,-0.043650676748867814
0.1931897,0.018601791913589485,-0.07347597772307385,-0.08074278598744183,-0.0067637676543579415,-0.025872706956676747,-0.035550853314876965,-0.007523691913589486,-0.08835518862359286
0.1936552,0.019276405563304483,-0.0405125262590806,-0.08691542414021684,-0.005233655911918641,-0.028168344088081356,-0.029743383004033945,-0.007347041085499618,-0.08156013565800153
0.1941207,0.01935368688129927,0.0038223765274788698,-0.0887752846965738,-0.005462519678051089,-0.034396582859524835,-0.009265763983759076,-0.012971101609744554,-0.013795462253642376
0.1945862,0.02000939402943527,0.05478081791169419,-0.08941107618977458,-0.005980582088305806,-0.03967523135242409,0.0024462985003995685,-0.02975693265228352,0.02244947321841071
0.1950517,0.0193027,0.09051733991558193,-0.09296051974674578,-0.006257039915581928,-0.03892234033767229,0.0015339199577909639,-0.042438231280554475,0.016903717223116087
0.1955172,0.019388371969299996,0.08651583917819611,-0.09419226023025001,-0.006753292046050004,-0.03693733181579999,0.0018463,-0.051702874141698094,0.013312907059625963
0.1959828,0.020174971641160836,0.05877833692892429,-0.08700554233781178,-0.006791914427440559,-0.03387527015303497,0.006744229846965029,-0.06384693223202677,0.010310326870713295
0.1964483,0.023252901868277533,0.0078889,-0.06535410530514309,-0.008219861364157383,-0.027710655429998787,0.0085603,-0.07654729367566976,-0.00922441514595352
0.1969138,0.021008305645316035,-0.014002054424039019,-0.0322793993322146,-0.007377933747716076,-0.025107173233170757,-0.0025711823038439274,-0.0764683179187512,-0.03191348888275556
0.1973793,0.01803582890128742,-0.014460533310086092,-0.0038260494334840874,-0.004626811126609273,-0.021388555787557936,-0.016642059453854986,-0.06658219335193112,-0.04076243771888477
0.1978448,0.01616359838769419,-0.007972685614099492,0.02485520064492232,-0.006005773485427112,-0.021153748226463612,-0.031056526209229357,-0.04181026037225362,-0.008537074130349437
0.1983103,0.017159879146939165,0.002776136992852286,0.03690633199219642,-0.005336718726269779,-0.024658685871913912,-0.03928190812743857,-0.008259637280238766,0.04154758569961312
0.1987759,0.016296651331844964,0.021630102022331163,0.03614860532737985,-0.005493246004465108,-0.026871186681550363,-0.052949102601189645,0.025552088641381244,0.06266932196875548
0.1992414,0.01675502281256022,0.045733913113103986,0.049413871071074825,-0.005279449169686174,-0.030117592092089404,-0.07057832984009674,0.05056793595646168,0.05247132206310413
0.1997069,0.017753543059487703,0.058665370804312555,0.07677068174623622,-0.00626742528360334,-0.03327452211417487,-0.07103297105186443,0.05277745306287687,0.02117520977306163
0.2001724,0.016982281550738776,0.057831187850481865,0.08090930825122099,-0.00603095299273213,-0.03633105920201574,-0.05150672257370705,0.037047369401220644,-0.026095832549092597
0.2006379,0.016195602723317205,0.03674613289333147,0.05839224257233422,-0.009612838089269125,-0.030496671589733626,-0.030376692813226545,-0.007744451079113268,-0.08333768585754099
0.2011034,0.01717915786505194,0.025023140463969626,0.035292222759666605,-0.010209521067474029,-0.02511096853979224,-0.024685425015872318,-0.03852734352391992,-0.10609415226673621
0.201569,0.017802268793047117,0.021563612629593085,0.03526589409300872,-0.009968128212681811,-0.022570614668670337,-0.0145273148898045,-0.04695282517763531,-0.07578271635792382
0.2020345,0.016359084499137796,0.02417943108928463,0.04575188937021503,-0.009811288868839032,-0.023550523062392224,0.004181373745778984,-0.026192960847809352,-0.028457015311961122
0.2025,0.018769059278610754,0.02432105657340108,0.040257534056745044,-0.01044543891791613,-0.022823111160842798,0.014435,0.009112032788246478,-0.017676207566380765
0.2029655,0.019965178842125047,0.030201118934072062,0.024908065921606517,-0.012337749671072432,-0.02133474231574991,0.01437701380255243,0.0377872436575189,-0.030122530512821603
0.203431,0.019497196534741447,0.035143087951477386,0.007060368972437671,-0.015700980030040106,-0.0222236250879654,0.012911949504539912,0.04986988976398899,-0.03684964455586316
0.2038966,0.018731120155916388,0.0279184793990387,-0.0037470142541977196,-0.017987231179771784,-0.025463462806494974,0.017651531179771786,0.04078083184884584,-0.022695849443893766
0.2043621,0.01810978154193153,0.01064025111675651,-0.014557762267787412,-0.017496115008568597,-0.025234322312897295,0.017141685396760354,0.02877560730161982,0.013890962675825236
0.2048276,0.01735233602536008,-0.00941844927415981,-0.02294322821521832,-0.015319186751200272,-0.025073336025360084,0.011402501380230036,0.019536762257021056,0.02480259695373855
0.2052931,0.01561,-0.027664976967964317,-0.025665844498346614,-0.0135958,-0.02231908988054569,0.013421621771854658,0.013322144787500982,-0.010521463100745651
0.2057586,0.012413453704693555,-0.040018007421888435,-0.02629287270196535,-0.014350398217248511,-0.022923989012608583,0.01809354718668219,0.009121760383760981,-0.049707107570443165
0.2062241,0.009909503199231135,-0.044623576364714077,-0.026039827554506848,-0.014579672445493153,-0.02049561351691433,0.010796261308164357,0.004857085763095875,-0.05767462837415245
0.2066897,0.011173654981733486,-0.05249521036369476,-0.02665589004020645,-0.014922545020103225,-0.017432994819070975,-0.007021935868112098,0.0026140298793806502,-0.04961328445721293
0.2071552,0.014167517795354832,-0.06586511779535484,-0.02901889710353344,-0.01669674004486861,-0.015614152187950418,-0.03405263163678912,-0.0016227437174689472,-0.047143168644531074
0.2076207,0.01700023812082203,-0.07288480825187446,-0.03279293940409333,-0.01982960696860317,-0.015332728448808838,-0.07824183115221886,-0.0065113906116021775,-0.05041354665870034
0.2080862,0.015345727377800595,-0.06365930220312502,-0.04059463282009156,-0.020254566386755702,-0.017329649976709924,-0.11398152564176724,-0.009556616456625935,-0.04299868743595229
0.2085517,0.01293040283697935,-0.046437916043330384,-0.046156504643056,-0.019873595144273663,-0.018828293848343645,-0.10713511712659007,-0.011654914747400366,-0.01938712593500442
0.2090172,0.010905956176944887,-0.02943337503517727,-0.048694718768178574,-0.02048050000562836,-0.017298431122068348,-0.07950932498170782,-0.013632774990150363,-0.025436250014070908
0.2094828,0.010584606926833938,-0.014099846896519618,-0.053033124130412064,-0.01987402097764571,-0.01659112403184012,-0.07952832848805995,-0.015900490503980014,-0.06886287606673183
0.2099483,0.01376926812026205,0.00769759069710585,-0.05240928722698123,-0.016652749205134078,-0.014407856336974527,-0.06061046395761534,-0.014874836630254743,-0.1053464806951414
0.2104138,0.013748325149745676,0.022272415396681348,-0.051520594574791884,-0.020465870522398108,-0.012253,0.052663930544178096,-0.016484402413112706,-0.09199543459207402
0.2108793,0.015249521407175254,0.03553010917368965,-0.04795468118878032,-0.019584390097951498,-0.010203127767654037,0.1305678007047273,-0.01784655245188054,-0.0582469204615611
0.2113448,0.01674382186439745,0.01622888069876598,-0.040434761591633624,-0.021350124427560874,-0.013441959068312026,0.04093043739801624,-0.014847359028470194,-0.05106953460090932
0.2118103,0.016874376321669445,-0.02216328634887532,-0.040247628373718036,-0.01970791325693115,-0.014276316779545857,-0.07912307597812795,-0.015391132093429509,-0.06176485092992787
0.2122759,0.016645524199212048,-0.04752854305817586,-0.04472111592529548,-0.01986648496672565,-0.015380645863041716,-0.09663022651034271,-0.015658511207584894,-0.03437382660579197
0.2127414,0.01761975527246868,-0.044176183220419905,-0.04515748374534256,-0.020565767807898195,-0.012296404244150582,-0.04719919637928319,-0.019788949070193015,-0.0034203867426256056
0.2132069,0.016857040507263946,-0.02738727866711015,-0.04445502206672921,-0.02060956248398292,-0.010879523079480802,-0.02378327526393848,-0.02460148905664563,0.014913619586298896
0.2136724,0.01663826216328994,-0.018150626202221718,-0.0350452297278501,-0.020094017874661117,-0.01226005405442998,-0.015560621618990135,-0.02451508482597399,0.015445993759827225
0.2141379,0.015180007915652449,-0.020283380935341235,-0.027320202744523226,-0.021411192084347552,-0.012827836833739021,-0.019202687402048967,-0.021799701448944716,0.0041132633252195915
0.2146034,0.016071692077129728,-0.026813164842879884,-0.02693998415425946,-0.02083365149865676,-0.012405055681752777,-0.04727087226995405,-0.016218403961435136,-0.017918451002860655
0.215069,0.017915085463730135,-0.0377928563012729,-0.029543768708493363,-0.0216526,-0.01268266045396387,-0.07673385630127291,-0.011680062504883133,-0.029892668825688574
0.2155345,0.018479957897588814,-0.044243802909114074,-0.02690608473992881,-0.02144449897386654,-0.012555684204822368,-0.08413069104918397,-0.012707026307233554,-0.038508351320780426
0.216,0.02062296568982748,-0.04214478056927208,-0.0199184276808331,-0.023808973704537634,-0.011991529758889202,-0.06621777548507948,-0.021565998614629267,-0.051194
0.2164655,0.022220357728726395,-0.03376651526192861,-0.02676247498652805,-0.026456546316907498,-0.0112229389507225,-0.03255747053526,-0.0273181929694125,-0.050812115527489446
0.216931,0.021149336306703112,-0.026979087484992646,-0.03845717901169584,-0.028094277836498902,-0.010942226417476303,0.012024476661301969,-0.02296327596757117,-0.032494742670339125
0.2173966,0.02083272369318315,-0.028392701701202974,-0.03403465001193563,-0.027581559294787117,-0.012043386390376214,0.04804550588044554,-0.013736844434207902,-0.011867862820851538
0.2178621,0.020045541671334717,-0.03481932092987372,-0.013592720741460998,0.02341973565996116,-0.0129244,0.052594033577404345,-0.007266670728237844,-0.010032149905793637
0.2183276,0.02192045859520327,-0.04369312294825593,0.0013528028789246997,0.1444486136555183,-0.011541576561918692,0.008785480873115812,-0.005779140628487845,-0.020038628419621823
0.2187931,0.023449216522937178,-0.04705629931045447,0.0015056331322900558,0.18954674482662845,-0.01093007339082513,-0.03906441456791539,-0.00944815965504923,-0.02615356905174139
0.2192586,0.02394597190829848,-0.046089051035625835,-0.00470699458262919,0.13822671443805776,-0.011091023458744676,-0.06002649012094574,-0.0182927236915748,-0.017676288662834647
0.2197241,0.02394484125493517,-0.04377706472315706,-0.01727095639974334,0.06664408138232508,-0.011679767501741826,-0.05508244139161482,-0.026757435692323757,-0.002409875154097905
0.2201897,0.02452364426817441,-0.045241388735097865,-0.03220876962445615,0.033152230995567425,-0.011610145272026832,-0.04742993681993292,-0.025449461371111277,0.0031754177229604396
0.2206552,0.026598319522890886,-0.042492554632018335,-0.04283674564612727,0.028579195473235244,-0.012253,-0.04912889789260003,-0.018213184970054648,-0.0014330432605816985
0.2211207,0.028445023701204268,-0.030093255149057068,-0.04310056052874347,0.02765588267732887,-0.012253,-0.046226934183821865,-0.010034923608952535,-0.010930379034764797
0.2215862,0.02798270833665965,-0.0014004757187050074,-0.037517007821323785,0.02108910010667405,-0.012522412344978404,-0.027112438683769797,-0.004464546913755399,-0.048283410340819025
0.2220517,0.026627082077706067,0.019982446746496393,-0.0339303080253476,0.012381851449807604,-0.013635461792229393,-0.02861718729439547,-0.005597067454394247,-0.08609237128980883
0.2225172,0.024668094722027165,0.03366128409127427,-0.03361740243044129,0.005226495288731869,-0.014514968018411052,-0.06901378319680959,-0.006877130520419563,-0.10315088409127428
0.2229828,0.023535484967858733,0.03944796728974826,-0.0364233,-0.005799193890448576,-0.01517261655952912,-0.11013260933139635,-0.004487043569035936,-0.08580492999733295
0.2234483,0.02323405571529338,0.05147204893467917,-0.03699775571529338,-0.0066198071176654764,-0.013401911430586761,-0.09647203785059302,-0.0018625652645667908,-0.06695378945675909
0.2239138,0.02369012302948902,0.06411447093839524,-0.03616564667562077,0.0021430231735048524,-0.011378568944451231,-0.034455772500291776,0.0027050842359121656,-0.05251722411875865
0.2243793,0.022991328584535106,0.05201696823114144,-0.03234172192324611,0.0023049992770796577,-0.0091991480463781,-0.009624561076314013,0.005281075615350779,-0.04223569108097441
0.2248448,0.023256705208272034,0.03369312046904836,-0.027403979530951642,0.0019678902114545213,-0.012021318905553831,-0.03265630078174726,0.005195872291437111,-0.025538377967457112
0.2253103,0.022813304015757003,0.0207951376848059,-0.02372736834011258,0.0005763221524921582,-0.012849535675644421,-0.06206380906836758,0.004808955789268225,-0.015296528616438322
0.2257759,0.02209602979185474,0.019425136357032934,-0.02361372357875362,0.0019794700321067223,-0.013816057429865952,-0.03430658704568215,0.0059100489592737015,-0.04021141916741896
0.2262414,0.020455497194978283,0.03241835369178045,-0.021289514254085592,-0.003026493018238805,-0.013902863367326865,0.05461086977446567,-0.001825545449537984,-0.08472871946232932
0.2267069,0.021243112215221103,0.06119815475361186,-0.026173671368458072,-0.012328433373914052,-0.013049328476712207,0.08933488336267432,-0.022859050044327298,-0.09647645714134169
0.2271724,0.023481163103168074,0.07217750456297634,-0.030357117470890767,-0.029260790091775773,-0.013074563103168072,0.023346420272910718,-0.04791390208623453,-0.0796556730113923
0.2276379,0.022232179821653993,0.05939445800119538,-0.028485313249043416,-0.03597868811231886,-0.01120274806040773,-0.0721329792973684,-0.058798016557299174,-0.08198974780227003
0.2281034,0.02137866286459578,0.039654428719253475,-0.024387646929175624,-0.04568825837011839,-0.00995535090434814,-0.09873332470935087,-0.05830863351801166,-0.06717529566704752
0.228569,0.021146240372556083,0.02325164491079168,-0.01635549130394629,-0.059683059850673306,-0.008941520297892736,-0.07629204491079168,-0.04622698052188278,-0.01087662067831022
0.2290345,0.018878871260453463,0.005822750676239506,-0.01029160967791766,-0.06889719560235083,-0.01142249530814439,-0.05951653753484487,-0.03410974306980207,0.01787279526862666
0.2295,0.01566745498108917,-0.009832784106562555,-0.013235407934001596,-0.07585526420764013,-0.01276058542454618,-0.04881181660363056,-0.019123213485501285,-0.0005927686183187825
0.2299655,0.010517232540059552,-0.033859334090483514,-0.024298014483953512,-0.08383124769792259,-0.012463751447911248,-0.025053137660215535,0.01674308670595716,-0.020344158770052443
0.230431,0.007924473107730081,-0.04890931387676665,-0.028200505982048853,-0.08685738504487787,-0.01141560598204885,0.003236523901245492,0.03885990212976104,0.0067269609808133166
0.2308966,0.003742081701885779,-0.05508461417539227,-0.017723426381124303,-0.0909642910641523,-0.011186509362266516,0.0013740963544724392,0.02287761941493683,0.05196408191509518
0.2313621,0.0032492259680719604,-0.05314306685632383,-0.007322730409331267,-0.09202894806385607,-0.013355296127712158,-0.025573209505424688,0.0044717850070262214,0.06989789289718966
0.2318276,0.0018272841908363955,-0.041198425350983385,-0.0035504003741084833,-0.093492,-0.01573359992730112,-0.04843818910714406,0.0002761425111831562,0.051176440255918186
0.2322931,0.0016949425517740547,-0.023984959506255506,-0.010415375738160652,-0.09327078893787114,-0.01784730825682062,-0.03385706061482234,0.014808566452325249,0.008154736714271148
0.2327586,0.003327896755457636,-0.009961206489084726,-0.017450429548033906,-0.09136213948257478,-0.018179936037118635,-0.015517557806245008,0.027243736037118636,-0.021027462139696397
0.2332241,0.007242795372634245,-0.002637316707416411,-0.02216536007332722,-0.08729880415694329,-0.013800315766571465,-0.007566927846622121,0.023698863063501552,-0.022652739844245186
0.2336897,0.013219053322650942,-0.0009816893354698114,-0.021388144667734907,-0.0842198903402769,-0.011337668006409434,-0.010775215467806404,0.021001712727315023,-0.007320106082013134
0.2341552,0.021397083241795532,-0.0053506572059124685,-0.022544292889289046,-0.07816086141002594,-0.012142038589974053,-0.01556329678416883,0.03651073080021448,0.003793439948071277
0.2346207,0.025082058073746114,-0.016495204176909996,-0.02737197875398135,-0.07447522577876166,-0.015726092917993782,-0.01543392776224145,0.04950098838525077,-0.003419352975219691
0.2350862,0.026339847074648832,-0.032954235195121695,-0.03415209219906355,-0.07081790975117055,-0.015703806412334625,-0.016762042996058147,0.048831647074648835,-0.016758045302537182
0.2355517,0.027609923203338424,-0.04933012270795283,-0.042337217238869754,-0.06186706536310983,-0.01796156513170337,-0.05663367403591292,0.02228385215958062,-0.01860959005260503
0.2360172,0.02801533358223587,-0.05214696753782554,-0.05924762567832175,-0.06121086753782554,-0.018967,-0.09045702103478148,-0.005084129848697828,-0.023165430595405438
0.2364828,0.02525441750625712,-0.050452626982137705,-0.07376107211852599,-0.05741153851652528,-0.018375599786832696,-0.04754650375535388,-0.014026629207144918,-0.030681413491068853
0.2369483,0.027270605721745587,-0.04789951986844876,-0.07643293354354773,-0.05370141828104065,-0.017103620984252655,0.024034888074948167,0.00043951970580974597,-0.029629317484158407
0.2374138,0.031761245566699355,-0.052060615976992165,-0.07544627754703312,-0.05488379729326665,-0.01828398571334466,0.043147799973650564,0.020006038423371685,-0.020690842833616573
0.2378793,0.03407075544721234,-0.047147037031628765,-0.06294344260083795,-0.054223232083286874,-0.017954612469500787,0.03260369926801886,0.027602569003801807,-0.013282493698809666
0.2383448,0.031848537506563204,-0.021486641131864607,-0.03990532342048045,-0.05133788798526881,-0.016631173423591272,0.02259318697360733,0.018628549990667518,-0.0036051197951790423
0.2388103,0.031132175654681207,0.0005149508223549732,-0.020565388271764237,-0.05513280661853753,-0.017050069924990943,0.02349883594056997,0.010481040294405523,0.005851806309984546
0.2392759,0.0326288176157677,0.00836406764581624,-0.006263496880521633,-0.05332704272180679,-0.0176242,0.026065657278193207,0.0009864672092584547,0.013041218987276532
0.2397414,0.030234446308203225,0.010823819353236192,-0.0007575258456089518,-0.051811518509143006,-0.016379923142319713,0.02432895557455663,-0.004778225869172754,0.01198203433856058
0.2402069,0.027633300641307985,0.02122848358444536,-0.0052754167751813815,-0.050853227441432614,-0.015147822974745177,0.02118019170793311,-0.009159171466999013,0.004178515774246656
0.2406724,0.02586072545910726,0.0408794496982592,-0.013306128402603708,-0.05010259953459545,-0.012805109874186342,0.020224605710734575,-0.01731235802516273,-0.008173508654231023
0.2411379,0.025618903824283862,0.05125599617571614,-0.019130750122230707,-0.05167123541085937,-0.011226009267827602,0.023459130382428386,-0.01730604305942709,-0.017076780504659095
0.2416034,0.023095866285182863,0.05377903371481713,-0.024429053796834934,-0.05469888045778056,-0.011099819812118617,0.023206826628518286,-0.015287613028146291,-0.022122780425353223
0.242069,0.01745326668256723,0.04725266712837906,-0.027910531485655247,-0.05750385752533665,-0.012147308217905235,0.017940260742251343,-0.014018567128379062,-0.02439398445581319
0.2425345,0.011471252043144461,0.029521984076015844,-0.02457777243354533,-0.058645610740978425,-0.011562267155507651,0.013920376614866198,-0.007905228753042606,-0.016936471246957397
0.243,0.005255626567131184,0.0043512689357716955,-0.019999662128456608,-0.05915953107795941,-0.010400007893889111,0.0093143740218458,0.008710520330565316,-0.0020950305209412913
0.2434655,0.003410444671280483,-0.00712525581680834,-0.016724089342560967,-0.061962217460207324,-0.009678078929166344,0.004074478685121933,0.028779635652547885,0.009766586882552244
0.243931,0.006027046589159627,-0.007445110849681152,-0.018377479623119905,-0.06350354322240033,-0.009678756777599676,0.0021877671147556505,0.0526465271103987,0.007491762789323392
0.2443966,0.008953962612164903,0.0002063242683554437,-0.022349586051426548,-0.0622721,-0.010781055286771559,0.019118280447661083,0.055086273887921255,-0.009505525034008963
0.2448621,0.013159152536532923,0.016978799470538968,-0.025294049013896577,-0.061697412746525855,-0.012059574506948289,0.043656989932555804,0.049814022078099054,-0.03286911376749432
0.2453276,0.017842341690384175,0.05356846902870364,-0.026990095467482277,-0.06350576410146892,-0.013411147733741139,0.0632958146053847,0.02573172467643555,-0.0506903924458038
0.2457931,0.02084610176791993,0.08374248233825103,-0.028628510055229057,-0.06473453437068265,-0.014230355027614529,0.07066859890705249,0.004159347280962372,-0.05342108342538176
0.2462586,0.025699098645196386,0.10645010355251691,-0.02909341554388686,-0.061832695604573405,-0.011639047678401935,0.07202760770017395,-0.019173721189886465,-0.05359444882937388
0.2467241,0.024309063935069947,0.08932494488013892,-0.03266749016450662,-0.06417904098267674,-0.01631547377056333,0.05996515901296029,-0.04564867346035397,-0.05732874590042344
0.2471897,0.027584117759285882,0.046740138582008796,-0.034903102013259496,-0.06025386820027834,-0.01645985981085509,0.045462910402682744,-0.06169449321771287,-0.05190879632169843
0.2476552,0.027708037678890365,-0.018484923976689265,-0.041768639314457415,-0.04693995899874377,-0.019200335838396258,0.03251927009245724,-0.06851547356851839,-0.037564497060189134
0.2481207,0.030445264683399635,-0.05849943402107238,-0.03906328848563028,-0.0375253602835237,-0.017168709055620433,0.018068809312960375,-0.05596710607777712,-0.02996774411488086
0.2485862,0.03278261095809719,-0.08490762140011908,-0.040636714002912605,-0.022622173455989495,-0.014485974488140093,-0.021654433029391507,-0.043726114794412956,-0.03743575917765183
0.2490517,0.03746527486965715,-0.08887715895529538,-0.03953885220766052,-0.0038479825747744223,-0.016943492362898938,-0.031653385379205465,-0.04411703824027358,-0.04197249051595031
0.2495172,0.02654298495783932,-0.09657645391677239,-0.0408563152504703,0.007684808790290347,-0.02054025186979901,0.018300079796196782,-0.03174857912258822,-0.03923730199829367
0.2499828,0.019015055845061954,-0.09372532609587303,-0.03552323794445944,0.012487425194807045,-0.016963222150486644,0.027060234595641292,0.0005509608499768265,-0.032055725949837785
0.2504483,0.01639653206655265,-0.08947269532382184,-0.03183863206655265,0.016720114554449515,-0.015728766080547282,-0.022765042726118206,0.04548467868755482,-0.03250523053711193
0.2509138,0.010304856159944007,-0.07750790271974801,-0.02218637852018948,0.02657409020000675,-0.015324853199831767,-0.0496435579600355,0.108176566280034,-0.039815360280077
0.2513793,0.008483213286476431,-0.06495222710806871,-0.014814777355441448,0.03593887532471778,-0.0161492531805904,-0.03154219564054388,0.13910308375130692,-0.04279061724955542
0.2518448,0.01407692120600637,-0.05140306670523015,-0.01511912079413143,0.040289309792900525,-0.017255776646222916,-0.00785739129463205,0.12825079429344707,-0.04370689211838193
0.2523103,0.018764666978236352,-0.038721448770736425,-0.019619996797482577,0.05106753607953848,-0.021549129519622387,0.08711840451429094,0.10470800350214125,-0.04129094286163778
0.2527759,0.02262094304692004,-0.023574281342539395,-0.029534665927494583,0.05494167912502314,-0.024348711840414036,0.20156496749652766,0.08345597918517135,-0.0635564622927156
0.2532414,0.026378971324758763,-0.013910860018119468,-0.033695300111519055,0.05776016035267664,-0.02448296711677667,0.18854620376190587,0.07540306144694552,-0.09254680622742645
0.2537069,0.03029565363088092,-0.0036579267963576354,-0.03506220319371828,0.053651892205661376,-0.021945676815440462,0.047027973830762085,0.062040669268307404,-0.11706049606466502
0.2541724,0.03613366065362221,-0.00756336495312385,-0.03065289655503482,0.05302534757826313,-0.022466672684181014,-0.0895606187168157,0.03725731915078876,-0.12353181915078874
0.2546379,0.035000731128130014,-0.00011876895309632712,-0.03209926302106681,0.06122200716536484,-0.019305808398700167,-0.1799435466109687,0.0003110003873021979,-0.09718968628065633
0.2551034,0.034631304403801993,0.004832434722086894,-0.02870784556131406,0.06325361935778268,-0.01717819928236726,-0.1674400137587609,-0.029455173437652245,-0.06475618944982132
0.255569,0.03132106874556858,0.008687631325334209,-0.023862806307608512,0.06555418389507665,-0.02349578440823568,-0.08298261328702117,-0.03816648752658854,-0.03917971871011718
0.2560345,0.027300880344984655,0.006988090577330934,-0.011862808992990172,0.06099955505387471,-0.025749527838328304,-0.006749659637508514,-0.02635566565360144,-0.02857572672356907
0.2565,0.022174709092192386,0.005418969197187641,-0.009937118623750242,0.05670704863344247,-0.0278767505734374,0.03505741384810839,-0.019918888528447212,-0.02577653839437528
0.2569655,0.018015230867075054,-0.0009641064326624073,-0.01629089050012031,0.05113159380089152,-0.02931594203372895,0.039390302568212715,-0.020911104733991485,-0.029252922099753862
0.257431,0.013836054067988419,-0.007832348996967428,-0.026513772819708407,0.04775626505072788,-0.030963842867055735,0.023140111057141,-0.019791491938424704,-0.03756616340664764
0.2578966,0.0078123976544755246,-0.005603466483040715,-0.03460124269125336,0.042662504826319135,-0.0284544192392743,0.0034953782766653325,-0.009164026068043892,-0.03847922855210426
0.2583621,0.003948160221742058,0.0072175,-0.03561960949110507,0.035145035050043676,-0.02384699417124679,-0.015698343766668295,0.012085883544926236,-0.0404517
0.2588276,0.0030730527571071736,0.013725628274711004,-0.0344091,0.030239130442692,-0.020000330442692,-0.028753336946634997,0.028340269557308,-0.044170538124887346
0.2592931,0.001711963673153597,0.0072175,-0.03442694764678502,0.026647363818774965,-0.01639294646326975,-0.03314097883033738,0.03176471515718378,-0.0404517
0.2597586,-0.00022262773807201915,-0.00487457336295012,-0.035053086130963994,0.022851379229106156,-0.017788683214216058,-0.029489989047711926,0.0270782920297802,-0.022186834737910367
0.2602241,-0.0015106,-0.012404706384074201,-0.03401932978805565,0.01728346248335148,-0.021739202701909193,-0.024078253192037102,0.01219892978805565,-0.019443372913853542
0.2606897,-0.0006327383108072055,-0.012536685067578384,-0.033719829009028236,0.014768359355618882,-0.020489455202735152,-0.017839597184678674,-0.013904693513542357,-0.02957112619370691
0.2611552,0.0016501857795521587,-0.009765598126006969,-0.0329732809663668,0.016139844773093444,-0.018206634319280327,-0.010875893312821613,-0.03992176564342234,-0.030906491420179916
0.2616207,0.0035815250393483205,-0.005783584913433695,-0.029282484913433694,0.01437837496065168,-0.013549154897694368,-0.002368825626798392,-0.06169834706417218,-0.0197674530932211
0.2620862,0.003832540431646391,2.5458038921222513e-05,-0.02578765760657663,0.011317071737717755,-0.0103506413021279,0.00034844804286468566,-0.04993013608503117,-0.00559474304309092
0.2625517,0.004858402329631717,0.0036573038112900696,-0.02397768313194053,0.006770858714348459,-0.008888283979913895,-0.0055079616046176255,-0.000632836626388106,0.0010240136904543882
0.2630172,0.008938626630898963,0.008574466268292861,-0.02135844666938962,0.002241591718054472,-0.00782748942459222,-0.011607161543743453,0.050156620780040594,0.0025106301054985654
0.2634828,0.007677525265007606,0.0374144746641238,-0.022403840692890253,-0.0034837260971368167,-0.004566968682186706,-0.010877340877709453,0.08059695228668323,0.0004911790526710678
0.2639483,0.007266411271588576,0.0856398766711927,-0.02477162254317715,-0.009262834536914318,0.002402100722148591,-0.005965843642057121,0.08272966329663992,-0.016547112118194682
0.2644138,0.007947778604714552,0.10774130181255594,-0.026291339541736944,-0.014461348984721756,0.004967808964225477,-0.002931897011924841,0.06706701029802208,-0.04138902711067697
0.2648793,0.00881179276327857,0.09040753196784976,-0.028479823280813325,-0.017885454643582776,0.0030304474068613436,-0.004669361760483854,0.04507619529351777,-0.04154091893977071
0.2653448,0.0060320023708682795,0.057801647804718255,-0.02959417211656725,-0.02239839332463921,0.0006560185602648336,-0.00434228477741556,0.007372360465566557,0.0014863488576013569
0.2658103,0.006725724413572314,0.02425810084329958,-0.03398404052411571,-0.02612437464814339,-0.0004141420528991737,-0.009116679893605375,-0.027574949296286774,0.041031728396237394
0.2662759,0.009858813124489033,-0.005229524352842811,-0.03960661997946514,-0.030053161830174657,-0.0006131712737795134,-0.018811382502133288,-0.029104933503716086,0.037294594130248986
0.2667414,0.01337775895316417,-0.034496977742937154,-0.04354748527841173,-0.0315009952948028,0.0024322481610366212,-0.028018867515909193,-0.009777006297567238,0.014005992675162315
0.2672069,0.01835893057769694,-0.06066484689990906,-0.04772147199206306,-0.03414786136700011,0.004870816825244824,-0.034266606200181876,-0.006984712188757532,-0.01278190620018188
0.2676724,0.024388619387800403,-0.08204269523186532,-0.053059654081615226,-0.03666097346941563,0.006664936734707817,-0.03279891734690741,-0.02906172244913989,-0.03140861020412345
0.2681379,0.0283665,-0.09659936352808718,-0.0499709358143393,-0.03927085015230922,0.007605487233458878,-0.029943787185122212,-0.04234778697717712,-0.03443269939076315
0.2686034,0.0283665,-0.10334437518401561,-0.04035308603158779,-0.040270111138372686,0.0058567805078478035,-0.029319286276941945,-0.0374763524620083,-0.030435655446509266
0.269069,0.0280308,-0.10607310552051812,-0.026361969511656178,-0.04143445740573896,-0.0015643815081766788,-0.03412718150817668,-0.02112414152938004,-0.02641316011129965
0.2695345,0.0280652151303522,-0.10005082695528296,-0.02580073791409255,-0.04105426973929561,-0.005307165559072569,-0.03809365878048602,-0.012789774794320242,-0.027449708351765644
0.27,0.025255757302746748,-0.07396187035097924,-0.02810413309686443,-0.040595648140391696,-0.009410588947062294,-0.04247270172392183,-0.0022058518596083055,-0.027727326305889227
0.2704655,0.01843602671688659,-0.025623875723517837,-0.029266113335798993,-0.03813253358443294,-0.012737895073902546,-0.04217627820921087,0.002799706667899496,-0.020125472784157886
0.270931,0.010855612306950336,0.012145574329038978,-0.031177817861695448,-0.0404517,-0.01637320583554463,-0.04260733101104432,0.005805224754300426,-0.002344013364010687
0.2713966,0.006065789829823193,0.026783544914911597,-0.029806137712721007,-0.0404517,-0.021196168943201456,-0.047282452663370306,0.003478320340353614,0.012686830510530421
0.2718621,0.007582511062201815,0.025832999988185702,-0.028648558944943503,-0.0404517,-0.02187792270135723,-0.05108759446299194,0.0016394595337114015,0.008070311050387519
0.2723276,0.009505991142988975,0.018794085119302525,-0.023729792847218573,-0.04076746035763907,-0.02066543964236093,-0.05501972965625493,-0.004033414880697475,-0.006632708470982187
0.2727931,0.00940326958032271,-0.004839832545303428,-0.01745709391606454,-0.03836114548511997,-0.016851643650361275,-0.054901282665572974,-0.00912905581823219,-0.021805817334427026
0.2732586,0.004460148406092649,-0.029143117945656362,-0.012855063105011295,-0.040029021133471065,-0.01308313046043629,-0.050223383411968824,-0.005256812514779929,-0.03430327969304247
0.2737241,-0.001744296532908424,-0.04548080317255467,-0.017144209715595753,-0.039846413477224236,-0.008104966700442194,-0.03700045044652677,0.002961069969602026,-0.05356709989867342
0.2741897,-0.003377652581416577,-0.04949001417631034,-0.02189583115964176,-0.037322111820498265,-0.005135148006382793,-0.01799369927099565,0.005633906794255486,-0.06247655598085162
0.2746552,-0.0013030929531558132,-0.049267174519324136,-0.025192884746770967,-0.034043640048266,-0.0020222809372187284,0.00397819108714165,0.0025548656064657838,-0.04967655096135173
0.2751207,0.0027850737787642205,-0.054916938225433316,-0.026513248994276418,-0.03210717040578984,-0.00036431335498946096,0.011031743897204458,-0.0041607250718373985,-0.014710939087482099
0.2755862,0.008917796433326528,-0.06840839776326248,-0.030058042933224442,-0.03250830567026824,-0.00437057146661222,0.0048895775600148045,-0.011324332233204023,0.012242145593096323
0.2760517,0.024686231201947056,-0.07907954386733565,-0.037074258359685044,-0.03158020074559771,-0.008410893299393055,-0.00781534311196553,-0.01651067880704367,0.038253362813726446
0.2765172,0.04124297920741681,-0.08258728766504407,-0.04016110968273873,-0.03017708650784603,-0.010234983605141001,-0.023530138981442742,-0.01875566158744635,0.05452940437830433
0.2769828,0.061037462768508834,-0.0819927278757733,-0.03936489986838954,-0.02830957133456396,-0.012181880427060914,-0.04218161153332579,-0.01810204253751746,0.053480389620935716
0.2774483,0.06665503305423463,-0.07800955631679955,-0.03856371126335991,-0.0283665,-0.013406476838886093,-0.050016040740788935,-0.015652933790079728,0.03437478736736977
0.2779138,0.06462019428758982,-0.0710970474326976,-0.037295417715035924,-0.026938897143794906,-0.014737882284964074,-0.05290712342744611,-0.012990135430071851,0.007975198210536518
0.2783793,0.05732252404338906,-0.06710121956212617,-0.03304606738697662,-0.023796119562126163,-0.014649411956212617,-0.04221914048086458,-0.011721135868637848,-0.014069072570032634
0.2788448,0.04629233896339553,-0.06416169011680768,-0.024379451322736476,-0.019049146730490074,-0.013172507936418859,-0.020424068973023325,-0.011023913058040447,-0.03690067900554069
0.2793103,0.03911793551012463,-0.059494990683869355,-0.021767508984129942,-0.01690699748136838,-0.011317720789373339,0.005747035806768636,-0.01299883511324836,-0.044813844429379
0.2797759,0.03369026391612023,-0.04631268683338722,-0.025904305939622035,-0.015721702969811017,-0.01037901980283072,0.027101088961977084,-0.016862634507260554,-0.029584229408859675
0.2802414,0.03170401006414379,-0.030972272555024875,-0.02756639425440426,-0.01512764325471466,-0.00930502837264267,0.0013085658817615867,-0.018954001855335086,-0.008188712562903135
0.2807069,0.0314767464496263,-0.013807368249704972,-0.028455446449626297,-0.0157778,-0.010208144549980331,-0.06446117299881989,-0.016706046449626297,-0.0029820616009440908
0.2811724,0.028693527575401594,0.004841784099701814,-0.03124131549157879,-0.01693545515080319,-0.01244253106149601,-0.11468006308776965,-0.012373164487631944,-0.02092459068953651
0.2816379,0.02277400053903744,0.01933005590980881,-0.036194500403586266,-0.021160260231614842,-0.012265434100369147,-0.10002445205931464,-0.010862948344271633,-0.05662733497526727
0.2821034,0.0172885,0.021163102876983943,-0.03607899621396639,-0.02469512269867862,-0.01595429658215411,-0.05058942161695473,-0.006817853515602638,-0.06803711783092112
0.282569,0.015373382623253636,0.019182619933033274,-0.03261051993303327,-0.0261512354073597,-0.018808467802794184,-0.010357699147904364,-0.002390076460355522,-0.04965421567255509
0.2830345,0.018260900585925822,0.019741139890665355,-0.029622551464814555,-0.0274943200175163,-0.01946751963274346,-0.011221136375110425,-0.00034129707037088995,-0.019147813572332258
0.2835,0.029553934653161064,0.01956775347255789,-0.029118329904393017,-0.026717358221325937,-0.008170280562825151,-0.05460531943717485,0.0015377597185874245,-0.0013454512762101577
0.2839655,0.04726560545098388,0.01638746219599743,-0.029208954865359082,-0.02514451121140948,0.015868226812513406,-0.07302081675191477,0.0028476821982978333,-0.0019591249124201993
0.284431,0.06789725174836306,0.008557150877988614,-0.027662439726444613,-0.022939079149586875,0.037153722303088,-0.03149394588905501,0.002534030136777694,-0.014889609589666918
0.2848966,0.07664392533352363,0.0049027921818960265,-0.02618535121216446,-0.022390679515134217,0.04290357169703025,0.016729403117508344,-0.0010711258786408394,-0.029660161602659555
0.2853621,0.06942435642081654,0.0019203797833245663,-0.024622614467127327,-0.023040799757408595,0.04062246168518184,0.024378336931915316,-0.006324149393521491,-0.027308355450450926
0.2858276,0.05486468540019038,-0.004777022045119725,-0.023312279639767144,-0.024205580378472577,0.03640008856248811,-0.0003730777803470789,-0.009236100946181443,-0.017407806914080688
0.2862931,0.041197028490312385,-0.01303867983971761,-0.020351077107535927,-0.025033988537082344,0.029922557314588275,-0.03611616874413469,-0.011797914195099336,-0.015969162778951638
0.2867586,0.03764709807603523,-0.017360390229827646,-0.015566372296084471,-0.025960069334963067,0.025292153325184665,-0.037196550364063254,-0.019978248598780106,-0.029551589192671014
0.2872241,0.03249419473638036,-0.022177684883908654,-0.012778829226210585,-0.025061158454213826,0.02476927256433306,-0.014992520381503645,-0.021585540761214633,-0.0454054821954042
0.2876897,0.02841207915168843,-0.02507461952308637,-0.014754104651255718,-0.02071567804301159,0.025296002217353675,-0.007881670065725353,-0.015659871390950555,-0.056993456109422046
0.2881552,0.02526217042389113,-0.027664510978341755,-0.022154359152217733,-0.013094038244239695,0.016938896303662514,-0.014232239630366253,-0.010591980184816874,-0.07044600029333165
0.2886207,0.02148298032781933,-0.02522573434607158,-0.02750352975255357,-0.007434107539331332,0.0033772411858438607,-0.011681708036504505,-0.010106765700129128,-0.0626518114332903
0.2890862,0.010403391527897893,-0.01868639336213817,-0.031375713275392896,-0.00046983065398501086,-0.0053678915278978934,0.005890095196709211,-0.013321480786836842,-0.036893374716380135
0.2895517,-0.0016026669545456647,-0.007261303620514134,-0.032504364871401244,0.006367033092930404,0.0006675384787266758,0.0182163919852846,-0.021620063286555462,-0.015151298733016504
0.2900172,0.0006547047408407084,0.0024893496741127006,-0.030565609970324245,0.007537764814750975,0.007777387066650312,0.0028568654073560635,-0.029931597570410137,-0.009916744562968182
0.2904828,0.0057557226916240605,0.013929211267048233,-0.02623332269162406,0.006219552205502183,0.008809054047729258,-0.039410921418419606,-0.04573215087613955,-0.008069013869615328
0.2909483,0.009887560356372935,0.016989555060262566,-0.022468176840929173,0.0020264002649933756,0.004407892613538254,-0.06807886840929174,-0.0517711073637167,-0.00036214671960533467
0.2914138,-0.0018431163473851115,0.014512616280211318,-0.018111917774898737,0.006812124549637847,0.002866077251810767,-0.06182239322526089,-0.02953200583540119,0.002910398198551386
0.2918793,-0.019987475784341187,-0.0025508953332565214,-0.011634856039835658,0.0043890428739315965,-0.0008922970625760158,-0.03841086901014953,0.008194692778311785,-0.014566301916208554
0.2923448,-0.030523763795280524,-0.01116232087761962,-0.010456935824476075,0.002173503736714114,0.002299564175523924,-0.03361163956119019,0.011816728351047847,-0.03342512870215413
0.2928103,-0.03466566686476487,-0.02263924055560395,-0.014563080147689516,0.00047983283171155203,0.010157558196219088,-0.04718927069386097,-0.006907076318593418,-0.04493405346930481
0.2932759,-0.03776029021878957,-0.04206022139895272,-0.023269731940105565,-0.00014007499132079134,0.017079004225655597,-0.04633941168106647,-0.016465971525607612,-0.04853323251006238
0.2937414,-0.045926542648578934,-0.06045741204536687,-0.030358748214900994,0.00014934972035242,0.01604497090223936,-0.028601958856872493,-0.012896713585129557,-0.05262907888673559
0.2942069,-0.05830946519845556,-0.06900743740868438,-0.0353708835327082,-0.00014539394304734148,0.0069051947344732755,-0.010912157325788895,-0.012454422438263881,-0.05410323633314947
0.2946724,-0.0706414920106188,-0.07498969580738096,-0.0443948315119511,-0.0010050251810440225,0.0003567331704252253,0.0020547651711006537,-0.018118265078233192,-0.05633745114489137
0.2951379,-0.07208047774340089,-0.0778217956560536,-0.049164748861690435,-0.0019173133548686296,0.00446088664513137,0.0035538633025456587,-0.020147860746820977,-0.0603385967420402
0.2956034,-0.06439761907492944,-0.08799053887544946,-0.059869309047317396,-0.005208849876217356,0.009290134475573399,-0.0023210684560162225,-0.010792466014573922,-0.058783873841170176
0.296069,-0.05224298998181963,-0.09038875099038352,-0.06465894236486053,-0.008927562522725462,0.005334423747727453,-0.013655289177271884,-0.0008872431485116032,-0.04574752956136539
0.2965345,-0.03803069637835647,-0.09091655435257694,-0.07671233694226919,-0.01882361882474353,-0.003953754836763224,-0.03401219805394692,0.004559288157388864,-0.033033660143305166
0.297,-0.024060136127027294,-0.07937860306413547,-0.08254673225883566,-0.030352680726767927,-0.01048547083342085,-0.05691658381902443,0.003404567096465738,-0.033450410538045684
0.2974655,-0.008863670367858513,-0.061118510587678906,-0.08042021248652292,-0.03359370215679235,-0.009196817532541032,-0.05392051837369466,-0.009352645720069643,-0.03530542989008981
0.297931,0.010378756304833653,-0.04580958732486573,-0.07474575070053707,-0.024034212407769782,-0.00407973235563926,-0.03218838612568911,-0.031104950700537072,-0.032426708471911835
0.2983966,0.02313463093117625,-0.03628381490901429,-0.07315433923325394,-0.014491402755665076,0.003552487864192021,-0.01966684198891902,-0.030128963539952366,-0.04257738890717477
0.2988621,0.029663344902906685,-0.026818216547283672,-0.07427930754849389,-0.005880446098303521,0.01811683412610739,-0.018952982257319492,0.0050973754854665735,-0.056937891868893455
0.2993276,0.034788045855443636,-0.016075709876486814,-0.06555333265554526,-0.0020953721340347727,0.040170044416732914,-0.01905362786596523,0.041805311463860906,-0.054172054144556364
0.2997931,0.043942355967334236,-0.008065688528582544,-0.049533375176356025,-0.0015232277520416102,0.051612846839976856,-0.01962577224795839,0.04409388899183356,-0.045017744032665764
0.3002586,0.06689582163190197,-0.0015106,-0.029731249280674873,-0.0008914933842012311,0.051951708894171424,-0.02817342355598091,0.021897519957055907,-0.03668659543481638
0.3007241,0.09662839228096005,0.0017514051327064029,-0.01813901580788554,9.247232621013092e-05,0.04149794604802861,-0.034247747403676296,0.0015663604802861413,-0.0337377
0.3011897,0.11585711371330569,0.002182,-0.013710374499270093,0.0009948229418629687,0.029340704033785248,-0.031829890606465086,-0.006357872903343888,-0.031117571142440053
0.3016552,0.10693023038921043,7.3990172802404996e-06,-0.014523856863198396,-0.00044050269553791335,0.029953402208092176,-0.023649506369881446,-0.0030584568592842533,-0.030701521078997995
0.3021207,0.09173729138912882,-0.0011567148500930533,-0.017081488994013717,-0.002683496182529382,0.04176232775149657,-0.02182188609603039,0.00421017751496571,-0.0337377
0.3025862,0.07895931974667192,-0.0015106,-0.01630549546138851,-0.004235493388251286,0.05096608422245408,-0.02033898941912529,0.023250161833159443,-0.03413454548612802
0.3030517,0.0684340377041206,0.002669937213481551,-0.009772616512598068,-0.005041577983202576,0.043181904678924465,-0.01718925504199356,0.044399750561342495,-0.026557516512598068
0.3035172,0.05291785002985052,0.003590432841985118,-0.008983653833903649,-0.006093528221461801,0.02924364236204322,-0.014559379446345498,0.037825139912275825,-0.025768553833903647
0.3039828,0.027467334332055157,-0.0013077299458542813,-0.012665849345883226,-0.008330341798068264,0.006740385449517066,-0.01485864095317985,0.011603097683274327,-0.0392417154771732
0.3044483,0.00939514948663886,-0.008788343429149286,-0.018812345126227543,-0.007746981827531283,-0.006068481827531283,-0.01721117577004171,0.0053794861879425965,-0.048391948816282886
0.3049138,0.002247818949991541,-0.007360555859998872,-0.023952811719997743,-0.007700308200721544,-0.01079719912499295,-0.02173795224500197,0.01618793242000338,-0.03654441621000169
0.3053793,-0.003678872341408935,-0.003146555046769793,-0.02742449534144327,-0.008156948835360818,-0.010842548835360817,-0.024806553223505213,0.01599080077642612,-0.034566952717491425
0.3058448,-0.008024147171731269,-0.0040982413755256,-0.0290379,-0.006636246233795603,-0.008618470968761656,-0.023841749613418773,0.008747090448233203,-0.06148967134469961
0.3063103,-0.009944195921792496,-0.01057120470075434,-0.027958876883467043,-0.008841210877896183,-0.006189741532311573,-0.01971361025534935,0.007354472805259539,-0.0918418438988235
0.3067759,0.009239261561226049,-0.01606845783543199,-0.02540313927488872,-0.010058114433798582,-0.0018206288675971653,-0.013602088556118367,0.015094096709370081,-0.112232284629849
0.3072414,0.024314464841031197,-0.018069646580977827,-0.02233475054179645,-0.011125393902985553,-0.0039551878059711065,-0.011334079943275784,0.02309861324663182,-0.10142611974515119
0.3077069,0.03272292977764802,-0.018834933773315587,-0.015182920552338663,-0.012059270210171995,-0.015484537084649806,-0.01065373973601065,0.02369534897349999,-0.05715736026398935
0.3081724,0.031361841029303436,-0.013898376554683754,-0.010143679766620508,-0.011745867762690161,-0.030867688277341876,-0.010825158613290616,0.013309117302714961,-0.014359405861329062
0.3086379,0.029545190904265828,-0.0036899965271241938,-0.006218961937870349,-0.01324783985581249,-0.04352950047912771,-0.011540055835884279,0.005752135068381551,0.00895728611683489
0.3091034,0.03154724894243495,0.0041751888811765135,-0.004359865446492491,-0.01310479311143673,-0.04810554794021547,-0.014972155329888479,0.0043220936125464675,0.009672349443544684
0.309569,0.035136563567889315,0.008010640127091379,-0.0030854815883285622,-0.011746132101673103,-0.048623504330437585,-0.01955281605083655,-0.004008783313706559,-0.0009580501853443764
0.3100345,0.03952298885127536,0.0067205150437425415,-0.0034724806824400537,-0.010714032034994034,-0.04526917911373061,-0.019036766017497018,-0.010975458763790275,-0.011795024023688282
0.3105,0.04894842466212127,0.004052757474177461,-0.00365520582765159,-0.009877018834469682,-0.03972813766893936,-0.012350614358333003,-0.013771657854923958,-0.0260166
0.3109655,0.04975312193347647,0.0023499,-0.005252875058107461,-0.009530218706419404,-0.03920805011621492,-0.005315915930433174,-0.007610042144103908,-0.025613804498835255
0.311431,0.03867704794489919,0.0023499,-0.006518722859004661,-0.008580832855746503,-0.04173974571800932,0.000380304904330999,-0.0004896953986937689,-0.015328838251182116
0.3118966,0.02364439312585786,0.001346547537112182,-0.006072374630949386,-0.01020891249566174,-0.0445099019483665,0.008634970331485022,-0.012944916859697606,0.013901598051633495
0.3123621,0.022072640647677725,0.0022646403656301564,-0.0038824884438879385,-0.00786781797902529,-0.04884158073126031,0.017450355039607398,-0.05322189020283277,0.04802256889310068
0.3128276,0.022224170444155922,0.001453553849733134,-0.004233459257705897,-0.007978400354994253,-0.0462891407422941,0.008835844229277861,-0.06690078414158496,0.04058326466567866
0.3132931,0.018549504140240636,-0.0005867681761264315,-0.008177529514672589,-0.008409070744618516,-0.0393251457019024,-0.012330673110242307,-0.05880398251631466,-0.01858686837899472
0.3137586,0.010250170075003721,0.0023917826250914693,-0.012504845545822301,-0.007770653137521937,-0.03305770459692622,-0.02574283730716373,-0.018037099924035144,-0.07051953124165204
