Time,Rectus Femoris right,Rectus Femoris left,Hamstrings right,Hamstrings left,TibilaisÂ Anterior right,TibilaisÂ Anterior left,Gastrocnemius right,Gastrocnemius left
0.0,0.06382345390598415,-0.010370795051865032,-0.03604360164937832,-0.015302011545648257,-0.00954455051865033,-0.018587301649378322,-0.014394332987566446,0.0
0.0004655,0.06729177509064946,-0.00849945542209434,-0.03318869237015723,-0.015899890762984276,-0.01170328915581132,-0.01950097228895283,-0.019912552207748426,0.0
0.000931,0.07488539416879479,-0.008141827129188366,-0.030523905831205216,-0.013750175786414243,-0.01274085619565554,-0.0182956,-0.014768543075443806,0.0
0.0013966,0.07872845366898414,-0.009734057721835977,-0.03272821544367195,-0.012352994633101588,-0.014364810076773543,-0.01784200228103461,-0.006443720810570369,0.0
0.0018621,0.07014555892763057,-0.010956060180945294,-0.03526374107236944,-0.013305860355239424,-0.01777693113939252,-0.0182956,-0.009139988726561299,0.0
0.0023276,0.046399101511071086,-0.012068368147668868,-0.0367813967875673,-0.01373147757671941,-0.02257295836587152,-0.018413104443006607,-0.010382843407739713,-0.00013846930599315226
0.0027931,0.029705621322613986,-0.01138819485254885,-0.04027562430529898,-0.014464283824837164,-0.02215430359672291,-0.01994220143195676,0.016658145261508273,-0.0012925080450266909
0.0032586,0.02613845330617469,-0.008275602626045271,-0.04562136621025256,-0.014978390241786372,-0.018785405034925526,-0.021314417419184425,0.051123145956841316,-0.0026843179390034022
0.0037241,0.02675579601659578,-0.009583493092536687,-0.04656040741763615,-0.014286570290455937,-0.010180689128632188,-0.02185901591411716,0.04484147823776466,0.00012590688796358952
0.0041897,0.0193027,-0.007774673438227667,-0.04408510466727681,-0.015657945610991292,-0.0025882543232454824,-0.022106709203027177,0.006957982150481859,-0.00027503760766493145
0.0046552,0.006305878452019676,-0.007099155272866545,-0.04272044285619886,-0.01698106135858592,0.001994869075478104,-0.02318439391428062,-0.023688092961841465,0.0
0.0051207,-0.008096247862211888,-0.005959259080600656,-0.038931446173006104,-0.01757588258151891,0.004386947744556731,-0.022695841662119565,-0.029322760652151284,0.0
0.0055862,-0.026392958234802807,-0.0058747,-0.03154840990364706,-0.017784538260892314,0.005173444149958887,-0.02330114414995889,-0.024256174725349466,0.0
0.0060517,-0.050620086428041555,-0.006242407209133841,-0.024651044427197025,-0.017947097879058467,0.0051705871617755755,-0.02663679151623386,-0.014503327887987806,0.0
0.0065172,-0.07560787982760572,-0.006904058167173869,-0.023965989541793468,-0.017822264043315075,0.001807701488037582,-0.02950904247986407,-0.0023043842157093493,0.0006371775955493524
0.0069828,-0.09540704204478405,-0.007245101704565175,-0.0275846931817393,-0.0167319863634786,-0.004527420454782101,-0.03099241704565175,0.01462153439199516,0.0
0.0074483,-0.10791345885276035,-0.0071871229023653446,-0.0294814762921812,-0.014359061780354475,-0.009658531292903966,-0.030562962585807932,0.023911268707096034,0.0
0.0079138,-0.1038443768227348,-0.0069050429208742945,-0.027226460919452508,-0.013828229208742942,-0.010132884503388409,-0.032278685395628524,0.02236774806011192,0.0
0.0083793,-0.08538511677976626,-0.00754667600357602,-0.026417539964239803,-0.0142704610265116,-0.008250695985695923,-0.03400163603933621,0.022356519982119905,0.0
0.0088448,-0.0589930197144251,-0.007585422535696862,-0.029293043660757846,-0.014820399716301176,-0.005990115499756071,-0.033128108446576675,0.027438838585611972,0.0
0.0093103,-0.03560005888745641,-0.008412788382844013,-0.03158697753084236,-0.01561,-0.006697466278002476,-0.030635222286999587,0.04104192228699959,0.0
0.0097759,-0.019082531166084177,-0.008546198894793995,-0.028830709549822815,-0.015751011052060043,-0.010450316578090061,-0.02991809005314596,0.03970434142408178,0.0
0.0102414,0.001087110702123196,-0.008941857936615377,-0.024039832303607008,-0.015267834385535597,-0.013642883994436627,-0.030788712491571522,0.021149640498988737,0.0
0.0107069,0.015679440077184182,-0.011234399614079085,-0.0193373401832628,-0.01530894707831564,-0.015494266538026363,-0.031989836330618686,0.004022526846763093,0.0
0.0111724,0.0258290182033656,-0.013178336458146688,-0.012899401459042587,-0.01509822608142807,-0.01704701524794542,-0.032714247291629334,-0.0017280300391268066,0.0
0.0116379,0.038976252685544395,-0.013488048178985003,-0.0005806020490945995,-0.014796853277826996,-0.018837697814782003,-0.03217939635797,0.005828260561886986,0.0
0.0121034,0.049727205996112446,-0.012573578143134825,0.010260020958527396,-0.015014209284325874,-0.02095095628626965,-0.03169325628626965,0.015425518568651748,0.0
0.012569,0.05397773062031597,-0.012269969241406001,0.01405508700986635,-0.01653225379296999,-0.020343738482812002,-0.031086038482812002,0.01846160758593998,0.0
0.0130345,0.04768904933924139,-0.011956352242692791,0.004477824008862082,-0.017507043271921627,-0.017343322426927904,-0.02927221345615674,0.015368174669620694,0.0
0.0135,0.025926326907899547,-0.010295844593000732,-0.0243381,-0.016725194056162334,-0.013755031661142439,-0.026665428762429513,0.011160949609573416,0.0
0.0139655,0.0005566238224587658,-0.008926556199449322,-0.0538252211648822,-0.016919542075135473,-0.012478595617008224,-0.028755232122361637,-0.003913532122361636,0.0008219476811896523
0.014431,-0.023169600261654443,-0.008765153311627097,-0.06435601498372032,-0.014801551754660037,-0.015349943440707274,-0.02821512165348788,-0.036194086660464884,-0.0022777947592765684
0.0148966,-0.03835118671458501,-0.009249321239195698,-0.05000799824219778,-0.01622853628241291,-0.015901644277459194,-0.027270892951829075,-0.051690985767709655,0.0
0.0153621,-0.047792897110416864,-0.00817600048159719,-0.023195774823045134,-0.017761627110631784,-0.014372052287586652,-0.026635622046573132,-0.03283545228758665,0.0
0.0158276,-0.04946203908931224,-0.007193879651679664,-0.017093041542696315,-0.017809575590967144,-0.012877071575012377,-0.025633571575012375,-0.00239191780542076,0.0
0.0162931,-0.029741148076832934,-0.006772520145240552,-0.029381596939006778,-0.017192566099242905,-0.011123312282477852,-0.023778627778770656,0.0031571154198819376,0.0
0.0167586,0.0007536921271606156,-0.008101366655401487,-0.03320140598960266,-0.01766695393641969,-0.009928249815055882,-0.023659155804658542,-0.008745102608015322,0.0
0.0172241,0.025315572031520246,-0.010414054091714607,-0.023399586212884467,-0.017930260429898922,-0.012214053357216608,-0.025511158620653614,-0.014549133572166069,-0.00033104066284818005
0.0176897,0.03237605671963685,-0.01151069134392737,-0.015346319491761075,-0.019585218507945527,-0.015432728359818427,-0.02340190865607263,-0.010804953132236046,0.0
0.0181552,0.0203601405803197,-0.010260604638351671,-0.013530377584515446,-0.020552351256513484,-0.016206648743486516,-0.02372045623212788,-0.002354025265774247,0.0
0.0186207,-0.004340434235581329,-0.00853198747206119,-0.011726669873624578,-0.019700211749629538,-0.015233090802957826,-0.024775985308628463,0.012282596279948729,0.0
0.0190862,-0.028287193048617175,-0.008258550533273063,-0.017756290474335308,-0.01862749466726938,-0.014765042000904068,-0.02732925479945756,0.02445897826347229,0.0
0.0195517,-0.05361970916013429,-0.00816396138461757,-0.02707136714549476,-0.019056835328626523,-0.014817317608062666,-0.027573817608062667,0.0052304360408324275,0.0
0.0200172,-0.08053809743159783,-0.008800402929093131,-0.034834668499165104,-0.019556456166388368,-0.010754236998330202,-0.02988684904113191,-0.031197942242304634,0.0
0.0204828,-0.09461266275769672,-0.009184100062666916,-0.033847321948697155,-0.019281543772060483,-0.005853543772060484,-0.031728790632515706,-0.052393997036939095,0.0
0.0209483,-0.08679921891666387,-0.008016888450821016,-0.03048164201502184,-0.01894681394666756,-0.007155536670825716,-0.031023736646664204,-0.04640761651917529,-0.001478965750824373
0.0214138,-0.05866321755517234,-0.0071387768297290315,-0.029369568317490425,-0.017295435772972042,-0.008610065244593547,-0.0297093,-0.027073465244593548,0.0
0.0218793,-0.007818642257424771,-0.0072019019851587264,-0.019279262318201932,-0.014548240272266044,-0.011308353393836899,-0.026079068727454847,-0.009665037606442209,0.0
0.0223448,0.03601202977254938,-0.00830017022745062,-0.0077194545003913635,-0.013731826409411115,-0.01232857022745062,-0.023331,0.00025412050053679977,0.0
0.0228103,0.07152814442556492,-0.0082246,-0.001107207617903126,-0.014181013211368446,-0.011854331243907359,-0.02189265693240986,0.01716728611381895,-0.001590927742651203
0.0232759,0.09828387834108235,-0.0082246,0.005638519491205856,-0.014624742365516263,-0.008599999219147786,-0.020689184731032526,0.03203971532724909,0.0
0.0237414,0.12393368845488453,-0.008275151429668965,0.010018439293145867,-0.013528398093774712,-0.0038183763183614384,-0.02178739879294609,0.0290508269026815,0.0
0.0242069,0.13454513880184682,-0.009362874641488095,-0.0018327575548118908,-0.01220052910138513,-0.003397338835024157,-0.02449551269584461,0.00904946484149443,0.0
0.0246724,0.13343565107971,-0.011443122808023625,-0.0229129416504697,-0.011368413309782503,-0.009360794029038614,-0.02699186007065249,-0.009811743809889709,0.0
0.0251379,0.1268614605900885,-0.012900121239615349,-0.051495722786979246,-0.011738996292890491,-0.02026603798142436,-0.028345690519503502,-0.022944701487925524,0.0
0.0256034,0.1212569067119964,-0.010994061192469323,-0.05637651439869342,-0.011588586350956385,-0.023051385076707568,-0.0283665,-0.014959307986245228,0.0
0.026069,0.11218633470164757,-0.008261305669322472,-0.03407722470771564,-0.010247976417330617,-0.019932042621062546,-0.027392280961606837,0.008081604763942977,-4.12925112291672e-05
0.0265345,0.09374103425584175,-0.007926837695415405,-0.009100669137537898,-0.00957887851747726,-0.014559223045845966,-0.026974295088178356,0.02369034519910434,0.0
0.027,0.08137018012466687,-0.008201369793374146,-0.010551269793374146,-0.006708711446380983,-0.014626130206625855,-0.0276951,0.016538066808994056,-0.016404617612107864
0.0274655,0.0676857859917381,-0.007961901450688431,-0.027788573660886447,-0.007015635992928791,-0.016100221261704045,-0.028372585266393895,-0.010710559652624558,-0.026865530190175065
0.027931,0.055938768801879195,-0.00756688151609414,-0.04320570554271138,-0.007005234053814384,-0.012842310903435163,-0.029013958365714916,-0.04393837195616788,-0.030476470612658978
0.0283966,0.03914677926096043,-0.008332069759065131,-0.0474398775391393,-0.0053834241122578015,-0.008724058629247399,-0.02775553024093487,-0.05734100780354885,-0.032694819883152426
0.0288621,0.024987073662283876,-0.007665045666669687,-0.04051872873353251,-0.0019358332513424083,-0.008515483681794764,-0.026184478180093774,-0.029328783681794764,-0.03813537163542664
0.0293276,0.010661922719041123,-0.008364472900442331,-0.033388005151548154,0.0007587747051847984,-0.013917505151548158,-0.02541514904756718,0.010189843225110582,-0.037787092272677764
0.0297931,-0.0015341144936382852,-0.008931271740457427,-0.031187926804074576,0.002070928123180242,-0.022112273059563096,-0.0223297803745634,0.009367526804074575,-0.02280068696182971
0.0302586,-0.0129764462885959,-0.009127607422808205,-0.032832092993302586,0.003643641756167884,-0.02877116470892221,-0.020671521852313822,-0.042989835515644954,0.004473348571321678
0.0307241,-0.019737155547113652,-0.010399656199803254,-0.03398249378132713,0.0048850970820157325,-0.02720030453058933,-0.023100293819066368,-0.09734294026726212,0.008889019383688065
0.0311897,-0.023395134394457232,-0.010469423657934681,-0.0381195599343149,0.008213250987212773,-0.0210921928423183,-0.023952830512649792,-0.09350063797329808,-0.012515443644525951
0.0316552,-0.012215310339562795,-0.011738389417578682,-0.044786604272491086,0.014026970898341375,-0.01483303915107742,-0.024147169879621806,-0.028577633374149716,-0.037457566140133236
0.0321207,-0.003960916777893646,-0.013849150463417892,-0.052364259281956205,0.013766802094964024,-0.007635549536582109,-0.02243762078861339,0.03168820734146481,-0.051431666005530494
0.0325862,-0.0009363941054841272,-0.016428374759729667,-0.053657442044607706,0.013839968865213794,-0.0017213402861872228,-0.019610630255575964,0.07107163859529528,-0.05650025294008666
0.0330517,-0.00310901234962605,-0.015962859935300774,-0.04869145748656903,0.015547072284926822,0.0010719335719350704,-0.01898988218582113,0.08767660323334989,-0.06255250039230907
0.0335172,-0.00024085604404864512,-0.014504626702582877,-0.04340866988970085,0.01720412230614507,-5.1357250995496065e-05,-0.0196384,0.08349236703092981,-0.06550374219839644
0.0339828,0.010770139449684444,-0.0142672,-0.037401501041325794,0.018486587866617638,-0.0033378989375960916,-0.0181173411177802,0.0549261127179961,-0.0662031893646555
0.0344483,0.02327369183669617,-0.015040105775702731,-0.03206764020261865,0.0168496722377359,-0.008180402387601099,-0.014381911938005495,-0.0010586616868309686,-0.07004995791632687
0.0349138,0.02937776619119047,-0.015978490649740256,-0.02419063798767961,0.015405282972366525,-0.013022765851007256,-0.011892835634427171,-0.056153685898244564,-0.07367556719772508
0.0353793,0.028987631551213686,-0.014492086310242737,-0.019187767806563095,0.014336497218867228,-0.01172843144509374,-0.009416588985255565,-0.05654744577340752,-0.06450512802173775
0.0358448,0.024864162558666983,-0.0135958,-0.017306574627490533,0.014171830236177203,-0.006899874627490532,-0.011291638505645782,-0.0037247518093317,-0.04789569829709958
0.0363103,0.018506436840442536,-0.013235733716754409,-0.01840367435342702,0.014643585742117238,-0.007184761082256709,-0.01266403543568373,0.05929228089949979,-0.028217725392077397
0.0367759,-0.00024325606144856896,-0.014340802534349974,-0.017766910992001783,0.015894986694662643,-0.011815878870598323,-0.013306319228639197,0.09711558606107515,-0.014740681625962697
0.0372414,-0.02090948529229557,-0.014570052293150174,-0.018348437918445457,0.019007070638351563,-0.01804004127670313,-0.015920075224651914,0.09782325229315017,-0.017545647091046147
0.0377069,-0.021890883011132924,-0.013685544950766163,-0.017870155049233838,0.020643812869253774,-0.01753276791848761,-0.018405250492338366,0.07570842228689306,-0.02836145197459939
0.0381724,-0.0006345879114268275,-0.013486085246839514,-0.013879465429323801,0.021563423796598313,-0.013822619855347057,-0.019111223872261,0.03930818378101886,-0.03606664414598743
0.0386379,0.025783966188826103,-0.013785687804882263,-0.005895315839260982,0.02023618129369564,-0.014641179125782507,-0.018030572657304303,0.005315202218068773,-0.022740582769925747
0.0391034,0.043136299695834684,-0.013528858066733174,0.005166858032368971,0.01896799033366587,-0.014535958066733174,-0.01584528710009976,-0.028292615760572626,-0.006579570966633413
0.039569,0.04602702546667721,-0.012871810186670885,0.013721140746683536,0.01581422546667721,-0.014273333786639253,-0.015043779626658232,-0.050500671287008456,-0.007223633786639255
0.0400345,0.04426054884756036,-0.012310248868183386,0.010911951111193594,0.01346571868769595,-0.017856692010594047,-0.01630048295606113,-0.07005989034621395,-0.01158939036683697
0.0405,0.04159738438631164,-0.012893602450360905,-0.006851071516227721,0.013626597549639095,-0.022779721739590628,-0.01852350857626317,-0.08792987319716965,-0.006761682847473662
0.0409655,0.03497867358583411,-0.01418880572355628,-0.030322211065748613,0.01327969856911093,-0.0210987855765455,-0.01894740143088907,-0.08974050429266721,0.0011983379758422506
0.041431,0.027488828832592065,-0.013814722133642633,-0.04454238843306957,0.013863343922701225,-0.012837407043533472,-0.016554024309195104,-0.07682964551058657,0.012536800759959138
0.0418966,0.023770699010790024,-0.01262914233865462,-0.04291137501251464,0.014579789108713328,-0.004461975249796734,-0.014012388119503354,-0.05623986785076272,0.015870587882221256
0.0423621,0.026305082979452728,-0.012357795753432732,-0.02798876383562182,0.015379095753432732,-0.003399280821890895,-0.014388113571722505,-0.03129279070912296,-0.002785459554776354
0.0428276,0.028196215507239743,-0.012985229818891995,-0.02172555746387857,0.017762868586991352,-0.0015422159057689063,-0.013700373369647478,-0.007129923260859614,-0.024071790452845812
0.0432931,0.02358548887429774,-0.015263262478866297,-0.023710836936802662,0.021919704820872958,-0.0003798369368026638,-0.011983505405203996,0.018666084414976553,-0.03592377477323064
0.0437586,0.016100388008483613,-0.015121991296832778,-0.02427575338479138,0.023190724758811225,-0.0009447533847913781,-0.012830880077187069,0.0277046634427233,-0.04242031392510085
0.0442241,0.007641844471263192,-0.014311399915634505,-0.019885929007992704,0.023331,-0.002756157025457597,-0.013560437960728068,0.030292294901820168,-0.05458588856001603
0.0446897,0.003115874293386252,-0.013095306940967501,-0.016415694087660627,0.021573247683797023,-0.006369079177097499,-0.013009853470483751,0.0292088069409675,-0.06430457120750187
0.0451552,0.0025886892552481134,-0.011713347149292121,-0.015328725767274315,0.01822338939289653,-0.012430348190154542,-0.011201515405305222,0.02303837305421485,-0.07054542200993498
0.0456207,0.003977569269289757,-0.010428556560389143,-0.017470409169136388,0.012152094370627836,-0.01730260916913639,-0.008341669269289757,0.015318681978190371,-0.06037776654675553
0.0460862,0.0026828390672892764,-0.010557991012516449,-0.019541977492337156,0.0065847930700985114,-0.019374177492337157,-0.007046939067289277,0.012599787122062105,-0.04717151848635062
0.0465517,-0.008212278765673944,-0.010871530973963772,-0.021323004857701302,-0.002937757090226242,-0.02133254339936563,-0.008320464144099815,0.005772730998198885,-0.03922490707810869
0.0470172,-0.026055158389607418,-0.011549759560186031,-0.019773538066892138,-0.01165389132568908,-0.02692039605035634,-0.010336307493144107,-0.004726821308853703,-0.023058974557062444
0.0474828,-0.03784944211873035,-0.012952180706243452,-0.015862357881269648,-0.020670945043436792,-0.03168182894063482,-0.011931190353121726,-0.006592438247250425,-0.003719264943704155
0.0479483,-0.03938259617486723,-0.01367036206283674,-0.013682935109292022,-0.030429863387964676,-0.029573001502743303,-0.012352425956283192,0.009280863387964676,-0.010461669207620494
0.0484138,-0.037108732528188845,-0.014141414309868306,-0.012084559485828554,-0.039097221165846054,-0.022082918062896778,-0.013036693676114298,0.015519882963850701,-0.02271339314402225
0.0488793,-0.037555723592809204,-0.014485612892081123,-0.010668852729035887,-0.04431297713707127,-0.014254905673487235,-0.014032625784162244,-0.00249216205363711,-0.0150464988392886
0.0493448,-0.03555002302691022,-0.01444716968326828,-0.008370592710178499,-0.05270939519764353,-0.00912715150036255,-0.0161354072898215,-0.03219488447713291,0.0024249122647515718
0.0498103,-0.02345872171855641,-0.014235346217359468,-0.008392612224294433,-0.05837141576502488,-0.010814013569026788,-0.01707875619145506,-0.05134576981468259,0.004495671585047819
0.0502759,-0.0011067853472601817,-0.013274316234506948,-0.012541168835510964,-0.06563153663184955,-0.015091488303348865,-0.01530909972275773,-0.0392324009295047,-0.008665229686444694
0.0507414,0.02925183469392331,-0.012406043289971374,-0.0248521986716542,-0.07084479108770973,-0.01738918546459547,-0.013155220423139147,-0.004649407267702264,-0.01757397119381131
0.0512069,0.06487879738582802,-0.01483654063723439,-0.04634116482059446,-0.07731896276794047,-0.016878486555799096,-0.0095674,0.0377193857700372,-0.009146825226008267
0.0516724,0.08350607754079262,-0.015725646516510608,-0.061905731024282006,-0.07834943062360736,-0.013840211714937366,-0.009298534202862653,0.06657907636098244,-0.0006831739439263004
0.0521379,0.091000538940929,-0.017739011260197664,-0.05615409941591353,-0.08174171240908217,-0.011488219259693623,-0.0095674,0.034955167244323654,0.004812354815953058
0.0526034,0.0922853330711308,-0.018897875313721363,-0.04534885474568438,-0.08459409512882707,-0.012021881690756825,-0.008840700250977088,-0.05628190639387361,-3.778473615818163e-05
0.053069,0.08782074078407118,-0.019545878762259616,-0.043420758437348085,-0.0864886606188702,-0.013052548241466348,-0.006928060618870193,-0.13001380218152211,-0.012899392831073057
0.0535345,0.08557509300530004,-0.01652308913889119,-0.04151996824827881,-0.08816668214419122,-0.005775812539049661,-0.007411902658379554,-0.12687186109606458,-0.026275551442985073
0.054,0.07335286567645412,-0.01739529143164822,-0.04234377650098297,-0.08820020692635773,0.00029921662279805113,-0.007638633145318578,-0.07566519371289467,-0.033695484655706764
0.0544655,0.059029046651251096,-0.015111681414422592,-0.035846647047557245,-0.08872663518116863,0.0049445893325786566,-0.006871240316726243,-0.004812594864442401,-0.03984365809964254
0.054931,0.04862804161198551,-0.01281868862898136,-0.03308139226664398,-0.08552358259628919,0.003535270687825284,-0.005453041455065048,0.05279585011721322,-0.03120892482322592
0.0553966,0.03681489299132708,-0.010919562300043976,-0.029263385397212446,-0.08374322199601777,0.0065461,-0.0019845110984510897,0.07036448741584092,-0.025879229389248012
0.0558621,0.021864114931253474,-0.008820891822685547,-0.026723267290742196,-0.07944674992847096,0.0037455509361132896,0.00020535408865722586,0.04322930345833701,-0.023408394975229483
0.0563276,0.0075444912444074625,-0.00806784239933432,-0.02427714130506004,-0.07749373325965357,-0.00022409140745640162,0.0002770749488018178,0.020078602472902652,-0.026574786177297006
0.0567931,-0.008330337290013732,-0.008682106752279399,-0.019156531897264722,-0.07528828296682447,-0.002728667522793985,-0.0019232764668460068,0.029538770546808844,-0.027207880247763685
0.0572586,-0.01660454535766647,-0.007278066024753657,-0.0068009187413481595,-0.07081591506188414,0.0002524239711776305,-0.0021214339752463427,0.06529110183394164,-0.023848398074260972
0.0577241,-0.00441464545515652,-0.006554743559969406,0.01295227077443359,-0.06866393141105182,-0.0009768894213393294,-0.004741294066717657,0.09149245531061898,-0.018449776707715936
0.0581897,0.008945518321217302,-0.005735764654883741,0.022162100433488204,-0.0686503,-0.0032702206886593885,-0.0059152530176743885,0.0911550998924145,-0.016601135237530776
0.0586552,0.03001475157681146,-0.002789534901187095,0.018551873686973454,-0.06878626427985088,-0.014591433012914679,-0.011016641831354841,0.05907230461557561,-0.018433971210018624
0.0591207,0.04404055511454282,-0.002489061287682901,0.01115670918318885,-0.06741474696184105,-0.023995306744499567,-0.012267325738457105,0.024009847114883583,-0.02103465978265851
0.0595862,0.05064199344983561,-0.003369061194843853,0.01074580804644611,-0.06526916833186099,-0.026774517911750166,-0.011370491044124917,0.009328613100328773,-0.02215259195355389
0.0600517,0.0582437,-0.007006578565997918,0.00022192602883779403,-0.060616190110959714,-0.0207791946389556,-0.010220710492028957,0.007428734195116739,-0.025166097511029974
0.0605172,0.058089960450513345,-0.007567360450513344,-0.014231174721459518,-0.05651655112628336,-0.01548954406930105,-0.011174092943017687,0.018172490960371213,-0.026869960450513347
0.0609828,0.05699936682395849,-0.006476766823958493,-0.02350113932930068,-0.05379006705989623,-0.01344472162844824,-0.011855754568552009,0.024443323095186535,-0.025779366823958493
0.0614483,0.05775591248923838,-0.006109328165356096,-0.031938163371993185,-0.05039602032729724,-0.013177559345405529,-0.011289939018108295,0.011283634829829437,-0.022862510475944547
0.0619138,0.05878996211050691,-0.004804075361793863,-0.05162912937604361,-0.04695303892814132,-0.015065736850844853,-0.012358237268037166,-0.012210439307122244,-0.02116890062145592
0.0623793,0.05370300946417299,-0.003136878129947152,-0.08313265519501667,-0.042048125039577215,-0.013143210459541985,-0.012496702060246624,-0.03275045114403206,-0.02021779687487575
0.0628448,0.04490558573850206,-0.002207346261988263,-0.09453064737289807,-0.03804795943732579,-0.009668785047953052,-0.013725581865396217,-0.02851012881793349,-0.0199741
0.0633103,0.03375594031655629,-0.002182,-0.09076845223412675,-0.034884182436454726,-0.005501052234126736,-0.016522950673416532,-0.011229835222682023,-0.024040361244153916
0.0637759,0.015127491917011925,-0.0025463908479408455,-0.06834329084794086,-0.03190494796553101,-0.0011007561582948525,-0.018969974517301046,0.004993168844756446,-0.033014882655177005
0.0642414,0.0002759579104802288,-0.005253018997541053,-0.039717831732782545,-0.02885875390690419,-0.005268641572350165,-0.019493350329636134,-0.0030867886997851856,-0.037633788583303046
0.0647069,-0.014183149172269042,-0.005903736775631828,-0.028779631401684873,-0.02693658967310452,-0.01121834585715723,-0.0196384,-0.02236577520000696,-0.03495467397226208
0.0651724,-0.02277501875821338,-0.006951051254928028,-0.0313878,-0.02369654200981048,-0.01588799062089331,-0.019528750460621355,-0.034411074640514266,-0.030785651254928027
0.0656379,-0.024664348543101476,-0.00648801085092331,-0.0382085181893113,-0.021810649115208306,-0.015217893917760558,-0.019331744574538345,-0.03609435822317968,-0.028487454026602643
0.0661034,-0.02588637858747274,-0.007161358399266912,-0.047172741345309015,-0.018650397068377206,-0.013968544532355883,-0.01940185936816427,-0.0035564868465622554,-0.02680626568945907
0.066569,-0.022481855895471973,-0.0069726742601400864,-0.05839774794982936,-0.016996178420852288,-0.01641174826524023,-0.019176276212976216,0.04245014221206282,-0.028660727316914252
0.0670345,-0.02025381288406493,-0.00494167391314984,-0.06279298478287461,-0.013892095652599364,-0.020455569402719552,-0.020161652173700317,0.04921252833961897,-0.028656921659157866
0.0675,-0.013251478353879612,-0.0024233342015282976,-0.062539730368832,-0.011293479533144643,-0.018935675626267304,-0.021773261965775396,0.014723567100764149,-0.02425102621589982
0.0679655,-0.006263468933885494,-8.281539092139635e-05,-0.05688803277457993,-0.009586548449773039,-0.017853647084165543,-0.023080297268785004,-0.03664883746632685,-0.027452975419065054
0.068431,-0.00015672309737723702,0.0005424990120704822,-0.0486422422430364,-0.008443302963788554,-0.01702310827843447,-0.02390069407242289,-0.05620651914565916,-0.034056566410396394
0.0688966,0.00490579445736794,0.0008317881916248349,-0.03967436385176346,-0.007575435425125496,-0.016299928417004585,-0.02563642914974901,-0.0523011583091314,-0.04389239851524439
0.0693621,0.008546645444428772,-0.0007518515780847682,-0.0313261412099875,-0.006272058790012497,-0.019494529489970838,-0.027078558884977087,-0.0465729899055504,-0.05832762813805144
0.0698276,0.0016056521464083821,-0.003027210962969108,-0.031242188362202866,-0.005697977422860249,-0.024872890708663487,-0.026007605618846328,-0.03684504183464081,-0.06537069902682192
0.0702931,-0.010779839763248998,-0.0038881903551265017,-0.035565475905299605,-0.005398498781278304,-0.022697445220333325,-0.02466035333790301,-0.012905484331451401,-0.050896828368029716
0.0707586,-0.018575376513654193,-0.001650497978391149,-0.03626012354735591,-0.0030911941284135474,-0.016386310823883633,-0.02581144116211527,0.009059176452644088,-0.038195111865193115
0.0712241,-0.014024031978279531,-8.545776862219583e-05,-0.034153845646942974,-0.00268853230262031,-0.009679962733915625,-0.026854855899126565,0.011024750935662499,-0.030103269568704686
0.0716897,-0.005427778167144875,0.001059439546830168,-0.03266430772406294,0.00019561692286010937,-0.003771787213280744,-0.025834847270893108,0.008791220906339664,-0.039814548197408574
0.0721552,0.0059123932500088645,-0.0001557006051306391,-0.028466090612726272,0.0019816290321164947,-0.00237856130664622,-0.020766769483658666,0.0077816847418293355,-0.05837902370914667
0.0726207,0.012554381055868714,-0.0012900792413108593,-0.02342901247013365,0.0019149524864857082,-0.006813162111737428,-0.01543600599613601,-0.007255533467753603,-0.04480837095275537
0.0730862,0.018455490126808204,-0.0047489530802393935,-0.016944890126808203,0.004389523460664003,-0.010943816372006962,-0.013366882109972911,-0.028479215103924933,-0.02464611544382871
0.0735517,0.026577337796213733,-0.009423536992346132,-0.011841658404042207,0.006607907790325028,-0.017519069340560633,-0.017613133614795856,-0.03646756554081657,-0.03773290084438757
0.0740172,0.03416058924671361,-0.015042706933147704,-0.009021300517544774,0.009856112305920709,-0.025251224611841417,-0.02455163257233829,-0.034242247473723245,-0.06712090434542382
0.0744828,0.03856812984709946,-0.02099141628023607,-0.013050886212990777,0.012620324288757739,-0.028061459782748387,-0.02526055435600303,-0.045988628182945655,-0.0735363607434178
0.0749483,0.042137766826076575,-0.02271519499320989,-0.017557705090623404,0.012010821060006057,-0.028978301772451077,-0.026461499588280625,-0.07935256109700396,-0.03794178926413728
0.0754138,0.0427021236928693,-0.01857851697424233,-0.022437586517016522,0.01259682046550118,-0.0242974988819766,-0.02493641701997188,-0.11417477349757288,0.018426258850836454
0.0758793,0.03914341519136709,-0.0121379493621097,-0.022926273044451936,0.010572855481934798,-0.01577107089304642,-0.024038971768671334,-0.10641377719328268,0.049594802987697056
0.0763448,0.033372526008243586,-0.007366721076807162,-0.023101330493817313,0.01155805874484776,-0.00619075067216239,-0.023747161295203045,-0.053714634388497384,0.026277620347619234
0.0768103,0.03095090145221604,-0.004251951574384907,-0.024229634866995284,0.011336793946798113,-0.005069997095567928,-0.02420175907980283,-0.011672493946798113,-0.007962222760591511
0.0772759,0.029786587953332187,-0.0035086961221918156,-0.026901331848951993,0.01061795536695178,-0.006943796490906022,-0.023696488735289654,-0.008605380197715819,-0.02056820293375814
0.0777414,0.0277496032668057,-0.005358906184551215,-0.02736492800501056,0.011551584364091868,-0.01116690910229673,-0.02403241563590813,-0.025337305325342306,-0.0115270967331943
0.0782069,0.026508949847523628,-0.008432611908213056,-0.02553609122131658,0.011859376488526632,-0.013953900304952745,-0.023417885267210052,-0.012195076488526631,-0.010313844198369846
0.0786724,0.025562040883562346,-0.012720769686926066,-0.022891302698910786,0.010238419406111882,-0.012864970441781174,-0.023233018232875307,0.037881756626717604,-0.02718431381506357
0.0791379,0.024719266985715305,-0.016695896307681552,-0.022066827085445703,0.00810207800768575,-0.004886274612264783,-0.024101880299191195,0.0860943931140151,-0.03131519231846563
0.0796034,0.02352239194491109,-0.01616930406281915,-0.024589407152710966,0.006685887536727057,0.0009320151372504827,-0.025603753819587315,0.09071359635309513,-0.00754478920038416
0.080069,0.026956705278999696,-0.010115805670984931,-0.02940850895563442,0.006936616412925764,0.0009743726370896122,-0.02816597263708961,0.05702552029760428,0.02695698367904496
0.0805345,0.022570969065369168,-0.0067266843127362875,-0.023651165700209136,0.010172321848315551,-0.007594209526211874,-0.028432978151684447,0.035504837535579266,0.02975748726389057
0.081,0.021287393816754048,-0.004505345314023631,-0.013783969083770239,0.009196292580104858,-0.012894893816754049,-0.029397204946596762,0.0368180123664919,0.00876588842816087
0.0814655,0.01966003736961961,-0.0030407729881128283,-0.005647186848098046,0.007243464843543531,-0.011267537369619609,-0.030699090104304314,0.04007272526076078,-0.007670363211386768
0.081931,0.01945063733844096,-0.0025359558480907056,-0.0020075173802883853,0.0031162618052129796,-0.005091774357740453,-0.02960502591527485,0.030617016523942324,-0.015807074941071215
0.0823966,0.018272642230750882,-0.0031087512270158283,-0.00463802230750884,0.004577815538498232,-0.0025679953884788676,-0.03012535561175964,0.016017608315932984,-0.01828693346126326
0.0828621,0.019257347339398795,-0.0060743420181963844,-0.012240996268724094,0.00389073510706747,-0.004433638153677063,-0.029724417553533736,0.007244621284809641,-0.020554794678797592
0.0833276,0.01739274394328249,-0.007820103310262356,-0.019782276272325722,0.0030827582393654664,-0.0115816,-0.02992198352126907,0.006863027464551555,-0.015578737821953542
0.0837931,0.016835978433205882,-0.006414680087280908,-0.02890663774188971,0.0005466731191883013,-0.018499713732823525,-0.029438961469913254,0.008896,-0.009129643133588237
0.0842586,0.016630662683186786,-0.005579688049560356,-0.04287624193978144,0.0008798880495603561,-0.02154409853450572,-0.02972964604484023,0.011795235851318931,-0.01727157023714358
0.0847241,0.01664219988489182,-0.0058005538909866195,-0.04805710201834657,-0.00046855971580996307,-0.018975757636266723,-0.03039821527253345,0.022938678902643207,-0.03538991735207669
0.0851897,0.016868958093839617,-0.0071004770565933194,-0.035725181689460615,-0.0008481061035131264,-0.014359933534459598,-0.030601415681971503,0.0284592335344596,-0.04201965425851415
0.0856552,0.015409961879035901,-0.007243896343260724,-0.029294410970217826,-0.002166828418785825,-0.01003508171630362,-0.03151232925391421,0.009533551194349862,-0.04288482798587465
0.0861207,0.016428747621084448,-0.004250603986352288,-0.030863747621084448,-0.002866795238280404,-0.0062510432412157734,-0.03175744761719596,-0.015300267443330136,-0.04295646228809416
0.0865862,0.017724648800234777,-0.0016454023995304489,-0.034468846880610415,-0.0028534,-0.004069101919624359,-0.031169732607663363,-0.02244340777678233,-0.04429181305574932
0.0870517,0.01978807139061765,0.0027851195894330904,-0.033816137271039715,-0.003642548198815442,-0.0037006786758014675,-0.028150712529702943,-0.023816378317509566,-0.03898898747029706
0.0875172,0.020671438058264737,0.0064344978384804465,-0.03618270621363737,-0.0032063920388431585,-0.005961160194215793,-0.024944656142097975,-0.029158944271902108,-0.019257975145450513
0.0879828,0.02163577734268396,0.008678058601212282,-0.03897281244883006,-0.003944613286580202,-0.009349458601212283,-0.02245815468536792,-0.03388910391584436,-0.005683496374219181
0.0884483,0.02187743782186186,0.00899612199947917,-0.034701624078428125,-0.004113053366396394,-0.009878497921051043,-0.022083693545055363,-0.03365766683198197,-0.012554757524294309
0.0889138,0.02137394822666322,0.01076757943334195,-0.024593729434824345,-0.005424903546673559,-0.01146750354667356,-0.0218204,-0.03653080709334712,-0.020364591131833705
0.0893793,0.019155310956041754,0.010504844233440459,-0.015826932933433093,-0.00709882317709206,-0.01300627521393378,-0.022021042280500686,-0.04262963855078287,-0.01899156264891786
0.0898448,0.01791447690830676,0.004864146561365841,-0.01690318598149594,-0.007675676908306761,-0.0136222865349691,-0.02202243090041408,-0.03799985039973441,-0.02307758678096475
0.0903103,0.018433649592736287,-0.004564344432264577,-0.02058589918547258,-0.007645236108066144,-0.013839463891933855,-0.02320652859839513,-0.01743836205429185,-0.031965398162357994
0.0907759,0.01898380301086022,-0.011572970888650277,-0.02440531204344088,-0.007738033119462417,-0.012639109032580658,-0.024505774896762967,-0.0038184949755320336,-0.033402
0.0912414,0.019238649905835445,-0.017591048964189917,-0.026336850470822765,-0.008097625800398701,-0.011277925047082277,-0.0260166,-0.016592191493033277,-0.030124499623341787
0.0917069,0.019219326577283563,-0.028063265426457172,-0.029572808315811886,-0.007583447249088441,-0.009840383368376225,-0.026714561108774917,-0.04511156229291578,-0.03036931053773022
0.0921724,0.01938951708155806,-0.03860013991903822,-0.03679140865007934,-0.007910303112757852,-0.007314725950238018,-0.0273594,-0.053971334474820866,-0.03078121730015868
0.0926379,0.018594312393045716,-0.04522537521390857,-0.04235493717913715,-0.010592993803477143,-0.008270837263206331,-0.026968218589568577,-0.04738028349692129,-0.0368763954306765
0.0931034,0.017970074696987613,-0.046351757273063225,-0.040370302424099114,-0.0109102,-0.00928774030283766,-0.026382889091553993,-0.02770521272728623,-0.04429687446937231
0.093569,0.017773856907611393,-0.0405405668077835,-0.03282625910323839,-0.012044070173927428,-0.010300136432804176,-0.025168559050385567,-0.01024084865415954,-0.04316689388932232
0.0940345,0.017884599310260357,-0.03488909517182248,-0.02884649517182248,-0.011208249655130178,-0.013561302758958583,-0.027845701379479292,-0.007038707587136101,-0.03319177560712437
0.0945,0.017218976051364823,-0.030586042596309048,-0.024734633455055777,-0.011005795429373367,-0.015902247532103016,-0.028985757038523616,-0.013639252467896984,-0.02880492000377061
0.0949655,0.015837955781669324,-0.024490206819387874,-0.011214413638775745,-0.011980677841411614,-0.019220306918233968,-0.027318355682823228,-0.0339367894655355,-0.027967422158588388
0.095431,0.016400280573445718,-0.013206159508475099,0.004347550614406127,-0.013043809303673057,-0.019281758279662845,-0.026005600409604084,-0.06882889006145158,-0.027153580163841635
0.0958966,0.016044248955037695,-0.002187190516492935,0.01021516679824319,-0.014872900696641536,-0.0203098,-0.027622197213433855,-0.09257787446130009,-0.0324061392020562
0.0963621,0.01688736505328635,0.00638444795709292,0.01288499258408847,-0.0143108232978091,-0.0203098,-0.0298705068087636,-0.08906484885998857,-0.041118338883958945
0.0968276,0.018137034161639403,0.016079441386798864,0.012056039204267103,-0.013230951012863942,-0.018533448757540896,-0.027380473136311347,-0.07132483430722197,-0.04682740699556431
0.0972931,0.01834549028840233,0.025493333552829577,-0.006168863033383233,-0.013421183990591848,-0.013955867278539476,-0.017721861683373214,-0.04272052642365005,-0.04772062760077974
0.0977586,0.017529006077180977,0.031097175691276086,-0.025285059823637077,-0.01349057219183487,-0.010050951856638523,-0.00948723130760634,2.2499786164164627e-05,-0.045547212862227564
0.0982241,0.017056623554051364,0.03318188847824755,-0.03172178148959746,-0.014310423800766607,-0.010280305290364061,-0.006655778574712523,0.07098192023754792,-0.04822087501149383
0.0986897,0.018773878996374536,0.034909999456810156,-0.022085239760090407,-0.014772050271594924,-0.010098821546815307,-0.00950713537247646,0.14533082872477962,-0.0437710518753197
0.0991552,0.017917692309853562,0.036993830132236505,-0.01731586060341445,-0.012332870384242096,-0.009970870181938127,-0.013417715921538297,0.19301122158667003,-0.026330351743673337
0.0996207,0.02013673499502281,0.03286455008173956,-0.014412132762780914,-0.01481865011370723,-0.011316717350926314,-0.013295512886442522,0.18618350252541208,-0.0015232775005261344
0.1000862,0.020399967511651847,0.02689004457849554,-0.021927429623999472,-0.013413577481315896,-0.017248855880377126,-0.015264715019235838,0.13152959628264577,0.012138494730175309
0.1005517,0.01971330534875316,0.015931839902716974,-0.041948850456592156,-0.01224392048182833,-0.0231678108452617,-0.016308638554515007,0.08346876679423815,0.006808924386927338
0.1010172,0.02213733142606084,0.0027569767659324754,-0.05531638018897329,-0.013484133511188516,-0.02610070476495322,-0.01955782055424198,0.06392898811418384,-0.02137909261235428
0.1014828,0.02307487478564592,-0.009487152108144454,-0.04942054367556664,-0.01448252816221668,-0.023994422677501466,-0.021497451780513835,0.030665574949461233,-0.04826765632443336
0.1019483,0.022303209384620905,-0.019010527959941056,-0.032745117824625476,-0.013924598875884408,-0.022263156472802283,-0.02215261219490989,-0.010232614452278695,-0.05252989887588441
0.1024138,0.023331,-0.023112265049048848,-0.022660691423546743,-0.01261550828922627,-0.02099996500387962,-0.0223239,-0.014224306737237966,-0.043292786480354846
0.1028793,0.024375684995404056,-0.02585480473631557,-0.025904491803834303,-0.011855187465343352,-0.020284956466240633,-0.020316120730822344,0.00618587246074741,-0.04170785992609076
0.1033448,0.024495142529173317,-0.03421815500889533,-0.03145551379375998,-0.012439818774311098,-0.018945385058346635,-0.019205209961102244,0.007263598852106611,-0.04437722649631498
0.1038103,0.025055469595823096,-0.04503172907240506,-0.03310409141174026,-0.011892105725506493,-0.01735966011781817,-0.01696981609041067,-0.0095674,-0.04638712620965181
0.1042759,0.027710638681303273,-0.05047363703293237,-0.028335422637393453,-0.0119173,-0.015554441153859636,-0.015286496702470639,-0.024942663349878734,-0.04353748972696345
0.1047414,0.028373690786005434,-0.046172993213722126,-0.013026499896909894,-0.012749305567774946,-0.014354691395256901,-0.018076811341730104,-0.03576639685994174,-0.0315485172094862
0.1052069,0.025222506196816676,-0.03419479833920354,0.0035848582587479604,-0.013366814461647579,-0.0168384822363352,-0.024147576451676166,-0.040230049579289474,-0.022232828511137514
0.1056724,0.024781085839599135,-0.025581691144528726,0.016998365935671708,-0.014231438053466956,-0.016290337823396256,-0.02748052832080173,-0.05002193807501138,-0.02799100488787704
0.1061379,0.021788483397421073,-0.016198007029001975,0.021345173333922437,-0.016328532014523982,-0.012835220957357694,-0.031169567063544627,-0.050528400758624165,-0.038834091021739986
0.1066034,0.022312199548531895,-0.010157824509832394,0.014432851470648031,-0.01424470880417539,-0.009025560784268166,-0.034109493098518386,-0.03878904801990723,-0.04539802937295416
0.107069,0.019167840438785135,-0.0077460945337650584,-0.000921970672564005,-0.01448744772240211,-0.008324067028407378,-0.03671459818261797,-0.00409744407824548,-0.043147956832793675
0.1075345,0.018728125350887095,-0.00955600858264078,-0.02083038712603883,-0.013154730237760353,-0.006312922756232978,-0.036901045904893265,0.042232375944135994,-0.04037196007848546
0.108,0.017243207364670835,-0.0182956,-0.038528071037858505,-0.012972758343845052,-0.005059961472934167,-0.034844668163406166,0.0732985901804389,-0.038163271547132054
0.1084655,0.01611024323688164,-0.028160344239125397,-0.05374151903722606,-0.013246383979012797,-0.004895023872813606,-0.035765607851826406,0.07604231352623674,-0.039328290982508854
0.108931,0.016270187677515886,-0.03293175213019062,-0.08118131754125364,-0.01374678318626526,-0.0037319414587029705,-0.03348048625738881,0.07507344928993646,-0.027427343609428157
0.1093966,0.016502864873215724,-0.023062537954350093,-0.10573202545740676,-0.0149386,-0.002295326130196183,-0.02864253874301954,0.0797956379543501,-0.031672122745720954
0.1098621,0.016613351160071604,-0.013149329278980569,-0.11278363398170817,-0.015257429661960592,-0.002862772658182614,-0.02709492795863954,0.07751818425889864,-0.042293453363293744
0.1103276,0.016051157448644545,-0.0025679096359276974,-0.09970326982765862,-0.014295417273453837,-0.008107779463586326,-0.023745136489106387,0.057162431860024135,-0.05195367677670278
0.1107931,0.015624026880290525,0.003247940062909612,-0.07274258987750189,-0.013518913440145263,-0.01129463279927369,-0.014105844523950738,0.02984502662276435,-0.042929736631973185
0.1112586,0.01712251084246265,0.005842225920887869,-0.052946796033337934,-0.01431304656209971,-0.013010058811946518,0.007655847780743474,-0.006996416405249272,-0.03155760970437899
0.1117241,0.01789852594818206,0.0038893516784958347,-0.03716063667228783,-0.014463585265771791,-0.012916692197623413,0.02136652914189104,-0.03677647318129298,-0.026721155198770195
0.1121897,0.0186313,0.0019098838446678513,-0.02625339284944304,-0.0162814,-0.014210681026961911,0.025712812624439668,-0.04778048207922161,-0.02574448384466785
0.1126552,0.018293008495670147,-0.00419101699134029,-0.020842763670269264,-0.016978326413774482,-0.01280521556078411,0.02387953254185433,-0.031505883001813,-0.004989375943545745
0.1131207,0.019597557865375825,-0.007568971973153942,-0.021199020662575625,-0.015542049435991216,-0.010266028089749451,0.018617685955125276,-0.01577768033963516,0.02238482996433655
0.1135862,0.02077645328286385,-0.007507990846522,-0.02353574671713615,-0.01631198003146976,-0.009377947655097248,0.008443301875922201,-0.0044372194710501104,0.020685269725682694
0.1140517,0.01922602157842787,-0.004609047943154212,-0.021666573635273658,-0.017124851216616995,-0.008828674475502453,0.008109582367641806,0.0010411879941690718,-0.0025275224186566657
0.1145172,0.018499459652257508,0.001117222302441668,-0.016943601304034352,-0.017029962215506043,-0.007938340130403437,0.006463699782660941,-0.009781640565081552,-0.02401674160695668
0.1149828,0.018733427780351676,0.007225077033297977,-0.017744282692141622,-0.015783530873577513,-0.009074723615615435,-0.0039257416936926155,-0.04221058054912081,-0.032029883341055033
0.1154483,0.0193027,0.009804313983586275,-0.024634458049241175,-0.015284178601641371,-0.008175206991793138,-0.01806873413117435,-0.08501597238363054,-0.03313545021148961
0.1159138,0.019617060424761305,0.00591737489390792,-0.033873253239652734,-0.015209899496488108,-0.006281750009892947,-0.03231621019279125,-0.10376632811377476,-0.035730564681330776
0.1163793,0.019615912152645333,-0.0019105348202168057,-0.0405166903259804,-0.016549636457936,-0.005606463542063997,-0.03899484305290669,-0.08482658041147743,-0.03980117013703468
0.1168448,0.018531448792100266,-0.010605455069654391,-0.03908134154470186,-0.015141699030155721,-0.005550191010370541,-0.033909843960501326,-0.033383029465704525,-0.0470519695644512
0.1173103,0.01849826719280265,-0.019520954455047285,-0.031428171906077496,-0.017915857920642732,-0.006929512252637041,-0.028333468440482047,-0.00010907832081327022,-0.057777709395212894
0.1177759,0.019072056154440457,-0.02815949550739211,-0.02256237641538766,-0.01765557192277977,-0.008403440386101139,-0.02958381230888091,-0.0029067526949820514,-0.06232071179230617
0.1182414,0.021164463068558525,-0.03862968302002722,-0.013096520234263803,-0.01720889861313908,-0.009081501564565702,-0.02837088620170379,-0.032039359939427116,-0.043223360117131904
0.1187069,0.020212541867823352,-0.04306195756673241,-0.0007714439898055388,-0.01632030325287066,-0.006706735362082035,-0.018738602833375445,-0.05787849787801781,-0.019482786988517364
0.1191724,0.018497619934093445,-0.038150866164551135,0.012404460571190132,-0.017041920043937703,-0.0039050600219688513,-0.008943559692436083,-0.0679358464501462,-0.018824307648928878
0.1196379,0.01764587820393307,-0.03151202820236525,0.019854866649562063,-0.017580843592133865,-0.004391303835397609,-0.004325651359285443,-0.06466994878524909,-0.03261292422556873
0.1201034,0.018262991340159598,-0.025531654887597642,0.018240280321269554,-0.016831562432083166,-0.0074946144409527675,0.0017755254100156254,-0.05310428208464271,-0.05444302079408533
0.120569,0.018549649915920136,-0.02197468611017004,0.0005217114885294202,-0.014852523528602415,-0.012531882743673669,0.010552133335534591,-0.06720544347548434,-0.06471292095914215
0.1210345,0.019293608862049397,-0.021504313685933293,-0.02468758536804687,-0.013755742949839559,-0.011955483189860757,0.005224147773723457,-0.10877958804580494,-0.053364990223991056
0.1215,0.02002808595689447,-0.028589082004539412,-0.04009204652520669,-0.013219764153011106,-0.015218207465087808,-0.010990871693977786,-0.1465193755743667,-0.03753228170493665
0.1219655,0.01932984972858597,-0.04363977574881419,-0.021978712904406207,-0.013098018376661089,-0.01361907119593083,-0.025044406793896246,-0.13852041120622138,-0.03782039945717194
0.122431,0.02160139578808874,-0.05833470176592718,0.008765027930910683,-0.013664072282548349,-0.015712408423822523,-0.02780891508171787,-0.11206364767003299,-0.04231228736426622
0.1228966,0.020392286997518095,-0.06288213703788753,0.02885568254657419,-0.015191813002481904,-0.015893911149706987,-0.0218942215540199,-0.08093500681554636,-0.03661706737701197
0.1233621,0.0202030738066566,-0.05693328120784812,0.055075038614967715,-0.012931667436129045,-0.016782965419096792,-0.01928055565336631,-0.03514262183984809,-0.019793686519635804
0.1238276,0.016663118445233736,-0.04438461069552743,0.06380981667212517,-0.011522712947371023,-0.014302384021852362,-0.02009321448111207,0.022332014899016615,0.0047714947415048
0.1242931,0.01793573032669198,-0.030078582683541494,0.056397402618032166,-0.012576615163345989,-0.012892801995154702,-0.022121229603302355,0.07130232091635028,0.0142014285639971
0.1247586,0.018198891759232585,-0.022705176718094553,0.040487605894017814,-0.012943741648153484,-0.010716784958861967,-0.023495043592836235,0.07573107048197944,0.008461174773411798
0.1252241,0.017236721893600523,-0.021930047702310333,0.014806585515192105,-0.012278889053199737,-0.00739786568080158,-0.025655010946800262,0.08000108889421328,-0.006212111527212635
0.1256897,0.016186168610359198,-0.02037394990726546,-0.013827976504136669,-0.0123480998525812,-0.003562115713048488,-0.024984623681332408,0.09492173928341828,-0.0232233341561667
0.1261552,0.014116689264875349,-0.0182956,-0.03688214948608852,-0.012401991762471018,-0.0018116214702493033,-0.024789632205373956,0.10469113040354319,-0.02850227617369552
0.1266207,0.0129244,-0.01782138652478516,-0.046485898727561696,-0.012387358130292724,-0.0037061841176476273,-0.027702605843402187,0.07842472007508318,-0.01640785692672396
0.1270862,0.013048847383131446,-0.014953961246597914,-0.05074922622047005,-0.013090329844175262,-0.010033357850605662,-0.027967048993163348,0.02878516492208763,-0.018259491344378386
0.1275517,0.01425709390717554,-0.008516210036058274,-0.05345494695358777,-0.012442898322980877,-0.01630460465976403,-0.02371002352743298,0.018898932257765465,-0.04376219736249197
0.1280172,0.015561442925066862,0.000483141951765787,-0.04982822829227755,-0.011036544392473476,-0.01964278780791838,-0.01710211610019593,0.04630155414384741,-0.06536753559921629
0.1284828,0.015922434287073226,0.0058622889921906805,-0.04920306571292678,-0.009289864282316937,-0.02254908959622464,-0.00885112141158468,0.06983857065635315,-0.055270584263291775
0.1289483,0.017640084026803816,0.007565113020102863,-0.060881496211464096,-0.0095674,-0.025724581073710496,-0.004935107113916224,0.07409608193397928,-0.03145133610721527
0.1294138,0.01877483936085058,0.008416179520637933,-0.08144880988108241,-0.0095674,-0.028845158242339092,-0.00975781728361496,0.06742943659978096,-0.035990357443402315
0.1298793,0.01895237521960801,0.0032612711566877457,-0.10915356734937691,-0.00870626065116054,-0.029066862408024616,-0.018427223023527915,0.053944073791983856,-0.06594286065116055
0.1303448,0.019156405893149132,-0.005586835835346535,-0.11385473201657828,-0.008913803012323019,-0.026000190288082613,-0.021333309711917388,0.03885546330119168,-0.06612579088855058
0.1308103,0.019211828237950153,-0.012935672506966143,-0.09470328853803198,-0.00819453998142362,-0.022349016031065837,-0.02176908145267983,0.02955148602177765,-0.017819589001442825
0.1312759,0.018808021828095118,-0.007626764640211474,-0.06477504948601638,-0.007735850513983609,-0.01840947340186448,-0.01770960505139836,0.026244346803728964,0.044885692829030134
0.1317414,0.018620537687268453,0.003473059947596086,-0.04792004444090335,-0.007531675374536911,-0.015371160814583904,-0.00901339968442009,0.019517943048699193,0.06423662825291819
0.1322069,0.02045764165940584,0.014843117925879747,-0.043214290755527844,-0.008748158340594161,-0.012445981135679325,-0.005884962715860894,0.004696144226916591,0.018649782755747125
0.1326724,0.018595265346267764,0.024218607922393418,-0.043191350191567786,-0.009687253795023686,-0.013799996371149337,-0.014057884794510499,-0.006606157756220393,-0.029589184487559213
0.1331379,0.017719066099252653,0.030709062694768575,-0.044102426994094626,-0.009009115515547483,-0.018780936454110404,-0.022747214664426463,-0.00926812709177919,-0.026945220185126465
0.1336034,0.01730353543129447,0.031999058274822106,-0.04935763021082287,-0.007583270862588948,-0.026993629137411053,-0.021494727971408025,-0.007896417715647237,-0.00952229370611658
0.134069,0.0172885,0.03127282976429349,-0.051088334176159884,-0.007867766835231977,-0.028911101011391854,-0.01630496380105641,-0.008832600505695927,-0.006421731647680241
0.1345345,0.017979127321504848,0.029296690713980614,-0.042062126248398224,-0.008924840982257268,-0.02552708429172672,-0.01463174098225727,-0.00837841857203877,-0.007731051292037084
0.135,0.019011226571925544,0.026589499431654732,-0.02831021396094556,-0.010015672078108877,-0.02036608603905444,-0.015778858117163317,-0.0135958,-0.01389728143860025
0.1354655,0.01936920824387232,0.021422979927085264,-0.02161934587806384,-0.009899941219361608,-0.013986074306814159,-0.011914141219361607,-0.028666588282920853,-0.0317432907945588
0.135931,0.019805467007393163,0.015947265985213673,-0.02201148857458943,-0.009000423100465506,-0.009528765218579052,-0.0023104446676617753,-0.04034802233383089,-0.06375398047716271
0.1363966,0.020825475178697893,0.01390724964260421,-0.019079003062732185,-0.009637966188174817,-0.005193730490533946,0.001004505927790895,-0.038690547036104556,-0.07382652318815308
0.1368621,0.02072445197363334,0.018106879553956845,-0.009182277960450012,-0.011774161019774992,-0.003928527580323506,-0.0061513401318332925,-0.03581865057580414,-0.054755762417604194
0.1373276,0.0193027,0.022718335955043013,0.00032724556802886406,-0.011036085190120908,-0.004951534619872808,-0.006680398470155792,-0.031337459237411755,-0.012890836926308422
0.1377931,0.017352833183841954,0.02723073363231609,0.0050746336323160895,-0.010920922197306993,-0.0048568778026930074,0.003549559472079136,-0.018692318106376803,0.008534760369027403
0.1382586,0.016794696590139723,0.030071305857539296,0.004153200742748881,-0.010932399573767465,-0.0018671930705632582,0.006351723235989245,-0.004695958009779232,-0.005691690622884239
0.1387241,0.01640717916792812,0.0289247854145222,0.0017106016577997886,-0.010817904166414377,0.001389344991853284,-0.006000479167928119,0.00400346791015984,-0.04332631582695265
0.1391897,0.014929383133967453,0.022917672248911322,0.00388282930045968,-0.010454680741576886,0.008770859443938924,-0.018033634928260378,0.007584746166492228,-0.08717052692543867
0.1396552,0.014747876594995156,0.010458861782821075,-0.0080958010119309,-0.010531526399567122,0.0072872759945355366,-0.0244575953930472,0.014245713199783561,-0.09981935940933363
0.1401207,0.018053219607739042,-0.0022816660128984058,-0.029740243790971115,-0.0109102,0.0005774921574352603,-0.03035551437936255,0.01670417320257968,-0.049064130341240936
0.1405862,0.019818138381616703,-0.02147524080347143,-0.04709712902473871,-0.011433957348199414,0.0035780532432859906,-0.02703225903125811,0.002359359196528569,0.024062313218806763
0.1410517,0.02328509607468317,-0.03756543017298173,-0.039144532957166495,-0.011041485490390942,0.0008429631554113214,-0.020628608928607982,-0.014319711738055843,0.04695744080780015
0.1415172,0.0250874963089049,-0.04626192407722622,-0.017831044731287677,-0.013607291564136247,-0.009450039718588698,-0.03947247583153493,-0.01964328928009766,0.02488064815445245
0.1419828,0.025635749793278012,-0.04778281975193361,-0.01763908045226022,-0.01461644371705959,-0.0198378064896624,-0.0797087487571399,-0.018613239917311203,-0.006099705453524298
0.1424483,0.022967448094644204,-0.04588029780384571,-0.04281087825920719,-0.015552012261737871,-0.020779957686539986,-0.09263704289998866,-0.017370543228647835,-0.020223553294231422
0.1429138,0.021599996806108995,-0.0435455984892579,-0.07741902289888024,-0.017248092690072877,-0.017866889496181877,-0.05618479621751202,-0.03057473600799238,-0.025786106387782004
0.1433793,0.022602492038232464,-0.04435866858512061,-0.10015253240298924,-0.019181264690622372,-0.017952703836820183,-0.021323902906388387,-0.04215526271466578,-0.029330782417342976
0.1438448,0.02306173175603213,-0.04246906493538028,-0.10685653117441826,-0.01953538542564163,-0.019736401303657693,-0.015856222500384144,-0.03354139538775472,-0.03674228412717684
0.1443103,0.02276573193759091,-0.039038914313015156,-0.10336957818819698,-0.019903345374939395,-0.01995640607454919,-0.026438831474507672,-0.024639960563621225,-0.04016868149975757
0.1447759,0.01870183562798264,-0.030986227907111866,-0.08532413364829528,-0.019607795721103185,-0.018401403441973965,-0.031755793064254,-0.01926972034600212,-0.031668266511465766
0.1452414,0.016513647964215394,-0.024846712663084733,-0.06294851266308474,-0.022214878426691044,-0.014883331954532196,-0.009635358345438634,-0.01135569106788744,-0.022984705563625755
0.1457069,0.015862308353274294,-0.029166067640020835,-0.04447692498179943,-0.02384983089994791,-0.004887974533263877,0.028831319548587638,-0.0025198231096337756,-0.02925057599329513
0.1461724,0.015308839133852253,-0.040257513687919945,-0.025128284147054397,-0.022850239829556,-0.0016390754855769322,0.026012384068452566,-0.0049345703019307895,-0.0277005754069751
0.1466379,0.01239347513931377,-0.04955409589045543,-0.009137684220995586,-0.023830957533205216,-0.010493095585117834,-0.014749128107638124,-0.0260277710297692,-0.02056408721603
0.1471034,0.011347106114161844,-0.03943373646787949,0.011704274407475856,-0.02464121800664542,-0.015068557023041714,-0.03793377061453649,-0.04388447735090962,-0.021623719705656626
0.147569,0.01053891082331664,-0.013893829062508276,0.027037667811789613,-0.025816076643758637,-0.014190596011417509,-0.03550676723653603,-0.046868928487254685,-0.03178614074062896
0.1480345,0.011460639813846747,0.011935667738139446,0.0267363840744613,-0.0263523,-0.013176875733529981,-0.01145437169754533,-0.04307980482492978,-0.03481438759046285
0.1485,0.011902764409049329,0.03384359769099307,0.030541972908591935,-0.025709971181901343,-0.005223719813324093,0.019818999922915623,-0.04954595691997063,-0.03379584236380269
0.1489655,0.0119173,0.042919302806507055,0.047925884089552485,-0.026254552317692248,0.004884403959553228,0.028463024329968677,-0.06476607481878349,-0.019826674016570445
0.149431,0.011255366228619779,0.04334993902794287,0.06579879129307553,-0.027004767542760443,0.011018711923049134,-0.010458189698291296,-0.07864522046496344,0.004157860526403393
0.1498966,0.011566865466521921,0.033844036004342375,0.05089415760694779,-0.02782616147170643,0.0064314180021711855,-0.06948615861324244,-0.07167479426999582,-0.0009170478587319899
0.1503621,0.01451467687954778,0.016917284680678327,0.0023851257330870573,-0.028366789586234613,-0.004513582428176802,-0.10221987704122745,-0.03820834069227542,-0.028348823080032302
0.1508276,0.018112830950581266,0.0033762290172526313,-0.03875387727909902,-0.02803328963976735,-0.018597101933328638,-0.09062673990204942,0.009422544687718288,-0.04472866924664246
0.1512931,0.020112477641685004,0.0029697061638887506,-0.047933593735699116,-0.028009510644219224,-0.026021529692492433,-0.05241064079290648,0.037834897759834764,-0.047810787293506886
0.1517586,0.02193038055379615,0.016182922675738773,-0.04255951490992497,-0.02783053166772231,-0.03348985657131341,-0.031212982781648475,0.04272524665822151,-0.043007613223201055
0.1522241,0.021976138585259337,0.02163111728870861,-0.045219239238065506,-0.02788783375835964,-0.03883771344850274,-0.03814871259891173,0.0412915961292607,-0.036446060170195166
0.1526897,0.02067376558120163,0.024979152618546073,-0.059900726666375005,-0.028584500651279023,-0.04706122340997989,-0.033977535721356415,0.03669349478976782,-0.046023414292073565
0.1531552,0.017272988720368615,0.018651226255481827,-0.06876329855384793,-0.029717057950104587,-0.05502409171846835,0.008053508959034011,0.02605759030758147,-0.06766425943152186
0.1536207,0.01724455964007642,0.003830299624664569,-0.05370110792916441,-0.02968840592996527,-0.06690079868549718,0.04258221721497915,0.01963084734992061,-0.07459953929989183
0.1540862,0.01754752657802464,-0.010935061933436926,-0.03711539697833027,-0.02893428731114564,-0.07218415276986392,0.029180215206912462,0.015864149051489886,-0.08122245922228614
0.1545517,0.01847419479852841,-0.016285102893745743,-0.028694794212508513,-0.028148628901103694,-0.07600012659337785,0.015393560615357056,0.011924291904782667,-0.08686035549448154
0.1550172,0.019708620294007512,-0.008341697972639752,-0.023284122520745347,-0.028069832657546586,-0.08486282102265011,0.041570731908498956,0.016584570847503873,-0.07128127362391175
0.1554828,0.02027944444741751,0.0018701852015352038,-0.016350394488648872,-0.027715335025817994,-0.08259611523236195,0.05916521463353935,0.02008721471600207,-0.04890763128049506
0.1559483,0.019945236230289164,0.007073181151445814,-0.00564756078968093,-0.026179117381734975,-0.05928407372456679,0.04149206512648228,0.013720308644476,-0.03071327665820521
0.1564138,0.019657010921617427,0.005210208899397002,0.00040704094221435884,-0.02427606544258014,-0.04181311092161743,0.024200916497252565,0.013607502022220426,-0.020073356400654722
0.1568793,0.01925553756730377,-0.004977645676291205,-0.001373705229060277,-0.021663191891012564,-0.026976537567303772,0.021077156463045657,0.026515073421610826,0.008625478336420956
0.1573448,0.0186064725697662,-0.018446687046637267,-0.009977365595849698,-0.018892517709298597,0.003762786750315303,0.02211287054087242,0.04099949254067467,0.03529312593037809
0.1578103,0.016734863534419574,-0.03517012074599194,-0.023191284863712167,-0.017524117131110135,0.07297675225793389,0.006514829480737161,0.05739712353265275,0.041266996010355404
0.1582759,0.016839989145050825,-0.05137275065630195,-0.028549604123558225,-0.016304286351471586,0.1223925949353309,0.007032225798706411,0.06726391068657774,0.022399095911191935
0.1587414,0.017990954103506124,-0.0652808602195311,-0.02903776720951445,-0.014888861474123468,0.14015369422036253,0.021491047531720237,0.06960144528797942,0.0025300368906501685
0.1592069,0.01866500886107969,-0.0676969655344859,-0.02049227375474663,-0.0142672,0.11748316164170079,0.03140005809962027,0.06623308045208852,-0.008749650761459421
0.1596724,0.02071216321415819,-0.052963290120743675,-0.012167701975851264,-0.012348007161155116,0.08702712691966775,0.03385044580262178,0.05808701742461869,-0.011481100742249943
0.1601379,0.02110640708693286,-0.0323200026413611,-0.01150017010268196,-0.014169631571530568,0.07198502577409968,0.02610268447158906,0.04850264993634398,-0.03156529477963494
0.1606034,0.01846491025894216,-0.02846131487476483,-0.01878414072410136,-0.009513220071562955,0.044281604661970154,0.007739905196798123,0.028601540054619307,-0.060355979974584535
0.161069,0.0171422539163689,-0.036348178981129874,-0.02601527672820035,-0.007525282767976834,0.008960191400303475,0.004473401566547561,0.004473401566547561,-0.0524866585028047
0.1615345,0.017289744591119153,-0.05072995051761179,-0.031049610817761693,-0.00549156457910082,-0.03693421646814109,0.007346517917534519,-0.007975885938510967,-0.03193027436163894
0.162,0.017844919561010187,-0.05196149226093937,-0.03793261458490258,-0.0009629101148225796,-0.0838651234986258,-0.0205677497337678,-0.006440347331569058,-0.032828193994503145
0.1624655,0.01692361285660206,-0.0636013660343855,-0.04510665701300671,-0.0026430967647215263,-0.09949007222092876,-0.08298685062696158,-0.0021033644950094682,-0.024310925797715956
0.162931,0.01662947591308109,-0.07291827212711736,-0.05883279513147669,-0.002231518403114696,-0.09258799675045745,-0.1256593449358763,0.005211715968853039,-0.003741822322717765
0.1633966,0.01814203904492372,-0.08212115699683248,-0.0689788504085688,3.6216041013003263e-06,-0.08226400051108633,-0.13975408146241672,-0.004560517515410615,-0.015988623081501622
0.1638621,0.020649883996973234,-0.08271124850198634,-0.0642582062570467,0.0023638997350079265,-0.0801986802430478,-0.1250018817232789,-0.023443357790625508,-0.04431283954946954
0.1643276,0.02186678285659298,-0.07612808954120698,-0.04559076974964392,0.0047751120309189815,-0.07404445412836999,-0.09499594315655838,-0.040324879266238026,-0.058649220354574545
0.1647931,0.020222704898519944,-0.06477081704850728,-0.03199663184037963,0.0057711207969228795,-0.05657703419332708,-0.08914439644420945,-0.046249834246065845,-0.05876584750258376
0.1652586,0.01854632902106156,-0.04868469082480755,-0.038629770403369644,0.00524015612281772,-0.022171023223408092,-0.11512567639250801,-0.04667131128598274,-0.06460756683323166
0.1657241,0.01784974609225822,-0.027586512443673546,-0.04862044417084536,0.006430607815483554,0.0030089570950353386,-0.13936030318729356,-0.05571344943961512,-0.08198645884110603
0.1661897,0.01626256859091611,-0.0012620265220115528,-0.05215946987990261,0.007903965127267114,0.005821972054565104,-0.13803871355309155,-0.06958584176740013,-0.08400210923639732
0.1666552,0.0146029,0.02085725510658252,-0.059520422667397745,0.007961129934865986,-4.27293172064391e-05,-0.10112281455269946,-0.062061562797665774,-0.07463277806504705
0.1671207,0.015668251816492385,0.035276869050991734,-0.0792407537537012,0.009871424105878098,0.0031219875301791034,-0.03351474898902273,-0.0276393951505758,-0.07495383455374445
0.1675862,0.01418679624855136,0.03707587911216,-0.07954298697273897,0.010098814342243814,0.0056362036494922866,0.018197078882340983,0.010520088783679101,-0.042131517468166735
0.1680517,0.017165221649154072,0.03304670540740752,-0.058458650711115376,0.00828813831683718,0.003116079347140121,0.029730793734006698,0.02250855256599535,-0.02008346781144771
0.1685172,0.01610528829765453,0.02290499999361121,-0.03758357015018493,0.009916864931296326,-0.004223729862592654,0.00890792061328899,0.023956531376648757,-0.05578739814758375
0.1689828,0.016757671645854157,0.01833217532390276,-0.03663171419113715,0.006348528368210073,-0.014844924690161469,0.021014810499024317,0.025203667488940977,-0.06000280683503994
0.1694483,0.01774372330040882,0.025258955525249444,-0.04791837276889205,0.005925546028387614,-0.031599709385002075,0.07320288332878741,0.015932126713228936,-0.018550622264650776
0.1699138,0.020798843839028493,0.027055237073412747,-0.05228058631338138,0.004861013005289813,-0.05585238243452197,0.14992289307899712,-0.01891575726267628,-0.012698441215242993
0.1703793,0.020009927820645385,0.025998686089677307,-0.03439044815176088,0.005230173533626773,-0.08767379017984914,0.20881426322739405,-0.06359772402759374,-0.015999441730968077
0.1708448,0.02060076642598816,0.02331003390283393,-0.0075547988847510525,0.007205468066665912,-0.09756872773333636,0.16369812996383426,-0.07933018477286277,-0.017154094420322567
0.1713103,0.022517668351761843,0.027632874907268304,-0.0008146228424002963,0.005783318108285894,-0.0991094506523666,0.030763042508919678,-0.0677715195207873,-0.04872484400914061
0.1717759,0.023398360690266892,0.03401147518916787,-0.008658072138618779,0.007106552149195494,-0.08873285615822227,-0.07269989256067488,-0.020562933585557164,-0.09113150371966255
0.1722414,0.022061549275909458,0.0448718921810019,-0.007786863234804968,0.0072175,-0.07128107755534892,-0.0920286364035466,0.017878986765988692,-0.09328719813204375
0.1727069,0.01981963072309173,0.06065381472404807,0.010286190269310434,0.0072175,-0.05110478214492009,-0.07451892274238894,0.04290526111487983,-0.05595236789586321
0.1731724,0.019233735550947862,0.06321575343009488,0.0380062540794567,0.0078889,-0.03687568004146923,-0.061809145530213244,0.046291099051800066,0.0024256584455703734
0.1736379,0.019712005311036437,0.053172088468234804,0.045658499006176245,0.0078889,-0.03257125220067206,-0.0644396292107004,0.044497623068816744,0.01820848929379569
0.1741034,0.020246407876230794,0.029247220443769845,0.047538811132754114,0.005983367587826329,-0.03427262391101493,-0.05856544844695781,0.05380779924318845,0.02361494341304417
0.174569,0.020851193626845184,0.001144532967459025,0.04222475220786574,0.004545679873836243,-0.05145581760288863,-0.035605306468140446,0.07690690817062552,0.04750511176556696
0.1750345,0.02254207454299078,-0.022682024170055753,0.03146430952560788,0.005160562312822407,-0.06313858394362573,-0.014084512685757436,0.0858227035359249,0.07763425969375626
0.1755,0.02393733547179373,-0.04918120018719719,0.019956438526188253,0.004287912864663499,-0.04932510240730913,0.0027142937718160004,0.06567950598939411,0.08614392825603108
0.1759655,0.023387370355789167,-0.05927838905340876,0.010761831562283298,0.0015125055126648749,-0.006836703715368669,0.013243785017749069,0.040209903594592415,0.044283897682898
0.176431,0.022852505666296458,-0.053856118034617255,-0.011274667677634315,-0.0005590370873836852,0.0688485415800361,0.045646951208864965,0.02703222843758071,-0.02239210718274793
0.1768966,0.020498743616309323,-0.04559583079222145,-0.03945886610072746,0.002145493020738007,0.12418660498518713,0.06787734514148161,0.024439754858518393,-0.06231601296148656
0.1773621,0.021624466954899134,-0.0386557650491052,-0.05294074969104825,0.002249515586539518,0.11712807622161413,0.009651756400293709,0.019672002931429695,-0.08730422042376314
0.1778276,0.024116271849881053,-0.03713002140584887,-0.042554824302047156,0.0004294746416924295,0.05800920590917478,-0.07940248597713398,0.006743520558362276,-0.13473354486040945
0.1782931,0.0246967660159565,-0.042999517585366624,-0.02133550897079104,-0.001739140460098134,0.0394643058684152,-0.09539683754411274,-0.012677255129479363,-0.16009368114303113
0.1787586,0.024385099632330008,-0.04434119021689726,-0.017347767223009403,-0.0016751010465693961,0.026320966911779993,-0.051299147682138585,-0.03122783093864063,-0.11489385381964731
0.1792241,0.024738016511032267,-0.04345766060084133,-0.03392973709844517,-0.0009028231157174034,-0.0011265258031096564,-0.027295484946459354,-0.04424026306064258,-0.026448031371233537
0.1796897,0.024873477975822445,-0.03931393877424838,-0.054355674190412664,-0.00026495858869825435,-0.03903886882932079,-0.02793900799814524,-0.04861365268054593,0.043245796214590224
0.1801552,0.02285942736001919,-0.03240862237720865,-0.06140480849175972,-0.0017035661714148642,-0.05788449960101538,-0.021609220342120823,-0.04271540444537217,0.052308981131740526
0.1806207,0.019607437315483353,-0.026229443508159228,-0.06393555216394693,-0.0030672014426312826,-0.0515133061843004,0.0025210618485906307,-0.025953255885135505,0.06572234886490909
0.1810862,0.016609515738652252,-0.028237568686707223,-0.06370221600567076,-0.003072493199287833,-0.010881661454964813,0.031247492294685604,-0.01260586215301357,0.09420995181843607
0.1815517,0.016030943190509107,-0.037305347692903425,-0.06365752159525455,-0.002874717145794577,0.03690402696143155,0.028457015952545534,-0.027285154528861485,0.07337623771253327
0.1820172,0.016062146755627556,-0.05493493453583817,-0.05902911610081486,-0.002627326622186222,0.10323217219500143,-0.01928467025448869,-0.06571143520304484,0.006513947271233235
0.1824828,0.016147721818911876,-0.0702272989291034,-0.05186312649471626,-0.0030908665738670353,0.13972336185182782,-0.049802544173272054,-0.08576871267811768,-0.016314471249671423
0.1829483,0.014169461579145448,-0.07894010816017263,-0.04132275474119983,-0.003622538420854553,0.12288668623601956,-0.0378977466692053,-0.07126987781140152,-0.009701238685299957
0.1834138,0.01384510522604274,-0.07031740432143915,-0.027798477838631486,-0.004149459911635195,0.0733570749496053,-0.01955909062881509,-0.031396171796133646,-0.005704704145142169
0.1838793,0.016439203921796586,-0.048707862733909923,-0.019072202614531058,-0.003758447716796591,0.04105345686765529,-0.027002133344293494,0.00892777190120886,0.0029911117653897523
0.1843448,0.01816019613494533,-0.02471904479882525,-0.021257613610455157,-0.004667303865054668,0.04805415411076535,-0.044147213117313275,0.019727266139389747,0.009733800163807123
0.1848103,0.017776617836136484,-0.006012694182749103,-0.02738159378359664,-0.005760871743698402,0.06114537375634001,-0.028305729855022072,0.010663248697479361,0.019240958126092337
0.1852759,0.012979825297163905,0.013089350258256907,-0.03256051307487431,-0.005551743554203206,0.04773194129919161,0.01881098226231232,0.012723704479532649,0.020714324078017744
0.1857414,0.010753641129417879,0.027546708409203292,-0.0350971901155357,-0.004999313874043639,0.024268458440537502,-0.004606990545580317,0.028052558748123388,0.0040378764266192115
0.1862069,0.010608759660290533,0.024535797137299788,-0.0312444278769373,-0.005642843202409679,0.006289166072266976,-0.08013902644029645,0.03303674716577396,-0.02529800499649854
0.1866724,0.010866200731136547,0.012209000731136547,-0.02468002313795478,-0.008896475052591342,-0.000978838552436894,-0.07495256513570904,0.019694830445008478,-0.04871068458551788
0.1871379,0.015171930326069744,0.0037272685958313644,-0.020255685917704096,-0.00775565785038214,-0.011270924730475277,0.03462845333816672,0.003913188714181291,-0.0630639005377294
0.1876034,0.01556909660716743,0.00980053558634486,-0.016416003378381974,-0.008189337275535846,-0.018914103407283174,0.09046747624026269,0.0012093592905504217,-0.07929013558634486
0.188069,0.014139520030352846,0.01856006049576314,-0.010489653322068254,-0.008957493686302396,-0.018531840263057993,0.044541233062452654,0.003044926293462374,-0.09764259282307229
0.1885345,0.015783486314495086,0.031165776136663662,-0.009865854089976213,-0.004232113807526041,-0.00812754391214479,-0.02153891435842269,-0.0034443639609532395,-0.11072894984657279
0.189,0.015909307474786673,0.037901641111326705,-0.0085603,-0.00592928878781999,-0.0017016634675669565,-0.07137290504919867,-0.019350977810792484,-0.10671797939488016
0.1894655,0.015393488765667668,0.034523522578431824,-0.00895600999687792,-0.006834123925653406,-0.005185678924092365,-0.1043392859433637,-0.03727980546186355,-0.09145872957026135
0.189931,0.014692482296038829,0.024809107884640663,-0.014669385891592307,-0.0068818,-0.013035450100772047,-0.11761612053371882,-0.04649327890202944,-0.06267799696869826
0.1903966,0.015448303004210696,0.015750603961455077,-0.033115461302454935,-0.006470574368011968,-0.023086744229707887,-0.12009392863619874,-0.04013884063490129,-0.008756269838828455
0.1908621,0.0152743,0.011028676630191697,-0.04726203535775936,-0.006812111923583466,-0.02793556195576726,-0.10988900275084097,-0.027193276565824105,0.00961506064471437
0.1913276,0.014734743219649456,-0.018312286791493177,-0.05512030965386018,-0.007584977802539182,-0.030809374093352347,-0.07594611223088872,-0.014496530676048818,-0.03901423536285376
0.1917931,0.015909248684997095,-0.06929700543151865,-0.05521357926685803,-0.007515867233813658,-0.036189896114233615,-0.02721418602407244,-0.015798131837621507,-0.08003705597364542
0.1922586,0.018661630632624614,-0.10528742882238759,-0.05772518467476704,-0.007248279279738567,-0.04058937470755437,0.008621173024857633,-0.019027812600293972,-0.05181983961244453
0.1927241,0.01944184658577617,-0.10441645793475432,-0.06764528887967655,-0.008253015869508653,-0.03545331177551711,-0.006759471863901944,-0.01277736668817778,-0.043707236824988165
0.1931897,0.01829751500641521,-0.0760729085121889,-0.07769423648850281,-0.006981935498075438,-0.026815768978188294,-0.03503517473847771,-0.008320905485245023,-0.08814233173719467
0.1936552,0.01831993148176737,-0.04261238638155151,-0.08722557591935043,-0.005636325927069489,-0.027704841744520155,-0.03202763989810024,-0.007241831481767372,-0.08257709175223922
0.1941207,0.019396470783719245,0.002945312900211168,-0.0881977083862459,-0.00539834382442113,-0.03269593229684353,-0.008730965203509418,-0.01329198087789435,-0.014244693229052089
0.1945862,0.02000433959938235,0.05479598120185295,-0.08946667341471773,-0.005965418798147044,-0.03978642881358834,0.0023603731894999177,-0.029125131906946395,0.022671866635100242
0.1950517,0.019327051757195988,0.08918006412263618,-0.09271101709261806,-0.006198224121402005,-0.03915760351439198,0.0015227758785979944,-0.040874357827296266,0.01753201394494809
0.1955172,0.019315903427074343,0.09065357582031792,-0.09472037160972337,-0.0068818,-0.036379288576418846,0.0019211194200879616,-0.05571213867149968,0.011716392087831316
0.1959828,0.020160641204925486,0.059299006599593945,-0.08710107715644005,-0.006782360803283658,-0.033961252770447085,0.006658247229552914,-0.06347912054786754,0.010424970360596114
0.1964483,0.0205278608661677,0.005300850736667753,-0.059828463755230855,-0.005382147821556928,-0.02815321737544925,0.0073839203426553975,-0.07600513981564846,-0.009358479709439926
0.1969138,0.021020652653020538,-0.013960030202070983,-0.032201862448014956,-0.006499962046807587,-0.02415598489896451,-0.0030464489896450822,-0.07554535867275608,-0.031641818820352656
0.1973793,0.017814062723222408,-0.014529981361611204,-0.0036128581333462295,-0.005188167745499163,-0.02173533187544137,-0.016961966717838832,-0.06662628676294742,-0.04010223906255686
0.1978448,0.01639268723171649,-0.007760780139432218,0.024763565107313402,-0.005261238154461347,-0.02140574595488814,-0.030884709576212633,-0.04163271822418969,-0.0077009032617747514
0.1983103,0.01587259056573952,0.00013730425193532111,0.038472702119054424,-0.004029361676329302,-0.022177692220389292,-0.03866487735777485,-0.009119352830278144,0.04149870849004416
0.1987759,0.016311535523003212,0.02455606986033881,0.03729301194320768,-0.00556913552300321,-0.0272949197070289,-0.055095874946204985,0.029316140906345232,0.06274096983290688
0.1992414,0.017132209670534842,0.04293498664736637,0.04932818739253278,-0.004235728634066652,-0.030606937822401644,-0.06909975838092826,0.05132658151866804,0.049852392888859655
0.1997069,0.017575080149961283,0.05953747553276551,0.07681779158993028,-0.0068326801499612845,-0.03307855624688862,-0.07163066923031229,0.0526146445029178,0.022585772013219815
0.2001724,0.01665392218402485,0.05670021467475778,0.08808214295721016,-0.008337264895833243,-0.035983268650466776,-0.05064901033094612,0.036048312330963776,-0.028502775927250576
0.2006379,0.016225543038019877,0.03654204898980858,0.060527526327201264,-0.009528800563783683,-0.03384645749370377,-0.03086238836323452,-0.0012539062016205082,-0.08506508494847238
0.2011034,0.017156481408903752,0.0251478575952964,0.03527521372881134,-0.010220859295548123,-0.02520167436438499,-0.025070921392903258,-0.03823255297148173,-0.10719395701243507
0.201569,0.017203449022731472,0.020920882083184978,0.03489292679330411,-0.011461967824179669,-0.02175291079802929,-0.013821806485416943,-0.046144257429688626,-0.0724583187898852
0.2020345,0.016052075814914545,0.025014105233686166,0.04561757592878257,-0.009614610001550903,-0.023512146976864316,0.004675464417993174,-0.025641306047303303,-0.02826513488432159
0.2025,0.018421080924586247,0.024139691180205588,0.041953541741595435,-0.010122011624770137,-0.022983621162477014,0.014531351279302314,0.005623606732731149,-0.016386507798231524
0.2029655,0.01981082488558577,0.029269443206532405,0.027365723461224834,-0.012008087328378655,-0.021520981733715253,0.014435,0.03359344697056812,-0.028224045546207183
0.203431,0.01964733759573471,0.035763293405830524,0.009333939528624872,-0.015357194171708194,-0.02197042480853058,0.01231109304108768,0.050500798832987505,-0.03886311744848344
0.2038966,0.018666132512207365,0.03057227708779327,-0.0037433807999987284,-0.01722463866493925,-0.02360864927168221,0.016790248276365626,0.04405252412675707,-0.02355262019531786
0.2043621,0.01787558888632796,0.009806445806331446,-0.017208809692883693,-0.016720938158647523,-0.0250095,0.015921527033451306,0.027815401409264168,0.015951865261243887
0.2048276,0.01732392956173221,-0.00839822973980472,-0.02327698009791343,-0.015203833933247484,-0.0250095,0.01137029652277466,0.019816423368149316,0.02477833228925236
0.2052931,0.01561,-0.02822765338175476,-0.025947180240325055,-0.0135958,-0.02314655751486508,0.013355423966722423,0.014190983585111238,-0.010405616941764237
0.2057586,0.012438101709819047,-0.04005452271310133,-0.02628374381117813,-0.014363178664350619,-0.0229130346155999,0.01806250895800564,0.009104872071772614,-0.04965918102977825
0.2062241,0.010993082723579932,-0.04332862065636111,-0.025222219906428943,-0.014536693990050082,-0.020331859905618737,0.008252830046252078,0.0036492539908602865,-0.056368055867439475
0.2066897,0.011344701486150644,-0.052082088110794844,-0.0262433933123221,-0.014172895840203084,-0.017461395242893047,-0.009667326750711604,0.0012332953957827797,-0.04720378499272827
0.2071552,0.014415106625235272,-0.06503510121280687,-0.029554433898114033,-0.016154622892655485,-0.01601146083992431,-0.03371419819585719,-0.0018064132504705423,-0.046205446226180155
0.2076207,0.016735296269264316,-0.07362659537200154,-0.03308644909201697,-0.019085409255996916,-0.015373181488006172,-0.07751727133474648,-0.005598411736007199,-0.049773094806760884
0.2080862,0.01536321156692345,-0.06351539757536846,-0.040629599595826925,-0.020250531265706133,-0.01730813146779267,-0.11381072367911929,-0.009617136862328126,-0.04293951153642984
0.2085517,0.012405255481232258,-0.046467091137839214,-0.046331550864697195,-0.02009970429942293,-0.01872618101756276,-0.10789366958381952,-0.011355867855979036,-0.01934336329324118
0.2090172,0.010848457872836097,-0.029536944677082462,-0.05076542332124645,-0.019960912100918816,-0.01816247812382173,-0.08080687974901436,-0.014201604165095638,-0.024694385179053726
0.2094828,0.009856327111699389,-0.01325827353920651,-0.05436021093647914,-0.019825463847568156,-0.01685006968024415,-0.07943122386990845,-0.015932858710030518,-0.06967207157599084
0.2099483,0.01304848516522182,0.006073547401480027,-0.0535041461045255,-0.018076067376660003,-0.014353113121310919,-0.06008128497526168,-0.01542226878689083,-0.105501583754991
0.2104138,0.014221410927631522,0.023577168767859286,-0.04975425823510213,-0.01897613211713897,-0.012336415342532662,0.05371073068506532,-0.01528139348726962,-0.09383382417233493
0.2108793,0.016384048676727977,0.03740644353477885,-0.048478311559060676,-0.018746581505502926,-0.008998783115397268,0.1291889125957104,-0.01771564225961643,-0.05786292485668884
0.2113448,0.016702725709884566,0.01626681590037603,-0.040521169550856516,-0.02130586732014516,-0.013391378799498626,0.04093149083971851,-0.01493692794059592,-0.051203360620450764
0.2118103,0.016719308190788425,-0.022484909265580486,-0.039696268936447926,-0.019328853643807948,-0.014282058396166223,-0.07831901355381145,-0.015253292234111981,-0.06186823082441602
0.2122759,0.01743704254010372,-0.04762834908681281,-0.044435438786692844,-0.019702218673203434,-0.015072290277309872,-0.09491728566104285,-0.016318536188141632,-0.03606679480630314
0.2127414,0.017250366354403707,-0.044401016168580575,-0.04689197358889187,-0.020003666301148904,-0.012264283884674227,-0.0487891493892758,-0.020174393383909264,-0.0020070909256660286
0.2132069,0.016921208537979134,-0.02633863052543663,-0.04359544847403894,-0.020278208537979132,-0.011340674386062597,-0.022908514322122406,-0.024977908537979134,0.01500178292404173
0.2136724,0.01664646350488682,-0.018159511192539734,-0.03503156082518863,-0.020140491736533973,-0.012262787834962274,-0.015541485155264082,-0.02445357517117352,0.015382433566039473
0.2141379,0.015535906116536232,-0.020346846941731885,-0.025717946941731885,-0.02028732887648861,-0.012497752773902691,-0.018675591205432926,-0.02042094082519565,0.0014993771474258986
0.2146034,0.016094945269816686,-0.026053416851326325,-0.025543801084048617,-0.021354109460366626,-0.012943165854013344,-0.04737713265599452,-0.014639702032016446,-0.018606825807059125
0.215069,0.017865923611727945,-0.037379921345881695,-0.0298780493866672,-0.0216526,-0.012712152879179053,-0.0763209213458817,-0.011640735366274446,-0.02928309817725393
0.2155345,0.018433725195773885,-0.04437672020532835,-0.02758801364869174,-0.02138092728736737,-0.012648149608452229,-0.08455256273174157,-0.012845724412678344,-0.0384274440926043
0.216,0.02025073838305057,-0.04218917390431426,-0.020551569285152588,-0.02341922018485737,-0.011958548683751244,-0.06846885501825292,-0.02049763685496516,-0.049667810988568796
0.2164655,0.02197289834323735,-0.03380458353760099,-0.027109872455667646,-0.026427992983750682,-0.011137278951252048,-0.032329043870005465,-0.02765131518957537,-0.05077880472307485
0.216931,0.021658204151506,-0.025814057574594363,-0.03817849189122256,-0.027306836372054763,-0.011145682754731838,0.011052069640643241,-0.023171912066048878,-0.03237146587760637
0.2173966,0.020497550097229325,-0.029228658522330333,-0.033569473946862376,-0.027106315078020884,-0.011853463123798138,0.0467946064796643,-0.013657712874516307,-0.01188683890645086
0.2178621,0.01924954394233378,-0.03353065312906203,-0.01402635122227866,0.021391139122344735,-0.013121179097462072,0.05253798139606895,-0.006296176568380645,-0.010312809501726906
0.2183276,0.02188816615586746,-0.04355640330503302,0.0011499242280479998,0.14139264198659623,-0.01156595974514443,0.009623633022186747,-0.00594560625227476,-0.01957584519195773
0.2187931,0.025598433526047785,-0.040209586705875405,0.001256122956784707,0.17915747935668958,-0.013921648554798284,-0.038647211312948355,-0.010500528819305013,-0.02465571478149514
0.2192586,0.02399569975746385,-0.04613839927239156,-0.005088708003692874,0.13670605608087183,-0.01108805136175515,-0.061782294421668604,-0.018788754701648543,-0.017289187873192613
0.2197241,0.023842067106469172,-0.04428488632559154,-0.016781269610868805,0.06651712688215407,-0.011643494272871473,-0.05476202967080193,-0.02666977628965802,-0.0018295052930474883
0.2201897,0.02430464256075641,-0.045948875709328055,-0.030937255161010525,0.03504140953970106,-0.0115816,-0.04783587439243592,-0.026201228719621796,0.0036263029085297797
0.2206552,0.02626543313987611,-0.04422402579875223,-0.0423238322693186,0.028904889340289078,-0.012224044379958703,-0.0494286331398761,-0.019599492949061954,5.929407525106167e-06
0.2211207,0.02848741616769851,-0.02980862001688145,-0.043106616595385505,0.027634687346087504,-0.012253,-0.046160317450759485,-0.009847185543049466,-0.011148397433878039
0.2215862,0.02778199471610512,-0.0015072389594929445,-0.03734191610643157,0.02085422224906738,-0.012573658700556614,-0.027065462857823103,-0.004451735324860847,-0.048208676708330865
0.2220517,0.02675664442064738,0.02085698677214815,-0.0343060388198774,0.013107396710810883,-0.013622505557935262,-0.029083607869516123,-0.005687761094453165,-0.08719364348587384
0.2225172,0.0262601255967036,0.03396247168483618,-0.0342652684584201,0.004014960634685264,-0.01486668422921005,-0.06814530006166014,-0.005344224075985766,-0.10442015155154791
0.2229828,0.023652818681356016,0.04306279256665446,-0.036451062637287965,-0.0035525626372879667,-0.015526712088136099,-0.11096728215876961,-0.0033929295404005718,-0.08924659974182189
0.2234483,0.023495203066792834,0.054811108272173906,-0.03691557423248802,-0.0033005800555871204,-0.013745071472926652,-0.0934535653263206,-0.0008581457086697655,-0.07169542915455666
0.2239138,0.022635960134162168,0.06256635501742265,-0.03555746819596337,0.0005917681771379542,-0.009537749513991205,-0.03444426815831253,0.002930000859065059,-0.050858097385153976
0.2243793,0.023324652653640206,0.05077146202743706,-0.03212061830305579,0.0020644528759091616,-0.010825485367213521,-0.008360151488209823,0.004728869791265618,-0.043660917609206124
0.2248448,0.023118788396049167,0.03279088807152037,-0.02768588687188953,0.001897384668964614,-0.012439678995023245,-0.032469410502488374,0.0048115157537325665,-0.026422606677235443
0.2253103,0.022732322192042652,0.02101109591595239,-0.02375436362159901,-0.00028752283432859505,-0.012741558570443644,-0.061672377486814374,0.004633486459606445,-0.015903918429138013
0.2257759,0.02202763220164211,0.019755721313957766,-0.024126702109578804,0.0015576882882317152,-0.01406684859397893,-0.033998801285494866,0.00556806100821055,-0.03993782880656844
0.2262414,0.020793131547268973,0.033215756147566645,-0.024051445561663096,-0.0032039852288529734,-0.013212650558869695,0.05546320111773939,-0.0030141874643317534,-0.08331908858207114
0.2267069,0.021584895878598125,0.05785479067787838,-0.0252747156036706,-0.0112121929344529,-0.012969531599592157,0.08446952600662146,-0.020510295191531212,-0.09480824533893918
0.2271724,0.02175474130482859,0.07356346551869793,-0.032948565487641246,-0.02234458042164049,-0.009602150544791561,0.023663912770361333,-0.04321090576500008,-0.08617791382888777
0.2276379,0.023705051216051643,0.05959663939348228,-0.02972079193476461,-0.03585901376803866,-0.011558622974982254,-0.06952913523426776,-0.05890669347835336,-0.07924706649284348
0.2281034,0.021211401578152985,0.04034620157815299,-0.023254582191588623,-0.044285363085003734,-0.009042999350913244,-0.09770358826403172,-0.05676473662140952,-0.07069803290514458
0.228569,0.021295043608583537,0.024491664489978072,-0.016876302630042386,-0.05901345267625882,-0.008755519946712951,-0.07753206448997807,-0.04704539093232472,-0.013393864339544407
0.2290345,0.019601434080282122,0.010378335837616636,-0.010948669280987436,-0.0666346114701315,-0.010872489815347877,-0.06341873583761663,-0.037730622610150616,0.015256237388995663
0.2295,0.015677915020505744,-0.00978179180389287,-0.0132258195645364,-0.07583260078890422,-0.012756227074789274,-0.04884668340168582,-0.019172026743121223,-0.0005326236513308849
0.2299655,0.009727689357152106,-0.031637731180325174,-0.02352979221601802,-0.08464209056969543,-0.013094405107997238,-0.024248201036588004,0.017848813105405925,-0.020386782785713445
0.230431,0.00624892194902973,-0.05051985061468311,-0.026692135143586412,-0.0884180669853592,-0.0109102,0.004830452743628716,0.03657876248877737,0.013203042036053568
0.2308966,0.00364496865403711,-0.05442101316984667,-0.016978893014284506,-0.09109377512795051,-0.011413106473913411,-0.0012155704572311505,0.02167990146764386,0.05204500945496907
0.2313621,0.003062065899198384,-0.05185623665397587,-0.005924573273196364,-0.09227623410080162,-0.013786351151202424,-0.03048753510924165,0.0022318827335851632,0.06995664909956699
0.2318276,0.0018133697819015672,-0.040516619313176794,-0.0038147741438702217,-0.093492,-0.015824041512930535,-0.04789553130357968,0.0008466291326171837,0.04944410256087296
0.2322931,0.001741129236697864,-0.02356004475662074,-0.010627834488810174,-0.09321536491596256,-0.0178611656381299,-0.03329820310307639,0.015196531854020966,0.00725410048575329
0.2327586,0.0037567775669097325,-0.009976794969118585,-0.018205504600189465,-0.08962195054309988,-0.01589390022481585,-0.013659945512218458,0.02639872789466363,-0.021723534579601855
0.2332241,0.00725260584449663,-0.002813905200939349,-0.02223403045397135,-0.08697996528261204,-0.01335884745515669,-0.00731185850059267,0.023581140323545496,-0.022780275978456197
0.2336897,0.014153148392376469,-0.0009311052700814112,-0.021333116682490272,-0.08359461707114248,-0.010931824390514336,-0.011223966246367251,0.02108879678475294,-0.005203825167818744
0.2341552,0.019439006120352344,-0.004098441159540328,-0.02138848173991623,-0.0774386298711374,-0.011424537396739352,-0.014144090167333312,0.03419968319565247,0.005391142010868826
0.2346207,0.025184764155649242,-0.01774821225720756,-0.027864967947116355,-0.07416710753305228,-0.015890422649038786,-0.01565988114242833,0.04948044716887015,-0.004220460414064077
0.2350862,0.026104017926895928,-0.036026768156533016,-0.03469117620181133,-0.07016838748512262,-0.0180826867357761,-0.01919815738099559,0.04799966948509846,-0.016103862793014147
0.2355517,0.027058692461162104,-0.04800230411478652,-0.04333953113908633,-0.0622155029071468,-0.018210908016886348,-0.05415393989938287,0.02392202042773988,-0.01956639123970346
0.2360172,0.027366945544942782,-0.05192103688457092,-0.0580230372718881,-0.0587029221320084,-0.01871805226192226,-0.09169563236072639,-0.005572951924553594,-0.02382512579359246
0.2364828,0.026743580539332755,-0.04849125612171341,-0.0742866665659086,-0.0560155960046911,-0.01899265946267653,-0.046164888599184814,-0.014690577312378005,-0.0303807
0.2369483,0.0277060586499072,-0.048571990730789334,-0.07756841939184782,-0.054803831630343636,-0.017572146411411377,0.023792356415636037,0.0004615647545405165,-0.02965687625802235
0.2374138,0.031750589541337644,-0.05247875098284791,-0.07588864364267688,-0.054878960131046386,-0.018291730065523194,0.043349162096742215,0.02006310734017104,-0.020894125897874122
0.2378793,0.03406254899725089,-0.04604770510046228,-0.06190153626859763,-0.05424784654547023,-0.017938204457278884,0.0322099069746932,0.027315431233769005,-0.012831275806557838
0.2383448,0.03391241302507533,-0.02593556538052104,-0.04283999067438039,-0.05469816504212067,-0.017638021932803994,0.025005526387295897,0.022062281765396586,-0.004576301093436544
0.2388103,0.03338768044889071,0.00031959713849301786,-0.020379141333632042,-0.05469312241913632,-0.0176242,0.02469957758086368,0.010396926986976845,0.006666391395918911
0.2392759,0.03216408875355027,0.01009804616078153,-0.005110258358709324,-0.05302130781479251,-0.017424844376775134,0.025773332738664535,-0.0005797761639616049,0.012798377507100542
0.2397414,0.03063109738082596,0.009404142063913469,-0.0021728158721730593,-0.052101890559092735,-0.016546580903078312,0.024519906821733228,-0.0032799213836066377,0.01193392034781774
0.2402069,0.027328682281287854,0.022639746661168154,-0.0060168970722585275,-0.050754756043267506,-0.015007141140643927,0.020786864826491926,-0.009646073274757624,0.003127564562575708
0.2406724,0.025872202119333974,0.041614167976885254,-0.013673490961660546,-0.050182956674645327,-0.01269030907448108,0.020465683970371816,-0.017335318185103782,-0.008770472812698389
0.2411379,0.025671496926338223,0.05120340307366178,-0.019020306174586256,-0.05160812368839414,-0.011228639706265173,0.02346438969263382,-0.017348117541070577,-0.016971595867220083
0.2416034,0.022797969087939053,0.05407693091206094,-0.025054629037135786,-0.05505635709447313,-0.011084920515300854,0.023177036908793903,-0.015049295270351244,-0.022718565945929692
0.242069,0.015798452585942594,0.044994454497378975,-0.028720871757508978,-0.058377187668626554,-0.01216956523661136,0.016888036994120337,-0.01292836165686723,-0.02461102776354804
0.2425345,0.010688785916534785,0.030582542124524274,-0.026231566984375596,-0.059425332427136324,-0.011514435734215433,0.013743602718591028,-0.00768763786431838,-0.018846309648398948
0.243,0.006685925669138422,0.003902486520323517,-0.02080397948914074,-0.05684504737150861,-0.010430004923297008,0.008131411954479787,0.007371474467140114,-0.0018789526660663108
0.2434655,0.003894203471709161,-0.008687828003861493,-0.016503002576559338,-0.06293019443985193,-0.00964798348252497,0.0024369914972022736,0.03183094464336663,0.01131298839158343
0.243931,0.005607353559115865,-0.008251145190408137,-0.01789353702397966,-0.06356180961918373,-0.0095674,0.0006096807616325487,0.05139147564625906,0.00932460816642848
0.2443966,0.009443606410088987,0.0008734888231139579,-0.0228338312154804,-0.06231515919765121,-0.010867140802348787,0.020162031238861625,0.05740006320939515,-0.01107660484670847
0.2448621,0.01367178143329314,0.01923439349259041,-0.02562213541710406,-0.06161539114572399,-0.01222361770855203,0.04691733023967573,0.0487067304672738,-0.035883401488711594
0.2453276,0.017039640062546713,0.04600220902556992,-0.026616898169307155,-0.06316069694884525,-0.013188998169307157,0.06091727376006925,0.031036527112876404,-0.04921518204058781
0.2457931,0.02056289530202294,0.08089755616214432,-0.028474033801103422,-0.06461868101476856,-0.014153116900551712,0.06997346343284738,0.006193276957589634,-0.053163623001839036
0.2462586,0.023340101177306928,0.10741295595463446,-0.030040225026992672,-0.06462498573611723,-0.014559719404993215,0.07324722329238642,-0.02124386962965753,-0.0550387322129194
0.2467241,0.02380773344973209,0.0959154504992271,-0.0321353360085068,-0.0647517819957466,-0.01619487866950227,0.06315807106225521,-0.040996769645527655,-0.05760517534325794
0.2471897,0.03335603536250901,0.04927313688066577,-0.03307602472051169,-0.06021234343522486,-0.01484039397376936,0.045213774181967176,-0.059203019684109376,-0.048898269409729085
0.2476552,0.029324622722514668,-0.020632069658390484,-0.0391089,-0.05022699664425944,-0.01764467409372227,0.033073453143883436,-0.06868237975570478,-0.03693037657194172
0.2481207,0.031108553935165872,-0.06068188422157046,-0.039095386622119574,-0.0381672592759456,-0.017607336846907202,0.01846465021182208,-0.05827793607675958,-0.029785869546826455
0.2485862,0.03326027408373299,-0.0844131673411934,-0.03920338394417801,-0.017758733507193893,-0.017718683944178002,-0.022012957056554747,-0.04343076422328798,-0.03864006944730872
0.2490517,0.03250069564878193,-0.09061959757976716,-0.039509934509221675,-0.002156531260755064,-0.018640413113441952,-0.03137800469020424,-0.041158365216260644,-0.04372376653374203
0.2495172,0.02677882900426444,-0.09511262567145194,-0.03890264370624317,0.00909419580416211,-0.018310617560180122,0.019042969852306205,-0.03233294656444456,-0.03787660772285754
0.2499828,0.02147685197002493,-0.09763498179428644,-0.03665774908069984,0.014133904485716088,-0.01797322822787051,0.03025090800832381,-0.00038513146766122066,-0.03188789647739228
0.2504483,0.016497692364534394,-0.08850720610158985,-0.0318808077978101,0.015544140325431336,-0.015180245415329321,-0.022720023068741314,0.044294744404874714,-0.031658280162591944
0.2509138,0.010253838570185922,-0.07727832356583665,-0.022033327650587176,0.026743085016244426,-0.015334418048075435,-0.049350208718598465,0.10885892274370447,-0.03988550946599436
0.2513793,0.010029446917833005,-0.0627117657551951,-0.015794812390733007,0.033952576029659884,-0.014761040479712665,-0.035074056777363895,0.1429157545905219,-0.0440113556839429
0.2518448,0.014458780984190333,-0.050727740050400504,-0.015299443408648892,0.039667018457694096,-0.017071917220264562,-0.007970535556760269,0.12774871873675187,-0.044223110707843155
0.2523103,0.01824389528481122,-0.03984110935210024,-0.02006637443426426,0.05114937197961512,-0.02161608616513964,0.0864637217459848,0.10516181855004914,-0.04183403343690199
0.2527759,0.022547079441651987,-0.023764214755881443,-0.029452889150335712,0.05488628220688858,-0.024346073068695132,0.20182084977161402,0.08361425833931718,-0.0629866604810565
0.2532414,0.02622861003956078,-0.006024747611271638,-0.03575082602729896,0.05249581549035786,-0.02197163409770209,0.18619674300724662,0.06673311450577904,-0.09622837264636111
0.2537069,0.032233547116214165,-0.008440640860822069,-0.03305777560636947,0.05294236830105621,-0.022188547597222455,0.04676981396062121,0.06521647164314999,-0.11892796517336014
0.2541724,0.034891012653794545,-0.008317259648167725,-0.03326218445272116,0.055782040936559765,-0.019030839414568124,-0.09198881163483856,0.03691372888037737,-0.1271910603274717
0.2546379,0.03561804938903829,-0.0009014754937630783,-0.032038599250256386,0.06218952387052505,-0.018987755421456406,-0.17767249007036287,0.0013838560571682802,-0.09801414559081992
0.2551034,0.03371195784899778,0.004517798033564712,-0.029733409936431608,0.061739282357388965,-0.016536781022842627,-0.1688798036690537,-0.03085670233450735,-0.06504805024707352
0.255569,0.031343668269549124,0.00830343941766486,-0.023569012495861363,0.06512479630547599,-0.023326287978381554,-0.08472276990146395,-0.03803089038270524,-0.03938311442594213
0.2560345,0.026549958101079928,0.0072500401972977,-0.012666115958830467,0.06120038049482033,-0.026028935564235064,-0.005955081724638217,-0.026198495881621382,-0.02925679053342487
0.2565,0.021720610934127763,0.005040379298977965,-0.009779197275318624,0.05612360075569073,-0.028067457430722444,0.0389093206549556,-0.01930880896513711,-0.025497938688026873
0.2569655,0.018681311509344267,0.00012098321650189287,-0.014948770890160102,0.051894551311530916,-0.029077222201691014,0.04030476019781336,-0.020797525247266694,-0.028334850494533388
0.257431,0.012822626584958335,-0.007906234476159315,-0.0280470109811794,0.046864582500364245,-0.030711000855622072,0.020112689357320128,-0.01841904270585982,-0.038002127957702955
0.2578966,0.008615552035394347,-0.006173909661632966,-0.03361516102547082,0.04340000659039808,-0.02885497541388711,0.006254164560195882,-0.010871092873538286,-0.03837337727750187
0.2583621,0.004063461662170694,0.008146668364805142,-0.03557491554956093,0.0353575457320658,-0.024098613716326985,-0.01568829930839795,0.01229237690067353,-0.04098264017106325
0.2588276,0.0030029627179769948,0.01339853059904834,-0.0344091,0.03005221748517048,-0.01981341748517048,-0.0289869781435369,0.02852718251482952,-0.043983629807246606
0.2592931,0.0018185600326595097,0.007871135119978648,-0.0344091,0.026893705782844942,-0.016654905782844943,-0.032935117771443825,0.03168569421715506,-0.040825196511030254
0.2597586,-0.00036364867649008915,-0.005755954228063058,-0.03498257566175496,0.02248120451676179,-0.018211746029470267,-0.028925905294039645,0.025491816974583047,-0.02183429289387133
0.2602241,-0.0014962094665649567,-0.01283445916603098,-0.03441629526671752,0.019508274614426453,-0.02160942839969487,-0.024395662133740174,0.012750592429463165,-0.019002975261906536
0.2606897,-0.0007387225457916789,-0.01163068100309376,-0.03373703558345235,0.016196400328058053,-0.020476487271041607,-0.01789302576661906,-0.013863296933523754,-0.029507348466761875
0.2611552,0.002239524111306289,-0.008735986955126165,-0.03223488695512616,0.01572037588869371,-0.017038357310603647,-0.008676269964792784,-0.04666801662249512,-0.029429779822730037
0.2616207,0.005309847003072887,-0.006424177977274172,-0.029514534295455322,0.012394718266583723,-0.014349539676596818,-0.0018122546931817625,-0.06437339274477918,-0.02027773924170875
0.2620862,0.003627088785044063,-0.0010204948139404938,-0.02657213059203535,0.011840053728023568,-0.011172470144037036,-0.0007909000149980245,-0.04927641416102386,-0.008471132862022984
0.2625517,0.0050038348188765226,0.004110223770130009,-0.023406659983804614,0.006378914394020477,-0.00845784168883237,-0.00370363268899272,-0.0005929163444963603,0.001150827393242874
0.2630172,0.007292247550961932,0.010317685746057298,-0.022346271809430062,0.0013118685087886968,-0.007149572020973706,-0.009244126593135166,0.05193857872485777,0.0016390088270074549
0.2634828,0.0076631064614763105,0.03650979176397196,-0.023669731401153336,-0.0038379288648211912,-0.004546971231477342,-0.01110289468604381,0.08050819076089964,0.0007443683575547626
0.2639483,0.0072175,0.08245468412712115,-0.024626792055098642,-0.008745574576315657,0.002012774198947602,-0.006342022245723799,0.08366278411019729,-0.014179831296480275
0.2644138,0.0077925727880245235,0.1058970166861607,-0.025823945576049046,-0.013209045910183924,0.004769827546110355,-0.003335036059877384,0.071680271451485,-0.03746191484479963
0.2648793,0.008348609243742441,0.09328998123549427,-0.028228563493078902,-0.018106020917941643,0.0031514809526578826,-0.0036251174595789792,0.048855581968932714,-0.04110194977469897
0.2653448,0.008668272433580171,0.05848549220436536,-0.029887683381172522,-0.02243393239789581,-0.001650821638102507,-0.005132218802484947,0.006037948364763199,-1.7955626953647472e-05
0.2658103,0.007024673630096912,0.02356625203091364,-0.03439402547670681,-0.02630374417805815,-0.0008241295498471932,-0.009483957815264387,-0.027933688356116294,0.040600388656001796
0.2662759,0.008985419620877289,-0.005684792281065902,-0.038398621903966396,-0.029596554679622775,0.001019388773985811,-0.018264497523173117,-0.027660109713569758,0.038504942295488356
0.2667414,0.013319529945993815,-0.03552406410029357,-0.04319577037275271,-0.032389357059106096,0.0031754923213194613,-0.028144719601504255,-0.008615745925449458,0.013471300470420547
0.2672069,0.018593778978056103,-0.05914530210658464,-0.04840698982726192,-0.035218442940437994,0.004223581761108486,-0.03347196606896653,-0.005902081761108486,-0.01330777297178642
0.2676724,0.02446774465974375,-0.08327698709404652,-0.05165109050851905,-0.03685284891668654,0.006438712770828366,-0.032654654286349824,-0.028643681859508354,-0.030908917027771154
0.2681379,0.02775638802155789,-0.09344121959167415,-0.051764358453246964,-0.03873344647480486,0.007701173237402429,-0.030467385215844536,-0.04097844223012793,-0.034517319712207284
0.2686034,0.0283665,-0.10397319645560303,-0.03945643694648046,-0.040363269845274524,0.005693752770769585,-0.029261065553951162,-0.03702220029703897,-0.03006302061890191
0.269069,0.028079966522589667,-0.10496180475454103,-0.030183083963974518,-0.04111463434187234,0.00015258146395058817,-0.033196868251513675,-0.025085776277178555,-0.02763062958733131
0.2695345,0.028080530669978846,-0.10028056004968265,-0.026451646067090145,-0.041023638660042314,-0.004755810694783064,-0.03764185264263483,-0.01399969330028578,-0.02756457261783061
0.27,0.025902121475948982,-0.07282198958246089,-0.02759537795637833,-0.04102648745929207,-0.009660101135345373,-0.04355475606027859,-0.0021391598864654625,-0.027709141816552596
0.2704655,0.018659606545565945,-0.027033618776376885,-0.030655467095923768,-0.039538012259709834,-0.011877636709592377,-0.042307246838369506,0.003811689871222869,-0.01985941812662156
0.270931,0.010834125268250009,0.012330294690204241,-0.030709187540407124,-0.04047343656264233,-0.016563975314350273,-0.043313619468054496,0.005200873033084136,-0.0028654850022772557
0.2713966,0.005958786497690161,0.026730043248845082,-0.029939891877887297,-0.0404517,-0.021075794178887962,-0.04684105993398538,0.0036923270046196775,0.013007840506929517
0.2718621,0.007581077447438247,0.02605056162201494,-0.027639359545406587,-0.04050017603030623,-0.02222518905345729,-0.052542291098073846,0.0003508219250772141,0.0067594368946654795
0.2723276,0.00954524955943689,0.018979760450860243,-0.02371109333285231,-0.040762060444476514,-0.020784863781242224,-0.05529203844114034,-0.0041011351043746275,-0.006596590216576059
0.2727931,0.00859486110659144,-0.002882981131686951,-0.017466232329003205,-0.04046157418168744,-0.01706141599856188,-0.05539513856152911,-0.009419287274688349,-0.020921932732502264
0.2732586,0.004949128401567658,-0.02974895807843044,-0.011753518254504318,-0.03907071675137408,-0.013175621938823306,-0.04939285116273928,-0.0047853466560719765,-0.03401133816646738
0.2737241,-0.0017224783061078736,-0.04542724848369727,-0.01708073797320912,-0.0398801328772961,-0.008144637278013253,-0.03725434096125449,0.0029253664497880722,-0.053448088165960236
0.2741897,-0.0034382525122004016,-0.04982956527648342,-0.02244651108948275,-0.036979303349600534,-0.004730568626083954,-0.015415929418870655,0.00573045418700067,-0.06268779216670274
0.2746552,-0.001600433708683762,-0.04937015619716129,-0.025050133349355023,-0.034528878278245016,-0.001820734475406308,0.0029621673731816778,0.0026674228478062697,-0.050129363676005706
0.2751207,0.0036435009890757176,-0.05461811263664078,-0.025979125615664726,-0.03233398562797347,-5.7035142954057214e-05,0.013342884900700324,-0.004346097537341099,-0.017817009446708734
0.2755862,0.008880272179852967,-0.06859280761971218,-0.029725027820147035,-0.03238455137166697,-0.004206685213431354,0.006543479477489155,-0.010800105258970774,0.012887739899782568
0.2760517,0.025725729021480688,-0.07929977383206037,-0.03726806303790318,-0.03149210771004401,-0.008525416869772396,-0.008801979861847876,-0.016651627663929587,0.03927523677783028
0.2765172,0.0411507480829483,-0.08256774740540473,-0.040143914049363245,-0.030184902704834888,-0.01022482231622269,-0.023442598040833137,-0.018743155672264176,0.054438736958899184
0.2769828,0.0609938722770388,-0.08216250403064462,-0.039397019681473314,-0.02833251405819522,-0.01214287711345841,-0.04202560237949194,-0.018180047797863745,0.05418243423033484
0.2774483,0.06688389546543633,-0.07783350696350429,-0.03852850139270086,-0.0283665,-0.013459293392956822,-0.050344662704109124,-0.015547304178102569,0.03354149059126982
0.2779138,0.06454354661377867,-0.07092842255031309,-0.03726475864551147,-0.026900573306889337,-0.01476854135448853,-0.052953112031732794,-0.012928817291022939,0.007346689568504525
0.2783793,0.05570113928535972,-0.06654175549348353,-0.031942019387451184,-0.023123435340346322,-0.014508549872385665,-0.03928176403868009,-0.011543859948954264,-0.01809442811248668
0.2788448,0.04633765989261193,-0.06422880046356866,-0.024375965057469594,-0.019098825750916627,-0.013151590344817554,-0.02035783045220562,-0.011014326088183063,-0.036931183566999384
0.2793103,0.03891358491072514,-0.059350240546007335,-0.02169939380860059,-0.01683462114423451,-0.011275147219413922,0.006419695675721706,-0.013054179485992743,-0.045013938939985405
0.2797759,0.03318610820606157,-0.046155577006518685,-0.0256809,-0.016202599245097864,-0.009945615345297866,0.0273594,-0.016441924503285587,-0.02994824851466121
0.2802414,0.031154874779276344,-0.03158173630056165,-0.02817625222542124,-0.015080363699438349,-0.009716540751404127,-0.00045667190515032803,-0.01837781404634927,-0.008474397427667842
0.2807069,0.03126473750472438,-0.012749213386856818,-0.029094647321091113,-0.01587711203795362,-0.010437415623818905,-0.06513717991763213,-0.01680614777072551,-0.002248315174184507
0.2811724,0.029226892039994824,0.0073033904054636955,-0.03050002974451691,-0.019797594385466282,-0.011794209007757064,-0.10958681332457122,-0.013345870842262334,-0.02603406442994439
0.2816379,0.02364135899092393,0.01953746209671457,-0.034459794733425746,-0.022517853531389933,-0.012359706576159273,-0.09864799752421405,-0.010504697209211704,-0.05455322817175986
0.2821034,0.0171677260076242,0.020693460097117398,-0.036188895057181515,-0.02555298296569109,-0.016267104921943106,-0.05084677926901492,-0.005482184524778656,-0.06739289663714446
0.282569,0.015356796835983693,0.018937176894138603,-0.03302505158200815,-0.02539729996099749,-0.01843077056610599,-0.011352507285779866,-0.00271822943389401,-0.04980423892594293
0.2830345,0.0183370553717208,0.019509105227489918,-0.02973693691448054,-0.027386265283366434,-0.019102330311860434,-0.011015819000574474,5.3291199532925706e-05,-0.019528623973191956
0.2835,0.028485798688826565,0.01953903325309543,-0.028515991140870615,-0.026590908341833672,-0.008739894557095207,-0.0529683205388167,7.514755512961135e-05,-0.0014972823601121826
0.2839655,0.047192681885269816,0.016420277691951334,-0.02936574411601929,-0.024874688152926584,0.015324931150121786,-0.07333439742558365,0.002949778231585376,-0.0025133583493469635
0.284431,0.06774419538831068,0.008181675404788738,-0.027940012332011203,-0.02322895623481675,0.03744975490448552,-0.03092859241730041,0.002783021693012138,-0.015356988860697722
0.2848966,0.0771065337580346,0.0050824267397978126,-0.026316415979435428,-0.022346563947264482,0.043056086959698085,0.015564382851072036,-0.00060548776269017,-0.029724218918568936
0.2853621,0.06943924764136679,0.0019272296968699805,-0.024623954640602484,-0.02303960845266714,0.0406267802092286,0.024403651980235343,-0.006321171131667851,-0.027318481452035345
0.2858276,0.05207202490157654,-0.006724574015746219,-0.024719258538068264,-0.02359713095535591,0.034166045792640695,-0.005115657775587607,-0.007986649360869003,-0.018282048793973098
0.2862931,0.04150515882682072,-0.012958681820772946,-0.02115466340725548,-0.024718109629450338,0.029736463613043492,-0.03507629139321849,-0.010930250511334413,-0.0163384861384149
0.2867586,0.03678012038224141,-0.017291129951879747,-0.01586113297923203,-0.025509069413177557,0.024501969413177557,-0.03646155292356154,-0.01993834845621372,-0.030158653301253165
0.2872241,0.03310291021272529,-0.021745700803046265,-0.01248428079995393,-0.025709146274150125,0.024690727877150317,-0.01605287365847072,-0.022469162642699173,-0.043677510776026496
0.2876897,0.028722198811513996,-0.0248545384484084,-0.014604042329362148,-0.021045805615085813,0.02525598639285636,-0.008421883696439121,-0.01611004643651673,-0.05611311393053836
0.2881552,0.025076251981625376,-0.027596016551130934,-0.022526196036749244,-0.012722195529899076,0.01615606953662963,-0.014153956953662963,-0.01063112152316852,-0.06995673939374521
0.2886207,0.021324688457531188,-0.0249213257871592,-0.027300592325351692,-0.007563989040330655,0.0032635972905790183,-0.011389474659256028,-0.009838885104318025,-0.06274110496522732
0.2890862,0.010061164550807623,-0.018964454904863363,-0.031575345678695556,-0.00023455173107479678,-0.005025664550807623,0.006032689770496823,-0.013891859081987295,-0.03705022874754651
0.2895517,-0.0006455986915101469,-0.00849255568255238,-0.03261942333962388,0.005521111329240306,-0.0008793306264071779,0.019440452030194618,-0.01955596872831401,-0.016455974316508214
0.2900172,0.0008267434533300082,0.002291429582668994,-0.03007989217820242,0.008060500811527439,0.006143394980956096,0.0027788625955334247,-0.031968293732844474,-0.00929891652353542
0.2904828,0.005118173039334444,0.013916946904057498,-0.025595773039334444,0.006268595048337078,0.008343147040797754,-0.04102932792740713,-0.044346694218335765,-0.007235292845986131
0.2909483,0.0067712179625006984,0.020207125737504886,-0.022766228149997205,0.0062104,0.006206446112497904,-0.06361354626884046,-0.05062266496304229,-0.0004548666780832628
0.2914138,-0.0024465841153941555,0.01406521006745944,-0.017820591713871525,0.006853743443902091,0.002657982780489545,-0.06148944826996944,-0.02803373184071089,0.003076873775608364
0.2918793,-0.02196803949330583,-0.0033843194833979946,-0.012012536103320402,0.004506904154980601,0.000743963896679599,-0.037500640258301,0.008705527793359199,-0.016832136292817088
0.2923448,-0.03211044136835101,-0.01357317603676583,-0.010785079739351378,0.0016642067535495406,0.0035192128554775264,-0.034978265527017396,0.009703708110405995,-0.036981015852828175
0.2928103,-0.03499462842818983,-0.020719657288818097,-0.013926832443341442,-0.0005485359578178018,0.010630244262388958,-0.04592790901127753,-0.007876627721483459,-0.04589868768027723
0.2932759,-0.03624188237865005,-0.04073222986918161,-0.02258105404334839,-0.0002631829633608645,0.017227204291834754,-0.04842611807354636,-0.01630238621828839,-0.04769018621828839
0.2937414,-0.04466930417146842,-0.05875712660401602,-0.029603073338707268,0.000147718408274455,0.01664722837137608,-0.03079402309393076,-0.013155404126509139,-0.05227566151832702
0.2942069,-0.05855167321258594,-0.06917467455772348,-0.035468920109856215,-0.00015115908266620146,0.00672642215261514,-0.010566147594891648,-0.012445771293114721,-0.054132070620545945
0.2946724,-0.07122938403836652,-0.0736015993012523,-0.042761780805034615,-0.0005804294676317145,-0.0006557545707348136,0.0024466899465042423,-0.018836811670161716,-0.05596185210920745
0.2951379,-0.07211469273862277,-0.07784356898223907,-0.04920051909449699,-0.001921979067622657,0.004456220932377343,0.0035888559165598768,-0.020168467760638426,-0.0603549267366793
0.2956034,-0.06484172527874132,-0.08780549619877288,-0.059562667437365956,-0.005039666560479498,0.009427595919610407,-0.0019192580811388084,-0.011183699282394296,-0.059264987320388
0.296069,-0.05165135644462634,-0.09213899286129844,-0.06709941601921905,-0.009667104444217084,0.005260469555578292,-0.014000408740634641,8.647603319616266e-05,-0.045032639037256815
0.2965345,-0.032995990215738506,-0.08744916929460171,-0.07826572008933923,-0.02163794416940333,-0.0058876453863023846,-0.03902417498146997,0.0036759327215466933,-0.03148375006960828
0.297,-0.021190468183651084,-0.07842438676797124,-0.07957100287811567,-0.03197339248912187,-0.01048746746412217,-0.05611088106501019,0.0029298399298660687,-0.03154840132216795
0.2974655,-0.009340581626787458,-0.06170381150290203,-0.08051234530875571,-0.03352325049458386,-0.009261848097552088,-0.05410478078939477,-0.00891909032365837,-0.035251235061942714
0.297931,0.010402607690283349,-0.04509138333907997,-0.07527268305486717,-0.02415970971046511,-0.004363259337261336,-0.03121265604330536,-0.030454477384765574,-0.03260572307742916
0.2983966,0.023126754621237377,-0.03628949316374307,-0.07315525508959148,-0.01449726418166136,0.0035482749796033096,-0.019673619271252843,-0.03012951305375489,-0.042571527426614506
0.2988621,0.029519334423719294,-0.0256481367662066,-0.07298322396044833,-0.005898452770522439,0.015452650985781606,-0.019961044886990256,0.005817427881403539,-0.056001823754175395
0.2993276,0.03484503970256143,-0.016025840260258748,-0.06545359395363955,-0.002091810018589911,0.04024128619507974,-0.01905718998141009,0.041819559925640355,-0.05411506029743857
0.2997931,0.045380741890086486,-0.007532981788873556,-0.04811205094676289,-0.0014731349251445847,0.051884132537427706,-0.02012544039297818,0.042926785067199005,-0.044366124681877235
0.3002586,0.06744559368223899,-0.0015106,-0.029441504431815615,-0.0009397856677514203,0.05172139934007519,-0.027995119884802314,0.021503763342361364,-0.03661973072820798
0.3007241,0.0981300354111572,0.002182,-0.01810295961357119,0.0005241420908561105,0.040949678978723855,-0.035908719641173245,0.0008584234640587184,-0.03362761977918354
0.3011897,0.11523841874680585,0.0018999751508634033,-0.013689808283045533,0.0008425925055850524,0.028990895858477233,-0.03064240474497638,-0.0061700668678178715,-0.030958091716954468
0.3016552,0.10769249542481107,0.0003300701976138454,-0.014591740395227691,-0.00011371799043879734,0.029729911251554355,-0.02497602118568307,-0.003454832562275466,-0.03065115032935641
0.3021207,0.08976661064264618,-0.0015106,-0.016723543496170962,-0.0032088622154918477,0.04291989812576129,-0.02022643625613582,0.006866072411791863,-0.033758534727763495
0.3025862,0.0805414186307071,-0.0015106,-0.0151859559775896,-0.004466812662615441,0.0504677673582774,-0.01966732866299483,0.02252100174485234,-0.0338982699886051
0.3030517,0.06804851809823903,0.0026928081093076477,-0.009753013721801079,-0.005067715037598561,0.04283559065463688,-0.017123912406003597,0.044236395917826805,-0.02653791372180108
0.3035172,0.05018616323969972,0.0037361388746690637,-0.00921746423646896,-0.006523178532024884,0.026669886654587218,-0.01475373920692548,0.03641701318061275,-0.025993678532024885
0.3039828,0.02573654796112107,-0.0018685508563584497,-0.013741927201959946,-0.008415217242766825,0.006232639184448428,-0.014026808621383412,0.008727633613591626,-0.03992008699028027
0.3044483,0.009562421777635156,-0.008866130665810932,-0.018425032298548104,-0.007615427038091631,-0.005914525778918755,-0.016957778222364845,0.005742777848800548,-0.04877938310925702
0.3049138,0.0025651236060532617,-0.007402863147473768,-0.024037426294947536,-0.00784309372061094,-0.011061619671711051,-0.021663914491920906,0.016061010557578696,-0.03648095527878935
0.3053793,-0.0040507618119300474,-0.002316569922539862,-0.02832141730458187,-0.0070614526179579905,-0.009858888330542591,-0.025098973900654555,0.014961487092799916,-0.03530383900654553
0.3058448,-0.010096656688453234,-0.004767482809367783,-0.0290379,-0.008017906383078343,-0.009589966235657695,-0.02427350956753728,0.008876622293028326,-0.06187826687908499
0.3063103,-0.009034457703591499,-0.011318812435978758,-0.027759794670294817,-0.00894760266485259,-0.00565108845230544,-0.019027485787452846,0.007561517765683939,-0.09548814851439788
0.3067759,0.008170837356583697,-0.01195677806398776,-0.02326331107138062,-0.009994621973252231,-0.00022930600598102587,-0.015464486236218732,0.013977260986626114,-0.11176544291089399
0.3072414,0.02725664592773065,-0.01660246747158126,-0.022536774748975065,-0.011150511851713027,-0.004148505925856513,-0.012353812931500747,0.023740089695885855,-0.10105256626420937
0.3077069,0.03126098321870223,-0.01804118945099882,-0.016558754671497537,-0.012704238966651004,-0.015031361512246998,-0.011222567384300827,0.021687887416751577,-0.05557014101179787
0.3081724,0.030482678714798823,-0.014909933534303239,-0.011145009972349337,-0.012311430321300294,-0.030029578080003456,-0.010399757731052502,0.013566314843252464,-0.014646997088451914
0.3086379,0.029724228380620627,-0.0029866388223433165,-0.006052709043213639,-0.013235047655174177,-0.04393872137756988,-0.011846977223921074,0.005624251156699552,0.009021231882146003
0.3091034,0.031580605215840045,0.0043062306741012465,-0.004328891054306755,-0.013102409810741077,-0.0481817894313794,-0.015029337512868644,0.004298267702971398,0.009684263108070364
0.309569,0.03497710750537007,0.008057538969008802,-0.003071413332799564,-0.011783651175207042,-0.048745441319422884,-0.019571575587603522,-0.003755529567352471,-0.0005641027073304751
0.3100345,0.0411471728902892,0.006268473348736771,-0.0035248,-0.010495178099639077,-0.044220797561695876,-0.018253102896751697,-0.01219492665126323,-0.014767204292454735
0.3105,0.048146245502224,0.004384086055879723,-0.0035248,-0.009956781730251349,-0.04018290498139357,-0.013407535572262146,-0.014079313944120278,-0.02499665512071591
0.3109655,0.0492739210267249,0.0027303071500716907,-0.005051135326868278,-0.009658698803879033,-0.039626250823132626,-0.006756317385053778,-0.008254095215516134,-0.024860157549714143
0.311431,0.039340378071667834,0.0023499,-0.006442913056442408,-0.008637690207668193,-0.041588126112884816,3.916643845192948e-05,-0.0009161227152809082,-0.01594479007417489
0.3118966,0.02547834801625838,0.0024599188922502747,-0.004951605280869407,-0.007952650082495245,-0.045550850082495244,0.0098858292889986,-0.013158824008129191,0.011807385635768441
0.3123621,0.02154621852444002,0.0034018629511199565,-0.002710296720977826,-0.008183620983706653,-0.049961694733308436,0.01676473376985787,-0.04732980397533878,0.044329187438568146
0.3128276,0.022595413004613946,0.0006960896709468026,-0.005058862527588005,-0.00773714435844746,-0.0457044793418936,0.010130451797751745,-0.06995301973816365,0.04397051853581446
0.3132931,0.018859204669515447,-0.0007740233731109235,-0.008710494535457414,-0.008272229418151228,-0.03841766170533389,-0.012273054806275585,-0.05826381306208032,-0.018370804030026867
