Time,Rectus Femoris right,Rectus Femoris left,Hamstrings right,Hamstrings left,TibilaisÂ Anterior right,TibilaisÂ Anterior left,Gastrocnemius right,Gastrocnemius left
0.0,0.035526275076952246,-0.00015167384038687352,0.10695462346718906,0.0005476565672646169,-0.03865962637728518,-0.0010177076463048715,0.06060119807304552,0.007237617075727531
0.0004655,0.03573338501739962,7.764219155330885e-05,0.10821132695196095,0.0006083773260338645,-0.03647126825373691,-0.0008302239759815463,0.061729155494846775,0.007508776264715567
0.000931,0.03594104982776568,0.00030619842332516673,0.10947135480325519,0.0006690918486453395,-0.034283881882762636,-0.0006428204222287485,0.06285657734503061,0.007779730222526359
0.0013966,0.03614922709789184,0.0005339612193251007,0.11073447640738346,0.0007297907467943087,-0.03209774113666947,-0.0004555208778491804,0.06398326997507554,0.008050438815974408
0.0018621,0.03635787390786122,0.0007608971314212074,0.11200045858297483,0.0007904645991741191,-0.029913119502317283,-0.00026834922149388354,0.06510903898526502,0.008320861894302138
0.0023276,0.036566946837138056,0.0009869729100320042,0.11326906563171826,0.0008511039538914162,-0.027730290000485887,-8.132931108979721e-05,0.06623368927738904,0.008590959301360404
0.0027931,0.036776401974001616,0.001212155515131914,0.11454005939050477,0.0009116993308962659,-0.025549525105655013,0.00010551502269777132,0.06735702510796653,0.008860690887802043
0.0032586,0.036986194925274454,0.0014364121271771243,0.11581319928496359,0.0009722412244261694,-0.02337109666625014,0.00029215998296342605,0.06847885014196838,0.009130016523280252
0.0037241,0.037196280826344665,0.0016597101579454551,0.11708824238438638,0.0010327201054629851,-0.021195275825406475,0.0004785818130165212,0.06959896750702113,0.009398896108643806
0.0041897,0.03740661435148139,0.0018820172612838708,0.1183649434580325,0.001093126424201802,-0.019022332942301764,0.0006647568027884789,0.07071717984807092,0.009667289588121322
0.0046552,0.03761714972444276,0.0021033013437572775,0.11964305503280899,0.0011534506125308482,-0.016852537514107344,0.0008506612951886073,0.07183328938248686,0.009935156961487049
0.0051207,0.037827840729374895,0.002323530575192259,0.12092232745231773,0.0012136830865215604,-0.014686158098605486,0.0010362716924045565,0.07294709795558328,0.01020245829620089
0.0055862,0.038038640722000444,0.002542673399109442,0.12220250893726214,0.0012738142489279725,-0.012523462237519396,0.0012215644621436708,0.07405840709654002,0.010469153739515557
0.0060517,0.0382495026410947,0.002760698543038249,0.1234833456472048,0.001333834491694614,-0.010364716380600632,0.0014065161438115944,0.07516701807469926,0.010735203530544038
0.0065172,0.03846037902024718,0.0029775750287078986,0.1247645817436666,0.0013937341984721413,-0.008210185810516862,0.0015911033546245612,0.07627273195621825,0.011000568012280741
0.0069828,0.03867122199990587,0.0031932721821086507,0.12604595945455704,0.0014535037471399511,-0.006060134568580897,0.0017753027956518403,0.07737534966105636,0.011265207643569912
0.0074483,0.03888198333970147,0.0034077596434174593,0.12732721913992442,0.0015131335123350618,-0.003914825381359889,0.0019590912577848608,0.07847467202027526,0.01152908301101519
0.0079138,0.03909261443104828,0.003621007376782393,0.12860809935901346,0.0015726138679865837,-0.001774519588201445,0.002142445627629612,0.0795704998336309,0.011792154840824295
0.0083793,0.03930306631001825,0.003832985679960418,0.1298883369386169,0.0016319351898551513,0.00036052293028886054,0.002325342893319037,0.08066263392743554,0.012054384010583044
0.0088448,0.03951328967048418,0.004043665193803373,0.13116766704270677,0.001691087858076722,0.00249004382278641,0.002507760150242324,0.0817508752126687,0.012315731560952965
0.0093103,0.039723234877527845,0.004253016911587212,0.1324458232433297,0.0017500622597101975,0.004613786336773241,0.0026896746066882725,0.08283502474331508,0.012576158707286749
0.0097759,0.03993285198110853,0.004461012188179845,0.1337225375927499,0.0018088487912883684,0.006731495387023388,0.0028710635894002284,0.08391488377490823,0.012835626851155819
0.0102414,0.04014209072998709,0.004667622749043137,0.13499754069682182,0.001867437861371714,0.008842917623023291,0.003051904549040461,0.08499025382325796,0.013094097591784192
0.0107069,0.040350900585900344,0.004872820699064844,0.13627056178957375,0.001925819893104609,0.010947801495305212,0.003232175065562184,0.08606093672334,0.013351532737382866
0.0111724,0.04055923073798043,0.00507657853121648,0.13754132880898237,0.001983985326773515,0.01304589732067399,0.0034118528534877192,0.08712673468832594,0.013607894316378892
0.0116379,0.04076703011741331,0.005278869135033344,0.13880956847391718,0.0020419246223667476,0.015136957346309892,0.003590915767091466,0.0881874503687316,0.013863144588533495
0.0121034,0.04097424741233061,0.005479665804913137,0.14007500636223208,0.002099628262135419,0.017220735812732545,0.003769341805486435,0.08924288691166204,0.014117246055943599
0.012569,0.04118083108292839,0.005678942248229788,0.14133736698998078,0.0021570867531551636,0.019296989015613115,0.003947109117613177,0.09029284802013103,0.014370161473921525
0.0130345,0.04138672937680649,0.005876672593259343,0.14259637389173116,0.002214290629888257,0.021365475366423824,0.0041241960071299825,0.09133713801243275,0.014621853861747719
0.0135,0.04159189034452175,0.006072831396914957,0.14385174970195264,0.0022712304567457423,0.02342595545191558,0.0043005809372033245,0.09237556188154361,0.014872286513291528
0.0139655,0.04179626185534815,0.006267393652288223,0.14510321623744976,0.0023278968306491765,0.025478192092415603,0.004476242535197597,0.09340792535453184,0.0151214230074952
0.014431,0.04199979161323695,0.0064603347959942764,0.1463504945808147,0.0023842803835916015,0.027521950398937838,0.004651159597263392,0.09443403495195217,0.015369227218716516
0.0148966,0.042202427172969625,0.0066516307153183605,0.14759330516486976,0.002440371785197361,0.02955699782909932,0.004825311092823692,0.09545369804720348,0.01561566332692562
0.0153621,0.04240411595649636,0.006841257755161753,0.14883136785807188,0.0024961617452803793,0.031583104241836274,0.004998676168957621,0.09646672292582638,0.01586069582775212
0.0158276,0.04260480526945287,0.0070291927247851755,0.1500644020508499,0.002551641016400529,0.03360004195091399,0.005171234154681598,0.09747291884471813,0.016104289542378865
0.0162931,0.042804442317848274,0.0072154129043480375,0.15129212674284412,0.0026068003964177106,0.035607585777225115,0.005342964565127944,0.09847209609124209,0.016346409627279096
0.0167586,0.043002974224916744,0.0073998960512420865,0.1525142606310182,0.002661630731043273,0.037605513099871125,0.00551384710562119,0.0994640660422087,0.016587021583794038
0.0172241,0.04320034804812565,0.007582620406218226,0.15373052219861214,0.0027161229163883732,0.03959360390602173,0.005683861675652546,0.10044864122270517,0.016826091267548002
0.0176897,0.043396510796332936,0.007763564699305472,0.15494062980490417,0.0027702679015088895,0.04157164083954711,0.005852988372753288,0.1014256353647502,0.017063584897698145
0.0181552,0.043591409447086504,0.00794270815552116,0.15614430177574884,0.0028240566909464794,0.04353940924841752,0.00602120749626805,0.10239486346575005,0.017299469066016055
0.0186207,0.04378499096405836,0.008120030500371647,0.15734125649485758,0.0028774803472653566,0.04549669723086488,0.006188499551029224,0.10335614184673095,0.017533710745798278
0.0190862,0.043977202314606154,0.008295511965142888,0.15853121249578692,0.0029305299935843618,0.04744329568030096,0.006354845250933825,0.1043092882103231,0.017766277300602807
0.0195517,0.044167990487455094,0.008469133291980336,0.1597138885545987,0.002983196816103882,0.04937899832898631,0.006520225522424211,0.10525412169847022,0.017997136492808794
0.0200172,0.044357302510492636,0.008640875738757704,0.16088900378315568,0.0030354720666271626,0.051303601790444096,0.0066846215078740796,0.10619046294983814,0.01822625649199694
0.0204828,0.044545085468669005,0.008810721083734074,0.1620562777230142,0.0030873470650755463,0.053216905600612895,0.006848014568881152,0.1071181341568959,0.018453605883148372
0.0209483,0.04473128652199625,0.008978651629998976,0.16321543043987485,0.003138813201997168,0.05511871225773239,0.00701038628946786,0.10803695912264166,0.018679153674660276
0.0214138,0.04491585292363861,0.009144650209704912,0.16436618261855032,0.0031898619410686284,0.057008827260956144,0.0071717184791913685,0.10894676331694543,0.018902869306176965
0.0218793,0.04509873203808729,0.009308700188086895,0.16550825565840907,0.0032404848215891817,0.058887059147685626,0.007331993176164169,0.10984737393248054,0.01912472265623533
0.0223448,0.04527987135941245,0.009470785467268443,0.16664137176925217,0.003290673460966951,0.06075321952961968,0.007491192649986456,0.11073861994021464,0.01934468404972375
0.0228103,0.0454592185295853,0.009630890489853508,0.1677652540675796,0.003340419557196695,0.06260712312751335,0.007649299404591429,0.11162033214443148,0.019562724265153687
0.0232759,0.04563672135686334,0.00978900024230371,0.168879626673202,0.003389714891328627,0.06444858780463993,0.007806296181004652,0.11249234323725353,0.019778814541743378
0.0237414,0.045812327834231656,0.009945100258100262,0.1699842148061519,0.003438551329927783,0.0662774345989497,0.007962165960018534,0.11335448785263569,0.019992926586313072
0.0242069,0.04598598615789299,0.010099176620690013,0.17107874488384886,0.0034869208275234453,0.06809348775391919,0.00811689196478293,0.11420660261979958,0.020205032579991584
0.0246724,0.0461576447457995,0.010251215966215031,0.17216294461847165,0.003534815429048136,0.06989657474808456,0.008270457663312858,0.11504852621607801,0.020415105184734
0.0251379,0.0463272522562188,0.010401205486025328,0.17323654311448874,0.003582227272265739,0.07168652632325334,0.00842284677091425,0.11588009941913881,0.020623117549650655
0.0256034,0.04649475760632666,0.010549132928974383,0.17429927096629919,0.0036291485901883006,0.07346317651138792,0.008574043252528649,0.11670116515855652,0.020829043317147578
0.026069,0.04666010999081854,0.010694986603497332,0.17535086035593325,0.003675571713481122,0.07522636266015464,0.00872403132499777,0.11751156856670125,0.021032856628878657
0.0265345,0.04682325890053178,0.010838755379471827,0.17639104515076262,0.0037214890728557476,0.07697592545713267,0.008872795459248928,0.11831115702891287,0.021234532131509866
0.027,0.04698415414107017,0.01098042868986171,0.17741956100116793,0.003766893201450459,0.07871170895267698,0.009020320382402297,0.11909978023292916,0.02143404498229591
0.0274655,0.047142745851422085,0.011119996532143744,0.1784361454381115,0.0038117767371978924,0.08043356058143136,0.00916659107980112,0.11987729021753571,0.02163137085446953
0.027931,0.04729898452256352,0.01125744946951781,0.17944053797056217,0.003856132425179375,0.08214133118248818,0.009311592796966002,0.12064354142040526,0.021826485942443664
0.0283966,0.04745282101603694,0.011392778631901022,0.1804324801827169,0.0038999531199655833,0.08383487501819423,0.009455311041474453,0.12139839072509319,0.022019366966826666
0.0288621,0.04760420658249696,0.011525975716706344,0.18141171583096422,0.003943231787943099,0.08551404979160367,0.009597731584766917,0.12214169750715564,0.022209991179250734
0.0293276,0.04775309288021371,0.011657032989406345,0.18237799094053153,0.003985961509626463,0.0871787166625817,0.00973884046388051,0.12287332367935645,0.022398336367013792
0.0297931,0.04789943199352451,0.011785943283882811,0.18333105390175977,0.00402813548195529,0.08882874026256452,0.009878623983111725,0.12359313373592866,0.022584380857534923
0.0302586,0.04804317645122431,0.011912700002563038,0.1842706555659462,0.004069747020575994,0.09046398870798279,0.01001706871560935,0.12430099479585681,0.02276810352262358
0.0307241,0.048184279244884984,0.01203729711634365,0.18519654934069682,0.004110789562107647,0.09208433361235782,0.010154161504898864,0.12499677664514587,0.022949483782562678
0.0311897,0.048322693847093326,0.012159729164302935,0.18610849128472998,0.004151256666391462,0.09368965009708027,0.010289889466339505,0.1256803517780422,0.023128501610005743
0.0316552,0.04845837422959707,0.012279991253202708,0.18700624020207274,0.004191142018723372,0.09527981680088246,0.010424239988515212,0.1263515954371725,0.023305137533688288
0.0321207,0.048591274881347866,0.012398079056780835,0.18788955773559207,0.004230439432069138,0.09685471588801517,0.010557200734560535,0.12701038565256723,0.023479372641953527
0.0325862,0.0487213508264299,0.012513988814835671,0.18875820845980357,0.004269142849261418,0.09841423305514092,0.010688759643422583,0.12765660327953646,0.02365118858609266
0.0330517,0.04884855764186223,0.012627717332103787,0.1896119599729007,0.004307246345178224,0.09995825753695492,0.01081890493106,0.12829013203536863,0.02382056758349982
0.0335172,0.04897285147526278,0.012739261976932597,0.19045058298794917,0.004344744128902185,0.10148668211054522,0.010947625091579885,0.1289108585348254,0.023987492420641732
0.0339828,0.04909418906236168,0.012848620679749694,0.19127385142319112,0.004381630545860015,0.10299940309850339,0.011074908898313474,0.12951867232440906,0.024151946455842024
0.0344483,0.04921252774435143,0.0129557919313309,0.1920815424914053,0.004417900079941625,0.10449632037079759,0.011200745404831385,0.13011346591538253,0.02431391362187992
0.0349138,0.049327825485061164,0.013060774780869252,0.19287343678827126,0.004453547355598301,0.10597733734542081,0.011325123945899204,0.13069513481552522,0.02447337842840304
0.0353793,0.04944004088794246,0.013163568833847302,0.1936493183796846,0.00448856713991942,0.10744236098782807,0.0114480341383741,0.13126357755961127,0.024630325964153824
0.0358448,0.049549133212853695,0.01326417424971528,0.19440897488797315,0.004522954344687175,0.10889130180917772,0.01156946588204318,0.13181869573859983,0.02478474189900899
0.0363103,0.04965506239263033,0.013362591739377714,0.19515219757696387,0.004556704028408794,0.11032407386339264,0.011689409360404265,0.13236039402753003,0.02493661248583138
0.0367759,0.049757789049428014,0.013458822562491134,0.19587878143585064,0.004589811398325757,0.11174059474305864,0.011807855041389762,0.13288858021211433,0.025085924562133446
0.0372414,0.04985727451082508,0.013552868524575504,0.1965885252618146,0.004622271812399465,0.11314078557417741,0.011924793678034219,0.13340316521402737,0.02523266555155165
0.0377069,0.04995348082567143,0.013644731973942,0.19728123174134746,0.004654080781272828,0.11452457100979267,0.012040216309086154,0.13390406311488687,0.02537682346513097
0.0381724,0.05004637077967049,0.013734415798439691,0.19795670753022798,0.004685233970207197,0.11589187922250854,0.012154114259564676,0.13439119117892495,0.025518386902418984
0.0386379,0.05013590791068145,0.013821923422023652,0.19861476333210268,0.004715727200994056,0.11724264189591975,0.0122664791412613,0.1348644698743478,0.025657345052368913
0.0391034,0.05022205652372965,0.013907258801147047,0.19925521397561974,0.004745556453840841,0.11857679421497434,0.01237730285318732,0.13532382289338152,0.025793687694051323
0.039569,0.050304781705713605,0.013990426420979665,0.19987787849006614,0.004774717869230248,0.11989427485528965,0.012486577581966994,0.13576917717100065,0.025927405197174316
0.0400345,0.05038404933979782,0.014071431291455374,0.20048258017945741,0.0048032077497523135,0.12119502597144272,0.012594295802176818,0.13620046290233645,0.026058488522412254
0.0405,0.050459826119481896,0.014150278943150959,0.20106914669502962,0.004831022561908578,0.12247899318425698,0.012700450276631102,0.13661761355876093,0.026186929221543098
0.0409655,0.05053207956233695,0.014226975422998719,0.2016374101060832,0.004858158937887572,0.12374612556710661,0.01280503405661414,0.13702056590264214,0.026312719437394473
0.041431,0.05060077802340158,0.014301527289835154,0.20218720696912784,0.004884613677310863,0.12499637563125991,0.012908040482059133,0.13740926000076786,0.02643585190359859
0.0418966,0.05066589070823033,0.014373941609787954,0.20271837839527865,0.004910383748948881,0.12622969931028274,0.013009463181674136,0.13778363923643377,0.0265563199441561
0.0423621,0.0507273876855885,0.014444225951503452,0.20323077011585125,0.004935466292405706,0.12744605594352265,0.013109296073015178,0.13814365032019355,0.026674117472809095
0.0428276,0.050785239899788094,0.014512388381216561,0.2037242325461044,0.004959858619771974,0.12864540825869358,0.013207533362506756,0.13848924329926904,0.026789238992223834
0.0432931,0.050839419182660085,0.014578437457665194,0.2041986208470764,0.004983558217245025,0.1298277223535802,0.013304169545409942,0.13882037156561933,0.026901679592983924
0.0437586,0.0508898982651591,0.014642382226851068,0.2046537949854621,0.005006562746715366,0.1309929676768811,0.013399199405738381,0.13913699186266884,0.02701143495239523
0.0442241,0.050936650788597,0.014704232216648922,0.20508961979147655,0.005028870047318526,0.1321411170082089,0.013492618016122549,0.13943906429069616,0.02711850133310412
0.0446897,0.050979651315502535,0.014763997431266086,0.20550596501465296,0.0050504781369513025,0.13327214643726668,0.013584420737622734,0.1397265523108866,0.027222875581531168
0.0451552,0.051018875340104373,0.014821688345554584,0.20590270537752337,0.005071385213751395,0.13438603534221985,0.013674603219491205,0.13999942274805355,0.027324555126122592
0.0456207,0.05105429929843535,0.014877315899178064,0.2062797206271337,0.005091589657539385,0.1354827663672845,0.013763161398884073,0.14025764579203528,0.027423537975421967
0.0460862,0.05108590057805583,0.014930891490636092,0.20663689558434795,0.005111090031221964,0.13656232539955335,0.013850091500523498,0.14050119499777625,0.02751982271596472
0.0465517,0.05111365752739445,0.01498242697114851,0.20697412019089945,0.0051298850821553475,0.13762470154508194,0.013935390036311068,0.14073004728410354,0.02761340850999796
0.0470172,0.0511375494647046,0.01503193463840287,0.20729128955415158,0.005147973743467748,0.13866988710425976,0.014019053804893255,0.14094418293121208,0.02770429509302824
0.0474828,0.05115755668663498,0.01507942723016807,0.2075883039895343,0.005165355135339806,0.13969787754649038,0.014101079891180063,0.14114358557687331,0.027792482771199865
0.0479483,0.051173660476412586,0.015124917917777527,0.20786506906062793,0.005182028566241913,0.14070867148420677,0.014181465665818006,0.14132824221138476,0.027877972418506643
0.0484138,0.05118584311163654,0.015168420299485312,0.2081214956168693,0.005197993534127349,0.1417022706462485,0.014260208784618526,0.14149814317127957,0.02796076547384028
0.0488793,0.05119408787168072,0.015209948393698712,0.2083574998288605,0.005213249727580259,0.14267867985062743,0.014337307187942946,0.14165328213181694,0.028040863937878767
0.0493448,0.051198379044703056,0.01524951663209076,0.20857300322126596,0.005227797026917503,0.14363790697670994,0.014412759100044945,0.14179365609827602,0.028118270369818427
0.0498103,0.0511987019342593,0.015287139852596119,0.20876793270328733,0.0052416355052435125,0.14457996293684333,0.0144865630283715,0.1419192653960775,0.028192987883953274
0.0502759,0.05119504286551884,0.015322833292293782,0.20894222059671036,0.005254765429457292,0.14550486164745433,0.014558717762823107,0.14203011365975787,0.028265020146105248
0.0507414,0.05118738919108011,0.015356612580179922,0.2090958046615221,0.005267187261210835,0.14641261999964714,0.014629222374974007,0.14212620782082258,0.02833437136990886
0.0512069,0.05117572929638332,0.015388493729834193,0.20922862811910123,0.00527890165781818,0.14730325782932857,0.014698076217253105,0.14220755809450544,0.02840104631295355
0.0516724,0.051160052604718155,0.015418493131982814,0.20934063967298688,0.005289909473114468,0.14817679788688645,0.01476527892208612,0.14227417796546163,0.02846505027278694
0.0521379,0.05114034958182424,0.015446627546961744,0.2094317935272351,0.005300211758264332,0.14903326580644735,0.014830830400999459,0.14232608417242193,0.028526389082781895
0.0526034,0.051116611740082266,0.015472914097083302,0.2095020494023737,0.00530980976251906,0.14987269007473786,0.014894730843686206,0.14236329669183614,0.028585069107870113
0.053069,0.05108883164229409,0.015497370258909493,0.2095513725489692,0.00531870493392198,0.15069510199957342,0.01495698071703454,0.14238583872053293,0.028641097240144783
0.0535345,0.0510570029050504,0.0155200138554353,0.20957973375881986,0.0053268989199615905,0.1515005356779974,0.015017580764118747,0.14239373665742344,0.028694480894334587
0.054,0.05102112020168523,0.015540863048185095,0.20958710937379124,0.00533439356817193,0.15228902796409213,0.015076532003152968,0.1423870200842756,0.02874522800315126
0.0544655,0.05098117926481689,0.015559936329225234,0.20957348129230952,0.00534119092667974,0.15306061843648383,0.015133835726407646,0.14236572174558493,0.02879334701251261
0.054931,0.05093717688847591,0.015577252513095911,0.20953883697352932,0.005347293244697906,0.153815349365562,0.015189493499088557,0.14232987752756776,0.02883884687664277
0.0553966,0.05088911092982102,0.015592830728665292,0.2094831694391904,0.005352702972964708,0.15455326568043382,0.015243507158178158,0.1422795264363011,0.028881737053051238
0.0558621,0.050836980310445,0.015606690410909006,0.20940647727317724,0.005357422764128317,0.15527441493563318,0.01529587881123893,0.14221471057503426,0.028922027497392033
0.0563276,0.05078078501727286,0.015618851292618226,0.20930876461879488,0.005361455473076045,0.1559788472776031,0.015346610835178243,0.14213547512069546,0.028959728658204127
0.0567931,0.050720526103055566,0.015629333396039558,0.2091900411737724,0.005364804157207841,0.1566666154109698,0.015395705874974207,0.14204186829961632,0.028994851471534213
0.0572586,0.050656205686463174,0.015638157024450157,0.20905032218300432,0.005367472076653568,0.15733777456462492,0.015443166842361845,0.1419339413624968,0.029027407355442812
0.0577241,0.05058782695178149,0.01564534275367162,0.20888962842904044,0.005369462694433614,0.15799238245763186,0.015488996914478807,0.141811748558632,0.029057408204394543
0.0581897,0.050515394148216985,0.015650911423526304,0.2087079862203334,0.00537077967656249,0.15863049926497047,0.01553319953246983,0.1416753471094211,0.029084866383533425
0.0586552,0.0504389125888153,0.015654884129239797,0.20850542737725478,0.005371426892095045,0.1592521875831332,0.015575778400049029,0.14152479718117755,0.029109794722843987
0.0591207,0.05035838864899862,0.015657282212793357,0.20828198921588972,0.005371408413115051,0.15985751239558488,0.0156167374820191,0.14136016185725925,0.029132206511198862
0.0595862,0.050273829764727794,0.015658127254230138,0.2080377145296214,0.005370728514665912,0.16044654103809722,0.015656081002746413,0.14118150710953556,0.02915211549029342
0.0600517,0.050185244430294956,0.015657441062918973,0.2077726515685174,0.005369391674623312,0.16101934316396824,0.01569381344459112,0.14098890176920786,0.02916953584846816
0.0605172,0.0500926421957529,0.015655245668779356,0.20748685401653202,0.005367402573509609,0.1615759907091365,0.01572993954629142,0.14078241749699835,0.029184482214419317
0.0609828,0.04999603366398745,0.015651563313471235,0.20718038096653926,0.005364766094249813,0.16211655785719942,0.015764464301301254,0.14056212875272203,0.02919696965079815
0.0614483,0.04989543048743902,0.01564641644155309,0.20685329689321363,0.005361487321868963,0.16264112100434447,0.015797392956080743,0.1403281127642564,0.029207013647699398
0.0619138,0.04979084536447991,0.015639827691611752,0.20650567162377717,0.0053575715431307,0.1631497587242021,0.015828731008338863,0.14008044949592277,0.029214630116039093
0.0623793,0.04968229203545406,0.015631819887367424,0.20613758030663373,0.005353024246116861,0.1636425517326283,0.015858484205227893,0.1398192216162934,0.02921983538082204
0.0628448,0.049569785278385806,0.015622416028757299,0.20574910337791366,0.005347851119747881,0.16411958285242703,0.015886658541489254,0.1395445144654395,0.029222646174299153
0.0633103,0.049453340904364665,0.015611639283001378,0.20534032652595438,0.005342058053243828,0.16458093697802187,0.015913260257550358,0.13925641602163455,0.029223079629014846
0.0637759,0.04933297575261306,0.015599512975654043,0.20491134065374467,0.0053356511355258434,0.16502670104008801,0.01593829583757211,0.1389550168675285,0.029221153270744604
0.0642414,0.04920870768524428,0.015586060581645066,0.20446224183936285,0.005328636654557794,0.16545696397015736,0.01596177200744679,0.13864041015581008,0.029216885011322975
0.0647069,0.049080555581717644,0.015571305716313795,0.20399313129444163,0.005321021096627915,0.16587181666520998,0.01598369573274608,0.138312691574374,0.029210293141362167
0.0651724,0.04894853933299819,0.0155552721264403,0.2035041153206948,0.00531281114557021,0.1662713519522669,0.01600407421661924,0.13797195931101217,0.029201396322861548
0.0656379,0.04881267983542803,0.015537983681277229,0.20299530526454312,0.005304013681925341,0.16665566455300057,0.01602291489764144,0.13761831401764804,0.02919021358170856
0.0661034,0.04867299898431642,0.015519464363586121,0.2024668174698802,0.005294635782040725,0.1670248510483796,0.01604022544761254,0.13725185877413504,0.029176764300071573
0.066569,0.04852951966725557,0.015499738260681815,0.2019187732290189,0.00528468471710956,0.16737900984336535,0.016056013769306657,0.13687269905164065,0.02916106820868547
0.0670345,0.04838226575716879,0.015478829555488528,0.2013512987318632,0.005274167952148427,0.1677182411316779,0.016070287994173163,0.13648094267563884,0.029143145379030906
0.0675,0.04823126210509752,0.015456762517611206,0.20076452501335149,0.005263093144913151,0.16804264686064962,0.016083056479989942,0.13607669978853462,0.029123016215408453
0.0679655,0.04807653453273335,0.015433561494425763,0.20015858789921925,0.005251468144752537,0.16835233069618286,0.01609432780847008,0.13566008281194478,0.02910070144690936
0.068431,0.04791810982470083,0.015409250902191845,0.19953362795012938,0.005239300991399594,0.16864739798782954,0.016104110782823196,0.1352312064086605,0.029076222119285143
0.0688966,0.047756015720596665,0.01538385521719185,0.19888979040422156,0.005226599913699838,0.16892795573400812,0.01611241442527275,0.13479018744431726,0.029049599586718673
0.0693621,0.04759028090679092,0.01535739896689994,0.1982272251181323,0.005213373328276281,0.1691941125473729,0.01611924797453068,0.13433714494879884,0.02902085550349998
0.0698276,0.047420935007995546,0.015329906721184835,0.19754608650653746,0.0051996298381307635,0.16944597862034952,0.016124620883230727,0.13387220007740214,0.02899001181561018
0.0702931,0.04724800857860563,0.015301403083550094,0.19684653348027012,0.005185378231181341,0.16968366569084928,0.016128542815321778,0.13339547607178992,0.028957090752217144
0.0707586,0.047071533093818896,0.015271912682415614,0.1961287293830669,0.005170627478735495,0.16990728700817442,0.01613102364342274,0.13290709822075888,0.028922114817086876
0.0712241,0.04689154094053889,0.015241460162443987,0.1953928419269952,0.0051553867338990835,0.17011695729912635,0.0161320734461404,0.13240719382085048,0.02888510677991499
0.0716897,0.04670806540806768,0.015210070175915243,0.19463904312661287,0.005139665329920982,0.17031279273432848,0.0161317025053518,0.1318958921368309,0.028846089667583077
0.0721552,0.046521140678593476,0.015177767374153502,0.19386750923191254,0.005123472778473486,0.1704949108947752,0.016129921303452754,0.13137332436206683,0.02880508675534509
0.0726207,0.04633080181747916,0.015144576399008965,0.19307842066010023,0.005106818767868585,0.17066343073861912,0.01612674052057415,0.13083962357882212,0.028762121557949254
0.0730862,0.046137084763357324,0.015110521874398682,0.19227196192625737,0.00508971316121029,0.1708184725682081,0.016122171031767846,0.13029492471849988,0.028717217820701156
0.0735517,0.04594002631803799,0.015075628397909546,0.19144832157293418,0.005072165994483226,0.17096015799738282,0.016116223904164076,0.12973936452185347,0.028670399510473628
0.0740172,0.0457396641362347,0.015039920532466992,0.19060769209872136,0.005054187474577734,0.17108860991904531,0.016108910394102453,0.1291730814991888,0.028621690806669275
0.0744828,0.045536036715115254,0.015003422798072931,0.18975026988584415,0.005035787977251778,0.17120395247300788,0.016100241944238734,0.12859621589058012,0.028571116092141382
0.0749483,0.04532918338368311,0.014966159663616387,0.1888762551268231,0.005016978045029946,0.1713063110141304,0.016090230180629658,0.12800890962611994,0.028518699944079167
0.0754138,0.045119144291995754,0.014928155538760332,0.18798585175024357,0.004997768385039869,0.171395812080754,0.0160788869097983,0.12741130628622294,0.028464467124863297
0.0758793,0.044905960400226416,0.01488943476590809,0.1870792673456745,0.004978169866786352,0.17147258336343765,0.01606622411578239,0.12680355106200336,0.02840844257289785
0.0763448,0.04468967346757536,0.014850021612252746,0.18615671308777737,0.00495819351986353,0.17153675367400426,0.01605225395716804,0.12618579071574412,0.028350651393424898
0.0768103,0.04447032604103742,0.014809940261912857,0.18521840365964382,0.004937850531605298,0.17158845291490032,0.016036988764111307,0.12555817354147497,0.028291118849328157
0.0772759,0.04424796144403222,0.01476921480815769,0.1842645571754018,0.0049171522446742714,0.17162781204887287,0.01602044103534996,0.12492084932567672,0.028229870351932133
0.0777414,0.04402262376490384,0.014727869245725209,0.18329539510212745,0.004896110154589531,0.171654963068966,0.016002623435207808,0.12427396930812727,0.02816693145180331
0.0782069,0.04379435784529651,0.014685927463235802,0.1823111421811009,0.004874735907193357,0.17167003896883776,0.015983548790593834,0.12361768614290417,0.028102327829559934
0.0786724,0.043563209268413325,0.014643413235704677,0.18131202634844357,0.004853041296057202,0.17167317371339824,0.01596323008799832,0.12295215385955795,0.028036085286696877
0.0791379,0.04332922434716459,0.014600350217155762,0.18029827865517425,0.004831038259827143,0.1716645022097675,0.015941680470488006,0.12227752782446902,0.027968229736431857
0.0796034,0.04309245011221286,0.014556761933339773,0.1792701331867207,0.00480873887950905,0.171644160278553,0.01591891323470228,0.12159396470240026,0.027898787194579267
0.080069,0.04285293429992154,0.014512671774559109,0.17822782698192385,0.004786155375693726,0.17161228462544498,0.01589494182785221,0.12090162241825655,0.02782778377045752
0.0805345,0.04261072534021383,0.014468102988602065,0.1771715999515719,0.004763300105722293,0.1715690128131281,0.015869779844724177,0.12020066011906076,0.027755245657835752
0.081,0.042365872344349104,0.014423078673788807,0.1761016947965003,0.004740185560792134,0.17151448323350932,0.015843441024689747,0.11949123813615546,0.027681199125925607
0.0814655,0.04211842509262329,0.01437762177213149,0.17501835692529508,0.004716824363003774,0.17144883508025974,0.01581593924872326,0.11877351794763825,0.027605670510423546
0.081931,0.04186843402200005,0.014331755062610748,0.17392183437163466,0.0046932292623490905,0.17137220832167038,0.015787288536428568,0.11804766214103785,0.027528686204609184
0.0823966,0.04161595021367933,0.014285501154570734,0.17281237771130747,0.004669413133641347,0.17128474367382063,0.015757503043076205,0.11731383437623732,0.027450272650504853
0.0828621,0.04136102538060986,0.014238882481234828,0.17169023997894056,0.004645388973387603,0.17118658257405872,0.015726597056652192,0.11657219934865014,0.027370456330101635
0.0833276,0.04110371185495185,0.014191921293343996,0.17055567658447485,0.0046211698966041135,0.17107786715479306,0.01569458499491954,0.11582292275265407,0.027289263756656884
0.0837931,0.04084406257549609,0.014144639652919691,0.16940894522942265,0.0045967691335753935,0.17095874021759266,0.015661481402493516,0.11506617124528773,0.027206721466068187
0.0842586,0.0405821310750456,0.014097059427153152,0.16825030582294265,0.004572200026557684,0.17082934520759419,0.015627300947931452,0.11430211241021351,0.027122856008328606
0.0847241,0.04031797146776567,0.014049202282422858,0.16708002039776673,0.004547476026427633,0.1706898261882123,0.015592058420837876,0.11353091472195073,0.027037693939067697
0.0851897,0.040051638436508094,0.014001089678441828,0.16589835302601408,0.004522610689277017,0.1705403278161491,0.015555768728985593,0.11275274751038203,0.026951261811183007
0.0856552,0.0397831872201154,0.013952742862536345,0.16470556973492645,0.004497617672954423,0.17038099531669804,0.015518446895453262,0.11196778092553583,0.02686358616656624
0.0861207,0.03951267360071037,0.01390418286405776,0.16350193842255906,0.004472510733554805,0.17021197445933842,0.01548010805577989,0.11117618590264738,0.026774693527928335
0.0865862,0.039240153890976424,0.013855430488928847,0.16228772877346084,0.004447303721857938,0.17003341153361798,0.015440767455136608,0.11037813412749982,0.02668461039072747
0.0870517,0.03896568492143415,0.01380650631432627,0.16106321217437794,0.004422010579716767,0.1698454533253218,0.01540044044551599,0.10957379800204692,0.026593363215203655
0.0875172,0.038689324027718845,0.013757430683500538,0.15982866163001336,0.004396645336396758,0.16964824709292894,0.015359142482939113,0.10876335061031808,0.026500978418523658
0.0879828,0.03841112903786399,0.013708223700734814,0.1585843516788762,0.004371222104867316,0.16944194054435907,0.015316889124680544,0.10794696568460573,0.02640748236703957
0.0884483,0.03813115825959533,0.013658905226443795,0.1573305583092532,0.004345755078046449,0.1692266818140116,0.015273696026511444,0.10712481757193466,0.026312901368664165
0.0889138,0.037849470467639874,0.013609494872413868,0.15606755887533463,0.004320258524999839,0.16900261944010117,0.015229578939961028,0.10629708120081194,0.02621726166536607
0.0893793,0.03756612489105394,0.013560011997185593,0.15479563201352647,0.00429474678709558,0.16876990234229294,0.015184553709596585,0.10546393204825535,0.02612058942578745
0.0898448,0.03728118120057393,0.013510475701579499,0.15351505755898046,0.0042692342741158405,0.16852867979964054,0.015138636270322246,0.10462554610709741,0.026022910737986727
0.0903103,0.03699469949599342,0.013460904824366132,0.15222611646237333,0.004243735460326746,0.16827910142882838,0.015091842644696669,0.10378209985356146,0.025924251602308684
0.0907759,0.03670674029356967,0.013411317938081145,0.15092909070696578,0.004218264880507773,0.1680213171627198,0.015044188940269727,0.10293377021510539,0.025824637924384143
0.0912414,0.0364173645134625,0.013361733344986108,0.14962426322597114,0.0041928371259419344,0.16775547722921058,0.014995691346938214,0.10208073453852828,0.0257240955082613
0.0917069,0.03612663346720829,0.013312169073175725,0.1483119178202636,0.004167466840368017,0.16748173213038686,0.014946366134320615,0.10122317055833534,0.02562265004967054
0.0921724,0.035834608845231326,0.013262642872831862,0.1469923390764549,0.004142168715896118,0.16720023262198536,0.014896229649150905,0.10036125636535566,0.025520327129424456
0.0926379,0.03554135270439475,0.013213172212624849,0.1456658122853682,0.004116957488887703,0.16691112969315192,0.014845298312691428,0.09949517037560822,0.025417152206954653
0.0931034,0.035246927455592915,0.013163774276262275,0.14433262336093705,0.004091847935801442,0.16661457454649406,0.014793588618164879,0.09862509129941109,0.025313150613986642
0.093569,0.03495139585138666,0.01311446595918551,0.1429930587595569,0.004066854869006067,0.16631071857842133,0.014741117128205484,0.09775119811072978,0.02520834754835415
0.0940345,0.03465482097368282,0.013065263865414022,0.14164740539991583,0.004041993132561498,0.1659997133597663,0.014687900472329507,0.09687367001676088,0.02510276806795383
0.0945,0.03435726622145892,0.013016184304537524,0.14029595058333083,0.004017277597969552,0.16568171061667894,0.014633955344425114,0.09599268642774768,0.024996437084841276
0.0949655,0.034058795298533784,0.012967243288855894,0.13893898191461482,0.003992723159895511,0.16535686221178578,0.014579298500261604,0.0951084269270254,0.024889379359468958
0.095431,0.033759472201384456,0.01291845653066685,0.1375767872234994,0.003968344731861915,0.16502532012560536,0.014523946755017982,0.09422107124129421,0.024781619495066576
0.0958966,0.03345936120700962,0.01286983943970121,0.13620965448663777,0.0039441572419159346,0.16468723643821204,0.014467916980830713,0.09333079921111886,0.02467318193216413
0.0963621,0.03315852686083953,0.012821407120705586,0.13483787175021117,0.003920175628271731,0.16434276331113964,0.014411226104360407,0.09243779076165466,0.024564090943257687
0.0968276,0.032857033964692396,0.012773174371172296,0.1334617270531613,0.003896414834929257,0.16399205296951733,0.014353891104377124,0.09154222587359985,0.024454370627617798
0.0972931,0.03255494756477682,0.012725155679216178,0.1320815083510713,0.0038728898072709675,0.16363525768443019,0.014295929009363868,0.09064428455437568,0.024344044906240078
0.0977586,0.03225233293974028,0.012677365221597944,0.13069750344071607,0.0038496154876379515,0.16327252975549783,0.014237356895137878,0.0897441468095354,0.024233137516937467
0.0982241,0.031949255588762965,0.012629816861893578,0.12930999988530278,0.0038266068108870222,0.16290402149366445,0.014178191882489337,0.0888419926144044,0.02412167200957333
0.0986897,0.03164578121969682,0.012582524148809228,0.1279192849404208,0.0038038786999303148,0.16252988520419487,0.014118451134837052,0.08793800188595402,0.024009671741434483
0.0991552,0.03134197573724932,0.012535500314640926,0.1265256454807199,0.0037814460612589627,0.16215027316987085,0.014058151855900716,0.08703235445491171,0.02389715987274292
0.0996207,0.03103790523121166,0.012488758273878416,0.12512936792733453,0.003759323780452426,0.16176533763438353,0.013997311287389244,0.08612523003811089,0.02378415936230486
0.1000862,0.030733635964731162,0.012442310621952352,0.12373073817607054,0.003737526717675033,0.1613752307859177,0.013935946706704685,0.08521680821108392,0.02367069296329548
0.1005517,0.03042923436262759,0.01239616963412405,0.1223300415263703,0.003716069703161279,0.16098010474092517,0.013874075424661092,0.08430726838090169,0.02355678321917768
0.1010172,0.030124766999753375,0.012350347264516996,0.12092756261107047,0.0036949675326914027,0.16058011152808394,0.013811714783217782,0.08339678975926332,0.023442452459752846
0.1014828,0.0298203005893978,0.012304855145289367,0.11952358532696618,0.0036742349630587423,0.16017540307244219,0.013748882153226455,0.08248555133583971,0.02332772279734168
0.1019483,0.02951590197173535,0.012259704585946761,0.11811839276619387,0.0036538867075303657,0.159766131179745,0.013685594932191692,0.08157373185187433,0.0232126161230931
0.1024138,0.029211638102318613,0.01221490657279428,0.11671226714844465,0.0036339374313024437,0.15935244752094432,0.013621870542044428,0.08066150977404431,0.023097154103419205
0.1028793,0.02890757604061617,0.012170471768527143,0.11530548975401862,0.00361440174695185,0.15893450361689196,0.01355772642692804,0.07974906326858454,0.022981358176554393
0.1033448,0.02860378293859619,0.012126410511958858,0.11389834085773033,0.0035952942098854716,0.15851245082321733,0.013493180050996688,0.07883657017567702,0.022865249549236757
0.1038103,0.028300326029356428,0.012082732817885928,0.11249109966367428,0.0035766293137887463,0.15808644031539118,0.013428248896225663,0.07792420798410714,0.02274884919351013
0.1042759,0.02799727261580156,0.012039448377087987,0.11108404424085917,0.003558421486074961,0.1576566230739778,0.013362950460233593,0.07701215380618819,0.02263217784364522
0.1047414,0.0276946900593689,0.011996566556462154,0.10967745145971908,0.0035406850833368843,0.15722314987007804,0.013297302254116463,0.0761005843529555,0.022515255993178402
0.1052069,0.02739264576880347,0.011954096399290355,0.10827159692950876,0.0035234343868023334,0.156786171250966,0.01323132180029344,0.07518967590963076,0.02239810389206683
0.1056724,0.027091207188983626,0.011912046625638257,0.10686675493659015,0.003506683597795315,0.1563458375259211,0.013165026630364604,0.07427960431135723,0.022280741543958572
0.1061379,0.026790441789798537,0.011870425632884391,0.10546319838361642,0.0034904468332043873,0.15590229875225803,0.013098434282980683,0.07337054491920612,0.02216318870357689
0.1066034,0.02649041705507877,0.011829241496377948,0.10406119872961987,0.0034747381209599203,0.15545570472155545,0.013031562301724914,0.07246267259645414,0.022045464874218077
0.107069,0.02619120047158139,0.011788501970223663,0.10266102593100893,0.0034595713955219405,0.15500620494608397,0.012964428233007311,0.07155616168513199,0.02192758930536276
0.1075345,0.025892859518030917,0.011748214488192134,0.1012629483834799,0.0034449604933802325,0.1545539486454329,0.012897049623971634,0.07065118598284299,0.021809580990400916
0.108,0.025595461654217513,0.01170838616475381,0.09986723286484805,0.0034309191485683696,0.15409908473333409,0.012829444020415462,0.06974791871985091,0.021691458664471128
0.1084655,0.025299074310153703,0.011669023796234862,0.0984741444788021,0.0034174609881933225,0.15364176180467964,0.0127616289647238,0.06884653253643526,0.021573240802414656
0.108931,0.025003764875290945,0.011630133862093014,0.09708394659958666,0.0034045995279822663,0.15318212812272983,0.012693621993816639,0.06794719946051261,0.021454945616844915
0.1093966,0.02470960068779726,0.011591722526311436,0.09569690081761617,0.0033923481678481836,0.15272033160650675,0.012625440637110893,0.06705009088552133,0.02133659105633295
0.1098621,0.02441664902389702,0.011553795638908598,0.09431326688602348,0.003380720187475833,0.15225651981836932,0.012557102414497038,0.06615537754856747,0.0212181948037093
0.1103276,0.02412497708727386,0.011516358737561985,0.09293330266814678,0.0033697287419296434,0.1517908399517639,0.01248862483433073,0.06526322950882878,0.021099774274482636
0.1107931,0.023834651998537446,0.011479417049343443,0.09155726408595798,0.003359386857285057,0.15132343881914553,0.012420025391439608,0.06437381612621344,0.020981346615375575
0.1112586,0.023545740784754726,0.011442975492563888,0.09018540506943586,0.0033497074262848316,0.15085446284006468,0.012351321565145347,0.06348730604027018,0.020862928702978067
0.1117241,0.023258310369046145,0.011407038678724992,0.08881797750688711,0.003340703204021806,0.15038405802941443,0.012282530817300961,0.0626038671493458,0.02074453714251876
0.1121897,0.022972427560247005,0.011371610914575487,0.08745523119621824,0.003332386803649603,0.14991236998583382,0.012213670590343301,0.0617236665899859,0.020626188266754695
0.1126552,0.02268815904263404,0.011336696204269595,0.08609741379716217,0.0033247706921227587,0.14943954388026262,0.012144758305360619,0.06084687071657445,0.020507898134979642
0.1131207,0.022405571365717105,0.011302298251625148,0.08474477078446246,0.0033178671859677386,0.1489657244446435,0.012075811360175024,0.059973645081207436,0.020389682532151468
0.1135862,0.022124730934095765,0.011268420462478784,0.08339754540201888,0.0033116884470862995,0.14849105596076806,0.012006847127439668,0.059104154413795844,0.020271556968138735
0.1140517,0.02184570399738045,0.01123506594713558,0.08205597861799735,0.003306246478592627,0.148015682249263,0.011937882952750277,0.058238562602392935,0.020153536677086782
0.1145172,0.021568556640177643,0.011202237522910413,0.08072030908090776,0.0033015531206856603,0.14753974665871342,0.01186893615277071,0.05737703267374078,0.020035636616903423
0.1149828,0.021293354772138652,0.01116993771675823,0.07939077307665311,0.0032976200465579977,0.14706339205491925,0.011800024013372023,0.05651972677403105,0.01991787146886439
0.1154483,0.021020164118071272,0.011138168767990342,0.07806760448655334,0.003294458758342747,0.14658676081028213,0.011731163787784512,0.055666806149874785,0.01980025563733851
0.1159138,0.020749050208113618,0.011106932631073712,0.07675103474634676,0.003292080583099665,0.14610999479331882,0.01166237269476207,0.05481843112947594,0.019682803249632605
0.1163793,0.020480078367969327,0.011076230978510189,0.0754412928061722,0.0032904966688419046,0.14563323535829759,0.011593667916758192,0.05397476110400324,0.0195655281559558
0.1168448,0.020213313709203106,0.01104606520379248,0.07413860509153437,0.0032897179806046875,0.14515662333499413,0.011525066598112898,0.05313595450915511,0.019448443929503
0.1173103,0.019948821119595596,0.011016436424433604,0.07284319546525465,0.0032897552965571826,0.14468029901856388,0.011456585843249786,0.052302168806912026,0.019331563866656958
0.1177759,0.01968666525355631,0.010987345485066526,0.0715552851904095,0.0032906192041588724,0.14420440215952757,0.011388242714882415,0.0514735604674708,0.019214900987308246
0.1182414,0.019426910522593356,0.010958792960610657,0.07027509289425769,0.0032923200963616696,0.1437290719538675,0.011320054232229145,0.05065028495135519,0.019098468035292433
0.1187069,0.01916962108583844,0.010930779159501976,0.06900283453315759,0.0032948681678590364,0.14325444703323184,0.011252037369235511,0.04983249669169686,0.018982277478943373
0.1191724,0.01891486084062546,0.01090330412698364,0.06773872335847439,0.003298273411383331,0.14278066545524407,0.011184209052803203,0.049020349076680944,0.018866341511761586
0.1196379,0.01866269341312099,0.010876367648454163,0.06648296988347757,0.003302545614052595,0.1423078646939149,0.011116586161024625,0.04821399443215024,0.018750672053196388
0.1201034,0.01841318214900465,0.01084996925287037,0.06523578185122746,0.003307694353767961,0.1418361816301532,0.01104918552142196,0.047413584004362026,0.01863528074954048
0.120569,0.018166390104197266,0.01082410821620252,0.06399736420344973,0.003313728995662861,0.1413657525423717,0.010982023909189637,0.046619267942891465,0.01852017897493539
0.1210345,0.017922380035634657,0.010798783564939188,0.06276791905039575,0.0033206586886051657,0.14089671309718205,0.010915118045439102,0.04583119528367562,0.01840537783248621
0.1215,0.017681214392084595,0.010773994079639512,0.061547645641686355,0.003328492361753398,0.1404291983401738,0.010848484595444768,0.04504951393219215,0.018290888155483794
0.1219655,0.01744295530500451,0.010749738298530594,0.060336740338136435,0.0033372387211681185,0.13996334268676916,0.010782140166890056,0.04427437064676687,0.0181767205087327
0.122431,0.0172076645794373,0.010726014521147829,0.059135396584556785,0.0033469062464795843,0.13949927991314542,0.010716101308112508,0.04350591102200446,0.01806288518998288
0.1228966,0.016975403684942568,0.010702820812015963,0.05794380488352987,0.003357503187612748,0.13903714314721594,0.01065038450634703,0.04274427947233651,0.017949392231463274
0.1233621,0.01674623374656051,0.01068015500436866,0.05676215277015503,0.003369037561570661,0.1385770648596583,0.0105850061859665,0.04198961921568166,0.017836251401515155
0.1238276,0.016520215535805682,0.010658014703904341,0.05559062478775882,0.003381517149277298,0.13811917685497893,0.010519982706718991,0.04124207225721238,0.017723472206323226
0.1242931,0.016297409461687864,0.010636397292576079,0.05442940246456548,0.0033949494924808148,0.1376636102626009,0.010455330361961118,0.040501779373223086,0.01761106389174222
0.1247586,0.016077875561757257,0.010615299932413445,0.05327866429132247,0.003409341890718214,0.13721049552796125,0.010391065376886955,0.03976888009509439,0.017499035445216943
0.1252241,0.01586167349317133,0.01059471956937423,0.05213858569987567,0.003424701398342375,0.1367599624036033,0.010327203906752047,0.0390435126933485,0.017387395597793523
0.1256897,0.015648862523780758,0.010574652937224075,0.05100933904268852,0.003441034821612382,0.13631213994024804,0.010263762035091982,0.038325814161790955,0.01727615282621976
0.1261552,0.015439501523232025,0.010555096561442042,0.049891093573299225,0.003458348715848059,0.1358671564778286,0.010200755771934968,0.03761592020173406,0.01716531535513219
0.1266207,0.015233648954084382,0.010536046763150253,0.04878401542770989,0.003476649382649615,0.1354251396364704,0.010138201052007755,0.03691396520629773,0.017054891159327595
0.1270862,0.015031362862938963,0.010517499663065658,0.047688267606701015,0.0034959428671832685,0.13498621630739957,0.010076113732934235,0.03622008224478384,0.01694488796611632
0.1275517,0.014832700871578114,0.010499451185471999,0.04660400995906466,0.003516234955533749,0.13455051264376075,0.010014509593425978,0.03553440304712026,0.016835313257754943
0.1280172,0.014637720168113079,0.010481897062210026,0.04553139916574914,0.0035375311721245577,0.13411815405132585,0.009953404331463907,0.03485705798837128,0.016726174273955435
0.1284828,0.01444647749813835,0.01046483283668391,0.044470588724907854,0.0035598367772068764,0.1336892651790738,0.009892813562470282,0.03418817607331105,0.016617478014468043
0.1289483,0.014259029155891152,0.010448253867881823,0.04342172893784444,0.003583156764418029,0.13326396990962172,0.009832752817470076,0.03352788492105676,0.016509231241734958
0.1294138,0.014075430975414686,0.010432155334408602,0.04238496689584598,0.003607495858410419,0.13284239134948628,0.009773237541240811,0.032876310749758386,0.016401440483611727
0.1298793,0.013895738321723772,0.01041653223852844,0.04136044646789602,0.0036328585125518847,0.13242465181915453,0.009714283090449959,0.032233578361341886,0.016294112036153278
0.1303448,0.013720006081971763,0.01040137941021561,0.040348308289258394,0.0036592489066984185,0.13201087284294216,0.009655904731778958,0.03159981112630281,0.016187251966461286
0.1308103,0.013548288656617705,0.0103866915112113,0.03934868975092293,0.003686670945040232,0.13160117513861788,0.00959811764003308,0.030975130968547815,0.01608086611558959
0.1312759,0.013380639950592804,0.010372463039084737,0.03836172498990364,0.0037151282540221087,0.13119567860677042,0.009540936896236505,0.030359658350281912,0.015974960101504353
0.1317414,0.013217113364465426,0.010358688331297005,0.03738754488037981,0.003744624180339021,0.1307945023198959,0.009484377485712127,0.029753512256939597,0.015869539322095626
0.1322069,0.013057761785604012,0.01034536156926609,0.03642627702567012,0.003775161789007936,0.13039776451118215,0.009428454296145776,0.029156810182158557,0.01576460895823703
0.1326724,0.012902637579337383,0.010332476782431842,0.035478045751029745,0.003806743861516741,0.13000558256296674,0.009373182115634626,0.02856966811279471,0.015660173976890415
0.1331379,0.012751792580112034,0.010320027852319743,0.03454297209726046,0.0038393728940511727,0.12961807299484426,0.00931857563071961,0.02799220051397764,0.01555623913425219
0.1336034,0.012605278082646122,0.01030800851660251,0.03362117381512337,0.0038730510958006163,0.1292353514514,0.009264649424401628,0.027424520314205683,0.015452808978938162
0.134069,0.012463144833079884,0.01029641237315869,0.032712765360543995,0.003907780387343618,0.1288575326895467,0.009211417974141338,0.026866738890480125,0.015349887855203623
0.1345345,0.012325443020122265,0.010285232884127539,0.031817857890599516,0.0039435623991139115,0.12848473056544335,0.009158895649842255,0.02631896605347826,0.015247479906195495
0.135,0.012192222266193532,0.010274463379959525,0.030936559260277597,0.003980398469947758,0.128117058020977,0.009107096711816967,0.02578131003276547,0.015145589077233358
0.1354655,0.012063531618563656,0.0102640970634619,0.030068974019996534,0.004018289645713342,0.12775462706979074,0.009056035308736332,0.025253877462046704,0.015044219119116242
0.135931,0.0119394195404862,0.010254127013838788,0.02921520341387616,0.004057236678022963,0.12739754878284393,0.009005725475561645,0.024736773364458134,0.014943373591452057
0.1363966,0.011819933902327384,0.010244546190725285,0.028375345378748945,0.004097240023028742,0.1270459332734929,0.008956181131459934,0.024230101137900136,0.014843055866006472
0.1368621,0.011705121972689962,0.010235347438215046,0.02754949454390079,0.004138299840302512,0.12669988968208284,0.008907416077702696,0.023733962540413205,0.014743269130068124
0.1373276,0.011595030409531531,0.010226523488880786,0.026737742231530984,0.004180415991800547,0.1263595261600435,0.008859443995548479,0.02324845767559864,0.014644016389827052
0.1377931,0.011489705251276731,0.010218066967787076,0.02594017645792071,0.004223588040913765,0.12602494985348348,0.008812278444109783,0.022773684978086257,0.014545300473763432
0.1382586,0.011389191907922848,0.010209970396494778,0.02515688193529963,0.004267815251603996,0.12569626688627966,0.008765932858204805,0.022309741199051443,0.014447124036043903
0.1387241,0.01129353515213832,0.010202226197056338,0.02438794007440015,0.004313096587626886,0.1253735823426599,0.008720420546194495,0.021856721391784073,0.014349489559923049
0.1391897,0.011202779110353722,0.01019482669600118,0.023633428987689158,0.004359430711842002,0.12505700024927788,0.008675754687805376,0.021414718897311703,0.014252399361147956
0.1396552,0.011116967253844826,0.01018776412831037,0.022893423493267118,0.004406815985610648,0.12474662355678044,0.008631948331938488,0.020983825330079482,0.014155855591364086
0.1401207,0.01103614238980748,0.010181030641379707,0.02216799511942459,0.004455250468281907,0.12444255412086928,0.00858901439446484,0.020564130563689022,0.014059860241520917
0.1405862,0.010960346652424216,0.010174618298970373,0.021457212109846427,0.004504731916767364,0.12414489268285786,0.008546965656007674,0.02015572271669854,0.013964415145275957
0.1410517,0.01088962149392254,0.010168519085146311,0.0207611394294541,0.004555257785204963,0.12385373884972649,0.00850581475971181,0.019758688138486427,0.01386952198239583
0.1415172,0.01082400767562512,0.010162724908197524,0.02007983877087661,0.004606825224712393,0.12356919107367786,0.0084655742090004,0.019373111395180317,0.013775182282153076
0.1419828,0.01076354525899219,0.010157227604548477,0.019413368561540512,0.004659431083230397,0.12329134663119569,0.008426256365319391,0.018999075255653735,0.013681397426717213
0.1424483,0.010708273596656721,0.010152018942650814,0.018761783971369593,0.004713071905456336,0.12302030160160925,0.008387873445869986,0.018636660677592225,0.013588168654538626
0.1429138,0.010658231323453157,0.01014709062685965,0.01812513692108486,0.0047677439328683326,0.12275615084516646,0.008350437521329423,0.01828594679363083,0.013495497063723669
0.1433793,0.010613456347440648,0.010142434301292686,0.01750347609109535,0.004823443103840278,0.1224989879806177,0.008313960513560368,0.017947010897564862,0.01340338361539933
0.1438448,0.010573985840922008,0.010138041553671468,0.016896846930970218,0.00488016505384795,0.12224890536231243,0.008278454193309198,0.0176199284306358,0.013311829137065703
0.1443103,0.010539856231459869,0.010133903919144174,0.016305291669482594,0.004937905115766457,0.12200599405681008,0.008243930177893441,0.017304772967894226,0.013220834325934516
0.1447759,0.010511103192891719,0.01013001288408931,0.015728849325215594,0.004996658320259192,0.12177034381900584,0.008210399928878637,0.017001616204641794,0.013130399752251871
0.1452414,0.010487761636345724,0.010126359889899824,0.015167555717720733,0.005056419396258442,0.12154204306777171,0.00817787474974484,0.016710527942954273,0.013040525862603342
0.1457069,0.010469865701259483,0.010122936336747164,0.014621443479218916,0.005117182771537788,0.121321178861112,0.008146365783543061,0.016431576078287848,0.012951212983199565
0.1461724,0.010457448746404066,0.010119733587324877,0.014090542066834133,0.005178942573376359,0.12110783687083172,0.008115884010541965,0.016164826586170963,0.012862461323140515
0.1466379,0.01045054334091584,0.010116742970571383,0.013574877775349733,0.005241692629314992,0.12090210135671517,0.008086440245865212,0.015910343508984175,0.01277427097765669
0.1471034,0.010449181255338785,0.0101139557853716,0.013074473750477197,0.005305426468004282,0.12070405514021093,0.0080580451371199,0.01566818894283064,0.01268664193132543
0.147569,0.01045339345268012,0.010111363304237108,0.012589350002627167,0.005370137320144502,0.12051377957761943,0.008030709162016631,0.015438423024499989,0.012599574061260686
0.1480345,0.010463210079482189,0.010108956776964587,0.012119523421172543,0.005435818119517273,0.12033135453277846,0.008004442625981777,0.015221103918528562,0.012513067140274541
0.1485,0.010478660456913657,0.010106727434272263,0.011665007789193504,0.005502461504108902,0.12015685834924376,0.007979255659762588,0.015016287804359079,0.012427120840008726
0.1489655,0.01049977307188306,0.0101046664914141,0.01122581379869427,0.005570059817325225,0.11999036782196401,0.007955158217025821,0.014824028863602947,0.012341734734034394
0.149431,0.010526575568177862,0.010102765151771477,0.010801949066281555,0.00563860510929778,0.11983195816845336,0.00793216007195057,0.01464437926740851,0.012256908300918336
0.1498966,0.010559094737632165,0.010101014610422065,0.0103934181492946,0.005708089138281126,0.11968170299946898,0.007910270816815973,0.014477389163938632,0.012172640927253734
0.1503621,0.010597356511326234,0.01009940605768562,0.01000022256237672,0.005778503372141038,0.11953967428920596,0.007889499859584462,0.014323106665961007,0.012088931910653435
0.1508276,0.010641385950820936,0.010097930682646356,0.009622360794478153,0.005849838989933309,0.11940594234502641,0.00786985642148116,0.01418157783855458,0.012005780462703664
0.1512931,0.01069120723943024,0.010096579676651564,0.009259828326280055,0.005922086883572862,0.11928057577674307,0.00785134953457005,0.014052846686935473,0.01192318571187604
0.1517586,0.010746843673534815,0.010095344236786057,0.00891261764802928,0.005995237659592811,0.1191636414654814,0.007833988039327453,0.013936955144405802,0.01184114670639573
0.1522241,0.01080831765393965,0.010094215569322008,0.00858071827777361,0.006069281640993098,0.11905520453214707,0.007817780582213366,0.01383394306042892,0.011759662417063629
0.1526897,0.010875650677278663,0.010093184893143727,0.008264116779986994,0.0061442088691782614,0.11895532830552771,0.007802735613241202,0.013743848188834775,0.011678731740030533
0.1531552,0.01094886332746909,0.010092243443146905,0.007962796784574323,0.006220009105983894,0.11886407429006007,0.007788861383546495,0.013666706176159414,0.011598353499521446
0.1536207,0.011027975267218411,0.010091382473611805,0.0076767390062452605,0.006296671835791244,0.11878150213329484,0.007776165942955213,0.01360255055012285,0.011518526450508366
0.1540862,0.011113005229586513,0.010090593261549857,0.007405921264246531,0.006374186267729429,0.11870766959309281,0.00776465713755236,0.013551412708249909,0.011439249281330088
0.1545517,0.011203971009605755,0.010089867110023023,0.007150318502442144,0.006452541337964676,0.11864263250458632,0.007754342607251668,0.013513321906638804,0.011360520616257783
0.1550172,0.011300889455961569,0.010089195351435293,0.006909902809730953,0.006531725712075955,0.11858644474694055,0.007745229783367264,0.013488305248882398,0.011282339018005355
0.1554828,0.01140377646273625,0.010088569350795553,0.006684643440791055,0.006611727787516407,0.1185391582099492,0.007737325886188265,0.013476387675147158,0.011204702990183713
0.1559483,0.011512646961218549,0.010087980508951083,0.006474506837140629,0.006692535696159937,0.11850082276049873,0.007730637922557325,0.013477591951414845,0.011127610979698208
0.1564138,0.011627514911781671,0.010087420265790877,0.006279456648505096,0.006774137306932369,0.11847148620893441,0.00772517268345414,0.01349193865889196,0.01105106137908857
0.1568793,0.011748393295832311,0.010086880103418006,0.006099453754480757,0.0068565202285265445,0.118451194275361,0.007720936741584975,0.013519446183591926,0.010975052528810798
0.1573448,0.011875294107833298,0.0100863515492902,0.005934456286485471,0.006939671812200822,0.1184399905559096,0.007717936448979287,0.013560130706094952,0.010899582719460588
0.1578103,0.0120082283474024,0.010085826179327805,0.005784419649987353,0.007023579154660358,0.11843791648900238,0.00771617793459452,0.013614006191490498,0.010824650193938159
0.1582759,0.012147206011489855,0.010085295620988222,0.005649296547002829,0.007108229101020595,0.11844501132164537,0.007715667101930165,0.013681084379507245,0.010750253149554615
0.1587414,0.01229223608663714,0.010084751556305914,0.005529036998855831,0.007193608247852337,0.11846131207578,0.00771640962665219,0.013761374774835375,0.010676389740080243
0.1592069,0.012443326541319435,0.010084185724897037,0.005423588369190191,0.007279702946307797,0.11848685351472345,0.007718410954228997,0.013854884637645976,0.010603058077735372
0.1596724,0.012600484318374303,0.010083589926927733,0.005332895387227659,0.007366499305326988,0.11852166810972777,0.007721676297580118,0.013961618974312327,0.010530256235124581
0.1601379,0.012763715327519074,0.010082956026045099,0.005256900171264135,0.007453983194923837,0.11856578600668846,0.007726210634738996,0.01408158052833791,0.010457982247115128
0.1606034,0.01293302443795945,0.01008227595226979,0.005195542252396914,0.007542140249551358,0.1186192349930327,0.007732018706531242,0.014214769771496051,0.01038623411266053
0.161069,0.013108415471091924,0.010081541704849154,0.005148758598475862,0.007630955871545252,0.11868204046481774,0.007739105014269811,0.014361184895186325,0.010315009796570336
0.1615345,0.013289891193302816,0.010080745355069722,0.00511648363827152,0.007720415234645227,0.11875422539407039,0.007747473817468544,0.014520821802012933,0.010244307231227236
0.162,0.013477453308866919,0.010079879049027872,0.005098649285853135,0.00781050328759335,0.11883581029639868,0.0077571291315755376,0.014693674097590436,0.010174124318252691
0.1624655,0.0136711024529491,0.0100789350103574,0.005095184965169658,0.007901204757808653,0.11892681319890713,0.007768074725727811,0.014879733082582228,0.01010445893012232
0.162931,0.01387083818471249,0.010077905542912805,0.005106017634826723,0.007992504155137243,0.11902724960844732,0.007780314120528778,0.015078987744977143,0.010035308911732361
0.1633966,0.014076658980537218,0.010076783033407111,0.0051310718130526695,0.008084385775677112,0.11913713248023573,0.007793850585850085,0.015291424752609615,0.0099666720819186
0.1638621,0.014288562227353927,0.010075559954003154,0.00517026960284662,0.008176833705676855,0.11925647218687142,0.007808687138659503,0.015517028445928876,0.00989854623492912
0.1643276,0.014506544216096467,0.010074228864857388,0.005223530717301679,0.008269831825507471,0.11938527648778618,0.007824826540876597,0.015755780831022893,0.009830929141852317
0.1647931,0.014730600135278361,0.010072782416615376,0.0052907725050963155,0.008363363813706415,0.11952355049916036,0.007842271297258088,0.016007661572903027,0.009763818552001426
0.1652586,0.01496072406469766,0.010071213352858197,0.005371909976147115,0.008457413151093046,0.11967129666433805,0.007861023653314873,0.016272647989055665,0.009697212194256876
0.1657241,0.015196908969274817,0.010069514512499092,0.005466855827416239,0.008551963124954579,0.11982851472477529,0.00788108559326278,0.01655071504326739,0.009631107778367613
0.1661897,0.01543914669302817,0.010067678832129723,0.005575520468867191,0.008646996833301609,0.11999520169155542,0.007902458838009198,0.016841835339730302,0.009565502996212555
0.1666552,0.015687427953191595,0.010065699348315357,0.005697812049562785,0.008742497189192275,0.12017135181750614,0.00792514484317774,0.017145979117434252,0.009500395523023246
0.1671207,0.01594174233447877,0.010063569199838302,0.00583363648389963,0.00883844692512408,0.12035695656995272,0.007949144797173137,0.017463114244852824,0.009435783018568764
0.1675862,0.016202078283498504,0.01006128162988883,0.005982897477973831,0.008934828597492386,0.12055200460414203,0.007974459619288523,0.017793206214929764,0.009371663128303932
0.1680517,0.016468423103325663,0.010058829988202773,0.006145496556073093,0.009031624591114552,0.12075648173737243,0.00800108995785725,0.018136218140372588,0.009308033484481892
0.1685172,0.01674076294823219,0.010056207733144877,0.006321333087290904,0.009128817123818687,0.12097037092386435,0.008029036188451317,0.01849211074926011,0.009244891707232084
0.1689828,0.01701908281858295,0.010053408433737018,0.006510304312258885,0.009226388251095988,0.12119365223040643,0.008058298412128448,0.018860842380970574,0.009182235405604615
0.1694483,0.017303366555901204,0.010050425771630287,0.0067123053699939175,0.009324319870815622,0.12142630281281178,0.00808887645372981,0.019242368982437103,0.009120062178582014
0.1699138,0.01759359683810872,0.010047253543019946,0.006927229324856994,0.009422593728001112,0.1216682968932189,0.008120769860230295,0.019636644104737255,0.00905836961605927
0.1703793,0.01788975517494565,0.01004388566050222,0.0071549671936211225,0.00952119141966719,0.12191960573827133,0.008153977899143227,0.020043618900023426,0.008997155299793051
0.1708448,0.0181918219035753,0.010040316154871862,0.007395407972645881,0.009620094399716048,0.12218019763820934,0.008188499556981341,0.020463242118801014,0.00893641680432092
0.1713103,0.01849977618437907,0.010036539176859387,0.007648438665156527,0.009719283983891921,0.12245003788690648,0.008224333537775828,0.020895460107561232,0.00887615169785128
0.1717759,0.01881359599694659,0.010032548998806854,0.007913944308625846,0.009818741354792835,0.1227290887628833,0.008261478261655183,0.021340216806775683,0.008816357543124795
0.1722414,0.01913325813626607,0.01002834001628103,0.008191808002257174,0.009918447566938333,0.12301730951132975,0.00829993186348561,0.021797453749260013,0.008757031898247912
0.1727069,0.019458738209119898,0.010023906749622707,0.008481910934567294,0.010018383551891956,0.12331465632716702,0.008339692191574648,0.022267110058914408,0.008698172317499126
0.1731724,0.019790010630690198,0.010019243845430872,0.008784132411068185,0.010118530123437153,0.12362108233917855,0.00838075680643972,0.02274912244984892,0.008639776352108563
0.1736379,0.020127048621379158,0.010014346077980412,0.009098349882046667,0.01021886798280529,0.12393653759523873,0.008423122979643172,0.023243425225901917,0.008581841551011436
0.1741034,0.020469824203848717,0.01000920835057187,0.009424438970441167,0.010319377723954292,0.12426096904866757,0.008466787692695432,0.02374995028055995,0.008524365461575967
0.174569,0.02081830820028415,0.010003825696811748,0.00976227349981476,0.01042003983889654,0.12459432054573817,0.00851174763602779,0.024268627097287464,0.008467345630306279
0.1750345,0.021172470229885904,0.009998193281821778,0.010111725522423625,0.01052083472307448,0.12493653281436269,0.008557999208036298,0.024799382750274608,0.008410779603520789
0.1755,0.02153227870659397,0.009992306403375497,0.010472665347380053,0.010621742680782429,0.1252875434539822,0.008605538514198248,0.025342141905611227,0.008354664928006612
0.1759655,0.021897700837048843,0.009986160492960474,0.010844961568909054,0.010722743930632994,0.12564728692668461,0.008654361366262566,0.025896826822894993,0.008298999151650392
0.176431,0.022268702618792997,0.009979751116764487,0.011228481094697701,0.010823818611066455,0.1260156945495745,0.008704463281515506,0.0264633573572815,0.008243779824045963
0.1768966,0.02264524883871665,0.009973073976584078,0.01162308917433621,0.01092494678590142,0.12639269448841767,0.008755839482122881,0.02704165096198385,0.008189004497079174
0.1773621,0.023027303071751482,0.009966124910653957,0.01202864942784983,0.0110261084499251,0.1267782117525829,0.008808484894550125,0.027631622691229204,0.008134670725490145
0.1778276,0.023414827679815755,0.009958899894395877,0.01244502387432049,0.01112728353452149,0.127172168191303,0.008862394149061353,0.028233185203679484,0.008080776067413234
0.1782931,0.023807783811014366,0.009951395041085775,0.012872072960597147,0.011228451913335706,0.12757448249127634,0.00891756157929858,0.028846248766323357,0.008027318084894956
0.1787586,0.02420613139909706,0.00994360660243817,0.013309655590093812,0.01132959340797274,0.12798507017562966,0.008973981221942245,0.029470721258846425,0.007974294344390119
0.1792241,0.024609829163178224,0.00993553096910703,0.01375762915167418,0.011430687793728762,0.12840384360426269,0.009031646816454107,0.030106508178486327,0.007921702417236448
0.1796897,0.025018834607721443,0.009927164671102516,0.014215849548621868,0.011531714805353156,0.128830711975594,0.00909055180490361,0.030753512645379327,0.007869539880108013
0.1801552,0.025433104022792086,0.009918504378123074,0.014684171227695263,0.011632654142839328,0.12926558132972807,0.009150689331878693,0.03141163540840482,0.007817804315447829
0.1806207,0.02585259248458121,0.009909546899802519,0.01516244720826604,0.011733485477242364,0.1297083545530616,0.009212052244482072,0.03208077485153395,0.0077664933118800124
0.1810862,0.026277253856203966,0.009900289185871686,0.01565052911154032,0.011834188456521543,0.1301589313843474,0.009274633092413921,0.032760827000688345,0.007715604464601934
0.1815517,0.026707040788775827,0.009890728326234421,0.016148267189861416,0.011934742711405719,0.13061720842223312,0.00933842412814191,0.0334516855311148,0.007665135375756802
0.1820172,0.027141904722769884,0.009880861550957777,0.016655510356093077,0.012035127861279507,0.1310830791342913,0.009403417307159502,0.03415324177528145,0.007615083654787109
0.1824828,0.02758179588965869,0.009870686230176534,0.017172106213081902,0.012135323520088276,0.13155643386755625,0.009469604288333358,0.0348653847313009,0.007565446918769393
0.1829483,0.028026663313844204,0.009860199873912508,0.017697901083197673,0.012235309302259875,0.13203715986058304,0.00953697643434074,0.03558800107188544,0.0075162227927308145
0.1834138,0.028476454814879607,0.009849400131809427,0.01823274003795015,0.012335064828641083,0.1325251412570418,0.009605524812197739,0.03632097515383941,0.007467408909948101
0.1838793,0.02893111700998662,0.009838284792784518,0.018776466927680938,0.012434569732446735,0.13302025912086005,0.009675240193879225,0.037064189028093456,0.007419002912229536
0.1843448,0.02939059531687209,0.009826851784598354,0.01932892441132894,0.012533803665219508,0.1335223914529252,0.009746113057031358,0.03781752245028539,0.00737100245018072
0.1848103,0.029854833956847446,0.009815099173344801,0.01988995398626801,0.012632746302798344,0.13403141320935713,0.009818133585777536,0.0385808528918921,0.007323405183454929
0.1852759,0.030323775958254442,0.009803025162863225,0.020459396018215358,0.012731377351293479,0.13454719632136095,0.009891291671618625,0.03935405555191689,0.007276208780988908
0.1857414,0.030797363160200552,0.009790628094075292,0.021037089771209494,0.012829676553066036,0.13506960971666765,0.009965576914428275,0.04013700336913662,0.007229410921224947
0.1862069,0.03127553621660708,0.009777906444248866,0.021622873437656533,0.012927623692710116,0.13559851934257056,0.01004097862354404,0.04092956703491295,0.007183009292320091
0.1866724,0.0317582346005729,0.009764858826191462,0.022216584168443874,0.013025198603035262,0.1361337881905633,0.010117485818954998,0.041731615006572166,0.007137001592343324
0.1871379,0.032245396609056655,0.009751483987375726,0.022818058103120514,0.01312238117104714,0.13667527632258442,0.010195087232586442,0.04254301352135795,0.007091385529461529
0.1876034,0.03273695936788004,0.009737780808999341,0.023427130400143555,0.013219151343924247,0.13722284089887268,0.010273771309682158,0.04336362661096171,0.007046158822114977
0.188069,0.03323285883705482,0.009723748304981676,0.024043635267190593,0.013315489134988387,0.13777633620743554,0.010353526210284734,0.044193316116635115,0.00700131919918306
0.1885345,0.033733029816436035,0.009709385620899442,0.024667405991538147,0.013411374629666656,0.13833561369513256,0.010434339810814243,0.04503194170488949,0.006956864400140949
0.189,0.03423740595170393,0.009694692032863534,0.025298274970506344,0.013506787991442538,0.13890052200037453,0.010516199705745626,0.045879360883786496,0.006912792175207819
0.1894655,0.0347459197406769,0.00967966694633916,0.02593607374197033,0.013601709467793668,0.1394709069874368,0.010599093209385018,0.04673542901982476,0.0068691002854872315
0.189931,0.03525850253995812,0.00966430989491129,0.026580633014938806,0.013696119396113737,0.14004661178238562,0.010683007357745175,0.0475999993554268,0.006825786503100256
0.1903966,0.03577508457191811,0.009648620538997427,0.02723178270020013,0.013789998209615961,0.1406274768106144,0.01076792891052011,0.04847292302703041,0.006782848611311899
0.1908621,0.03629559493201598,0.009632598664509611,0.027889351941036266,0.013883326443215514,0.14121333983598647,0.010853844353159045,0.04935404908378865,0.006740284404651367
0.1913276,0.03681996159646186,0.009616244181467564,0.02855316914400464,0.013976084739388345,0.1418040360015788,0.010940739899039735,0.05024322450688251,0.006698091689026685
0.1917931,0.037348111430223346,0.009599557122564793,0.029223062009787804,0.014068253854003857,0.14239939787202108,0.011028601491741159,0.05114029422945,0.006656268281834168
0.1922586,0.037879970195378865,0.00958253764168952,0.0298988575641107,0.014159814662128989,0.14299925547742312,0.011117414807415637,0.052045101157135246,0.006614812012063215
0.1927241,0.038415462559821076,0.009565186012402237,0.030580382188725108,0.014250748163801431,0.14360343635888206,0.011207165257260343,0.05295748618926138,0.006573720720396865
0.1931897,0.03895451210631373,0.009547502626371678,0.03126746165246077,0.014341035489769763,0.1442117656155604,0.0112978379900883,0.05387728824063032,0.00653299225930849
0.1936552,0.03949704134190556,0.009529487991771047,0.03195992114234275,0.014430657907198469,0.14482406595332448,0.011389417894998808,0.0548043442639526,0.006492624493154993
0.1941207,0.04004297170770489,0.00951114273163634,0.032657585294774576,0.014519596825335922,0.14544015773493166,0.011481889604147408,0.0557384892729103,0.006452615298266828
0.1945862,0.040592223589018685,0.009492467582188583,0.033360278226786805,0.014607833801143472,0.14605985903175359,0.011575237495615317,0.05667955636585543,0.006412962563035145
0.1950517,0.041144716325859594,0.009473463391121859,0.03406782356735071,0.014695350544883641,0.1466829856770218,0.01166944569637836,0.057627376750146335,0.006373664187996326
0.1955172,0.041700368223824426,0.009454131115858999,0.03478004448875691,0.014782128925665555,0.1473093513205807,0.011764498085375412,0.05858177976712446,0.006334718085914148
0.1959828,0.04225909656534727,0.009434471821776834,0.0354967637380589,0.014868150976945516,0.14793876748513216,0.011860378296676207,0.05954259291773415,0.006296122181859799
0.1964483,0.04282081762133032,0.009414486680402963,0.03621780366858163,0.014953398901980696,0.14857104362395393,0.011957069722748473,0.060509641888788365,0.006257874413289907
0.1969138,0.043385446663155226,0.009394176967586014,0.0369429862714955,0.015037855079233891,0.1492059871800744,0.012054555517824217,0.061482750579883345,0.0062199727301227165
0.1973793,0.04395289797507783,0.009373544061641398,0.037672133207456056,0.015121502067727364,0.14984340364688373,0.012152818601364943,0.06246174113096565,0.006182415094812544
0.1978448,0.04452308486700849,0.009352589441474565,0.0384050658383101,0.015204322612343928,0.15048309663016113,0.012251841661625532,0.06344643395055491,0.006145199482422601
0.1983103,0.04509591968768058,0.009331314684683794,0.039141605258868804,0.015286299649073453,0.1511248679114964,0.0123516071593164,0.0644366477446252,0.0061083238806963
0.1987759,0.045671313838208986,0.009309721465644497,0.039881572328748685,0.01536741631020306,0.15176851751308332,0.01245209733136357,0.06543219954614758,0.006071786290127153
0.1992414,0.04624917778604102,0.009287811553576988,0.04062478770428108,0.015447655929449376,0.15241384376386063,0.012553294194766121,0.06643290474529608,0.006035584724027314
0.1997069,0.04682942107930169,0.009265586810599618,0.04137107187049104,0.01552700204703117,0.15306064336697545,0.012655179550550502,0.06743857712031853,0.005999717208594875
0.2001724,0.04741195236153565,0.00924304918976911,0.0421202451731464,0.015605438414680636,0.15370871146854218,0.0127577349878211,0.068449028869074,0.005964181782979979
0.2006379,0.04799667938684808,0.0092202007331099,0.042872127850877864,0.0156829490005917,0.15435784172766936,0.012860941887906378,0.06946407064123723,0.0059289764993497845
0.2011034,0.04858350903544721,0.009197043569634149,0.043626540067371,0.015759517994303713,0.15500782638772506,0.012964781428599763,0.07048351157117119,0.005894099422952287
0.201569,0.04917234732959061,0.009173579913354086,0.04438330194363108,0.01583512981151906,0.15565845634881,0.013069234588494493,0.07150715931146762,0.005859548632178959
0.2020345,0.04976309944993761,0.009149812061288275,0.04514223359032169,0.015909769098853107,0.15630952124140693,0.013174282151411454,0.07253482006715557,0.005825322218626117
0.2025,0.05035566975230976,0.00912574239146328,0.045903155140178085,0.015983420738515195,0.1569608095011726,0.013279904710919058,0.07356629863057747,0.005791418287154889
0.2029655,0.050949961784860956,0.009101373360912183,0.04666588678049608,0.01605606985291928,0.15761210844483814,0.013386082674944183,0.07460139841693131,0.005757834955949671
0.203431,0.051545878305658537,0.009076707503671372,0.04743024878569727,0.016127701809222916,0.1582632043471814,0.013492796270473036,0.07563992150047764,0.005724570356574907
0.2038966,0.05214332130067648,0.009051747428776883,0.0481960615499711,0.016198302223793287,0.15891388251903452,0.013600025548340878,0.07668166865140905,0.005691622634030047
0.2043621,0.052742192002201774,0.009026495818261631,0.048963145619994194,0.016267856966598906,0.15956392738628736,0.013707750388109383,0.07772643937337939,0.005658989946802591
0.2048276,0.053342390907654705,0.009000955425154777,0.049731321727726985,0.016336352165525484,0.16021312256984774,0.013815950503030406,0.07877403194168991,0.005626670466919151
0.2052931,0.053943817798823804,0.008975129071484447,0.05050041082328779,0.016403774210614487,0.16086125096651635,0.013924605445094872,0.07982424344212881,0.005594662379994478
0.2057586,0.05454637176151591,0.008949019646285042,0.05127023410790394,0.016470109758222745,0.1615080948307342,0.014033694610165393,0.08087686981046077,0.005562963885278477
0.2062241,0.0551499512056215,0.008922630103610354,0.052040613066939474,0.016535345735101445,0.16215343585715827,0.014143197243191174,0.0819317058725629,0.005531573195701249
0.2066897,0.05575445388559522,0.008895963460553699,0.052811369502998654,0.016599469342392835,0.16279705526402058,0.014253092443503713,0.08298854538520348,0.005500488537916239
0.2071552,0.05635977692135082,0.008869022795276306,0.053582325569104174,0.016662468059542905,0.16343873387722405,0.014363359170191738,0.08404718107745994,0.005469708152341574
0.2076207,0.056965816819569914,0.00884181124504515,0.05435330380194858,0.016724329648128325,0.16407825221512745,0.014473976247553736,0.0851074046927726,0.005439230293199698
0.2080862,0.05757246949542299,0.008814332004281496,0.05512412715521719,0.01678504215559579,0.16471539057397122,0.01458492237062648,0.0861690070316302,0.005409053228555373
0.2085517,0.05817963029470129,0.008786588322621292,0.05589461903298031,0.016844593918911854,0.1653499291138937,0.014696176110787898,0.08723177799488387,0.005379175240352136
0.2090172,0.05878719401635759,0.008758583502988625,0.056664603323152526,0.016902973568121225,0.16598164794548764,0.014807715921432546,0.08829550662768519,0.005349594624447271
0.2094828,0.05939505493545374,0.008730320899683322,0.057433904431016126,0.016960170029811403,0.1666103272168447,0.01491952014371797,0.08935998116404442,0.005320309690645313
0.2099483,0.060003106826512415,0.008701803916483822,0.05820234731280594,0.017016172530481606,0.16723574720103554,0.015031567012380164,0.09042498907200418,0.005291318762730093
0.2104138,0.06061124298727044,0.008673036004766307,0.0589697575093522,0.01707097059981392,0.16785768838397166,0.015143834661616229,0.09149031709942367,0.005262620178495275
0.2108793,0.06121935626283036,0.008644020661641157,0.059735961179777856,0.017124554073844722,0.1684759315525955,0.015256301131032397,0.09255575132036781,0.005234212289773303
0.2113448,0.06182733907020686,0.008614761428107624,0.06050078513524666,0.017176913098034548,0.1690902578833428,0.015368944371655367,0.09362107718209511,0.005206093462462671
0.2118103,0.062435083423264016,0.008585261887227648,0.06126405687275745,0.017228038130234602,0.16970044903082201,0.01548174225200503,0.0946860795526372,0.005178262076553385
0.2122759,0.06304248095803873,0.008555525662319643,0.06202560460898018,0.017277919943548162,0.1703062872166538,0.015594672564226508,0.0957505427689623,0.005150716526150482
0.2127414,0.06364942295844561,0.008525556415173037,0.06278525731412868,0.017326549629085024,0.17090755531841423,0.015707713030279485,0.09681425068571449,0.0051234552194954226
0.2132069,0.06425580038235744,0.008495357844284259,0.0635428447458646,0.017373918598607332,0.1715040369586235,0.01582084130818261,0.09787698672451935,0.005096476578985152
0.2136724,0.06486150388805537,0.008464933683114887,0.06429819748322653,0.017420018587065236,0.1720955165937227,0.015934034998310826,0.09893853392384622,0.005069779041188637
0.2141379,0.06546642386104215,0.008434287698372577,0.06505114696057804,0.017464841655020855,0.1726817796029799,0.01604727164974339,0.09999867498941625,0.005043361056860625
0.2146034,0.06607045044121118,0.008403423688315379,0.06580152550156762,0.017508380190959228,0.17326261237726717,0.016160528766660336,0.101057192345145,0.005017221090952428
0.215069,0.06667347355036378,0.008372345481080016,0.06654916635309331,0.017550626913484933,0.17383780240764987,0.016273783814785166,0.10211386818460752,0.004991357622619482
0.2155345,0.06727538292006664,0.008341056933034694,0.06729390371926416,0.0175915748734033,0.17440713837372848,0.01638701422787135,0.10316848452301283,0.004965769145225482
0.216,0.06787606811984075,0.008309561927156909,0.06803557279535037,0.017631217455685032,0.1749704102316743,0.016500197414230273,0.1042208232496744,0.004940454166342865
0.2164655,0.06847541858567249,0.008277864371436778,0.06877400980171323,0.01766954838131317,0.17552740930189958,0.01661331076329806,0.10527066618096224,0.004915411207749418
0.216931,0.06907332364883731,0.00824596819730637,0.06950905201770591,0.01770656170901126,0.1760779283563023,0.016726331652238545,0.10631779511372187,0.004890638805420783
0.2173966,0.06966967256502551,0.008213877358095457,0.07024053781553523,0.017742251836851533,0.1766217617050264,0.01683923745257972,0.10736199187914426,0.004866135509518646
0.2178621,0.07026435454375955,0.008181595827514132,0.07096830669407463,0.01777661350374175,0.1771587052826779,0.01695200553688072,0.10840303839707058,0.004841899884374404
0.2183276,0.07085725877809125,0.008149127598162685,0.07169219931261783,0.017809641790789324,0.17768855673393727,0.017064613285426487,0.10944071673071436,0.004817930508468135
0.2187931,0.07144827447456707,0.008116476680069169,0.07241205752456231,0.01784133212254124,0.17821111549850754,0.017177038092947117,0.1104748091417832,0.0047942259744027035
0.2192586,0.07203729088344901,0.008083647099254994,0.0731277244110113,0.01787168026809809,0.17872618289533904,0.01728925737535888,0.11150509814598145,0.0047707848888728765
0.2197241,0.07262419732917805,0.00805064289632894,0.07383904431428245,0.01790068234210068,0.17923356220606942,0.017401248576523864,0.11253136656887522,0.004747605872629307
0.2201897,0.07320888324106695,0.008017468125109898,0.0745458628713106,0.01792833480558752,0.17973305875761902,0.017512989175025185,0.1135533976021008,0.004724687560437292
0.2206552,0.07379123818420866,0.00798412685127866,0.07524802704693156,0.01795463446672175,0.18022448000387903,0.01762445669095475,0.11457097485989759,0.004702028601030191
0.2211207,0.07437115189058628,0.007950623151059051,0.07594538516703332,0.017979578481386038,0.18070763560643074,0.017735628692710552,0.11558388243594726,0.004679627657057408
0.2215862,0.07494851429037053,0.007916961109928643,0.07663778695156034,0.018003164353644355,0.1811823375142329,0.0178464828038005,0.11659190496050081,0.004657483405026845
0.2220517,0.07552321554338969,0.007883144821359255,0.07732508354735627,0.018025389936069437,0.18164840004221527,0.017956996709649745,0.11759482765777497,0.004635594535241721
0.2225172,0.07609514607075714,0.007849178385587411,0.07800712756082968,0.01804625342993512,0.1821056399487172,0.018067148164408516,0.11859243640359987,0.00461395975173163
0.2229828,0.0766641965866409,0.007815065908414862,0.0786837730904275,0.01806575338527274,0.18255387651171104,0.01817691499775732,0.1195845177832993,0.004592577772177707
0.2234483,0.07723025813015932,0.007780811500039203,0.0793548757589001,0.01808388870079088,0.1829929316037513,0.01828627512170634,0.12057085914978471,0.004571447327831807
0.2239138,0.07779322209738644,0.00774641927391458,0.08002029274534193,0.018100658623657836,0.18342262976558973,0.0183952065373859,0.121551248681844,0.004550567163429593
0.2243793,0.0783529802734503,0.007711893345642417,0.08067988281699114,0.01811606274914624,0.18384279827839706,0.018503687341824896,0.12252547544260575,0.004529936037097501
0.2248448,0.0789094248647063,0.007677237831892043,0.08133350636077168,0.018130101020139247,0.18425326723453014,0.018611695734714134,0.12349332943815897,0.004509552720253589
0.2253103,0.07946244853096784,0.007642456849351067,0.08198102541456126,0.01814277372649772,0.18465386960678343,0.018719210025151485,0.12445460167630787,0.004489415997502347
0.2257759,0.08001194441777558,0.0076075545137052605,0.08262230369816814,0.01815408150428779,0.1850444413160626,0.018826208638365788,0.1254090842254412,0.0044695246665236174
0.2262414,0.0805578061886862,0.007572534938647737,0.08325720664400027,0.01816402533486796,0.1854248212974189,0.018932670122416447,0.1263565702734939,0.0044498775379558245
0.2267069,0.08109992805756182,0.0075374022349170835,0.08388560142740992,0.018172606543835013,0.18579485156438313,0.0190385731548656,0.1272968541869785,0.0044304734352737535
0.2271724,0.0816382048208407,0.0075021605093641116,0.08450735699669734,0.018179826799827808,0.18615437727153789,0.019143896549419854,0.12822973157006282,0.004411311194661141
0.2276379,0.08217253188977039,0.007466813864046822,0.08512234410275701,0.01818568811318814,0.18650324677526972,0.019248619262538593,0.1291549993236687,0.004392389664878335
0.2281034,0.082702805322584,0.007431366395353108,0.0857304353283503,0.018190192834477814,0.18684131169264345,0.01935272040000599,0.13007245570456719,0.0043737077071253055
0.228569,0.08322892185660165,0.007395822193150681,0.08633150511698844,0.018193343652851378,0.18716842695834357,0.019456179223463908,0.13098190038444338,0.004355264194900236
0.2290345,0.0837507789402384,0.007360185339963666,0.0869254298014101,0.018195143594284285,0.1874844508796294,0.019558975156902938,0.13188313450890474,0.004337058013853937
0.2295,0.08426827476490131,0.007324459910175255,0.08751208763163801,0.018195596019656625,0.18778924518925352,0.01966108779310886,0.13277596075640552,0.004319088061640304
0.2299655,0.0847813082967579,0.00728864996925579,0.08809135880259894,0.018194704622693077,0.1880826750962989,0.01976249690006188,0.1336601833970599,0.00430135324776301
0.230431,0.08528977930835886,0.007252759573015602,0.08866312548129217,0.018192473427760227,0.18836460933489663,0.019863182427285967,0.13453560835131578,0.00428385249341861
0.2308966,0.0857935884100977,0.007216792766881886,0.08922727183349127,0.018188906787522836,0.18863492021079659,0.019963124512145665,0.13540204324846047,0.004266584731336262
0.2313621,0.08629263708148964,0.007180753585198906,0.08978368404996495,0.018184009380461098,0.18889348364577097,0.020062303486087854,0.13625929748492893,0.0042495489056142075
0.2318276,0.08678682770225231,0.0071446460505507825,0.09033225037220238,0.018177786208251223,0.18914017921984047,0.02016069988082589,0.13710718228238478,0.004232743971553239
0.2322931,0.08727606358316924,0.007108474173106089,0.0908728611176295,0.018170242593011997,0.18937489021131876,0.02025829443446361,0.13794551074554298,0.004216168895487327
0.2327586,0.08776024899671751,0.007072241949983482,0.09140540870430242,0.018161384174420092,0.18959750363467798,0.020355068097556776,0.1387740979197033,0.004199822654611634
0.2332241,0.08823928920744066,0.007035953364637542,0.0919297876750647,0.018151216906697097,0.18980791027624203,0.02045100203910937,0.13959276084796202,0.004183704236808142
0.2336897,0.08871309050204695,0.006999612386264083,0.09244589472115543,0.018139747055471295,0.19000600472771775,0.02054607765250236,0.14040131862807056,0.004167812640469096
0.2341552,0.0891815602192135,0.006963222969224099,0.09295362870525513,0.01812698119451732,0.19019168541757592,0.020640276561352335,0.14119959246890912,0.00415214687431847
0.2346207,0.08964460677907665,0.0069267890524856626,0.09345289068395701,0.018112926202376745,0.1903648546402947,0.020733580625297555,0.14198740574654498,0.0041367059572316135
0.2350862,0.0901021397123882,0.00689031455908307,0.09394358392965113,0.018097589258862585,0.1905254185834778,0.020825971945708947,0.14276458405984727,0.004121488918053242
0.2355517,0.0905540696893172,0.006853803395592656,0.09442561395180923,0.018080977841450612,0.19067328735285846,0.020917432871323624,0.143530955285631,0.004106494795413853
0.2360172,0.09100030854787598,0.006817259451624691,0.094898888517658,0.018063099721560318,0.19080837499520042,0.021007946003798482,0.1442863496333056,0.0040917226375446454
0.2364828,0.09144076932194951,0.006780686599330848,0.09536331767222864,0.01804396296072826,0.19093059951910582,0.02109749420318153,0.14503059969900478,0.004077171502090984
0.2369483,0.09187536626890588,0.006744088692926771,0.09581881375777063,0.018023575906676605,0.19103988291373927,0.021186060593298427,0.14576354051917545,0.004062840455924418
0.2374138,0.09230401489676616,0.006707469568229242,0.09626529143251741,0.01800194718927953,0.19113615116547888,0.021273628567051794,0.14648500962360475,0.004048728574953216
0.2378793,0.09272663199091113,0.006670833042207469,0.09670266768879188,0.01797908571643043,0.19121933427250373,0.021360181791630555,0.14719484708786337,0.004034834943931389
0.2383448,0.0931431356403029,0.0066341829125479675,0.09713086187043937,0.01795500066981293,0.19128936625732942,0.021445704213626612,0.14789289558514332,0.004021158656266087
0.2388103,0.09355344526319952,0.006597522957232464,0.09754979568957567,0.01792970150057883,0.19134618517730353,0.021530180064055778,0.14857900043746788,0.0040076988138232576
0.2392759,0.09395748163234159,0.006560856934128205,0.09795939324263753,0.017903197924936352,0.1913897331330741,0.02161359386327992,0.14925300966624996,0.003994454526731424
0.2397414,0.09435516689959109,0.00652418858059003,0.09835958102572298,0.017875499919652055,0.1914199562750456,0.0216959304258271,0.14991477404217496,0.003981424913183405
0.2402069,0.09474642462000374,0.006487521613073525,0.09875028794920802,0.01784661771746995,0.19143680480783792,0.021777174865106257,0.15056414713438337,0.003968609099235796
0.2406724,0.09513117977531799,0.006450859726758526,0.09913144535162664,0.017816561802451305,0.19144023299276625,0.02185731259801301,0.15120098535892665,0.0039560062186060185
0.2411379,0.09550935879684536,0.00641420659518225,0.09950298701280014,0.017785342905238623,0.19143019914836046,0.02193632934942301,0.1518251480264697,0.003943615412466729
0.2416034,0.09588088958774926,0.006377565869881255,0.09986484916620143,0.01775297199824728,0.19140666564894465,0.022014211156569218,0.1524364973892119,0.003931435829237393
0.242069,0.09624570154470087,0.006340941180041476,0.10021697051053967,0.01771946029078836,0.19136959892129995,0.022090944373299375,0.15303489868699743,0.003919466624372785
0.2425345,0.09660372557890277,0.006304336132155536,0.10055929222054963,0.017684819224126187,0.1913189694394347,0.02216651567420999,0.15362022019258478,0.003907706960148237
0.243,0.09695489413647307,0.006267754309686522,0.10089175795696995,0.017649060466473958,0.19125475171748857,0.022240912058653042,0.15419233325604345,0.003896156005441383
0.2434655,0.0972991412181839,0.006231199272737452,0.10121431387569352,0.017612195907931005,0.19117692430079933,0.022314120854611718,0.15475111234824623,0.0038848129355101776
0.243931,0.09763640239854979,0.006194674557725725,0.1015269086360742,0.01757423765536492,0.19108546975516114,0.02238612972244148,0.1552964351034236,0.003873676931766965
0.2443966,0.09796661484426214,0.006158183677061818,0.10182949340837383,0.017535198027241888,0.19098037465430712,0.022456926658472806,0.15582818236074703,0.003862747181548329
0.2448621,0.09828971733196672,0.006121730118831646,0.10212202188033415,0.01749508954840846,0.19086162956564975,0.02252649999847208,0.15634623820490823,0.003852022877880464
0.2453276,0.09860565026538093,0.00608531734648199,0.10240445026286041,0.017453924944828055,0.19072922903431344,0.02259483842095711,0.15685049000566226,0.0038415032192397813
0.2457931,0.09891435569174784,0.006048948798508557,0.10267673729480427,0.017411717138275426,0.1905831715654952,0.02266193095036399,0.15734082845630143,0.0038311874093084797
0.2462586,0.0992157773176233,0.006012627888146239,0.10293884424683601,0.017368479240992506,0.1904234596051908,0.022727766960062273,0.15781714761103,0.0038210746567248254
0.2467241,0.09950986052399215,0.005976358003061274,0.10319073492439852,0.017324224550308943,0.19025009951932337,0.02279233617521548,0.15827934492120935,0.003811164174827914
0.2471897,0.09979655238070889,0.005940142505045061,0.10343237566973756,0.017278966543230585,0.19006310157131237,0.022855628675484428,0.15872732127044517,0.0038014551813967466
0.2476552,0.10007580166025833,0.00590398472970949,0.10366373536300573,0.01723271887099913,0.18986247989812194,0.022917634897571083,0.15916098100848916,0.0037919468983834788
0.2481207,0.1003475588508312,0.005867887986183702,0.10388478542243955,0.017185495353626023,0.1896482524848256,0.022978345637600928,0.15958023198392915,0.0037826385516407475
0.2485862,0.10061177616871046,0.005831855556812308,0.10409549980361207,0.01713730997440353,0.18942044113772552,0.023037752053342207,0.15998498557564214,0.003773529370643044
0.2490517,0.1008684075699641,0.005795890696855132,0.1042958549977651,0.01708817687439585,0.18917907145606325,0.023095845666260485,0.16037515672298513,0.003764618588202126
0.2495172,0.10111740876144079,0.005759996634188629,0.10448583002922764,0.017038110346912883,0.18892417280235874,0.02315261836340749,0.1607506639546994,0.003755905440176519
0.2499828,0.10135873721106554,0.005724176569009167,0.1046654064519289,0.016987124831969257,0.18865577827141258,0.02320806239914321,0.16111142941650344,0.003747389165175191
0.2504483,0.10159235215743298,0.005688433673538379,0.10483456834501595,0.0169352349107311,0.18837392465800618,0.023262170396690568,0.16145737889735,0.003739069004255528
0.2509138,0.10181821461869726,0.005652771091730843,0.10499330230758738,0.016882455299952928,0.18807865242333244,0.023314935349522226,0.16178844185432106,0.003730944200615766
0.2513793,0.10203628740075799,0.00561719193898427,0.10514159745255605,0.016828800846407057,0.18777000566018937,0.023366350622579315,0.1621045514361354,0.0037230139992820805
0.2518448,0.10224653510474258,0.005581699301852401,0.1052794453996545,0.0167742865213079,0.18744803205696692,0.023416409953322087,0.1624056445052421,0.0037152776467905342
0.2523103,0.10244892413378719,0.005546296237760755,0.10540684026759786,0.01671892741473365,0.18711278286045738,0.02346510745261277,0.1626916616584743,0.0037077343908641005
0.2527759,0.10264342269911872,0.005510985774725338,0.10552377866541919,0.016662738730047862,0.18676431283751882,0.023512437605431123,0.16296254724623763,0.0037003834800849737
0.2532414,0.10283000082544215,0.00547577091107436,0.1056302596829929,0.016605735778323433,0.18640268023562195,0.023558395271423303,0.16321824939021165,0.003693224163562367
0.2537069,0.10300863035563783,0.005440654615172993,0.10572628488076151,0.016547933972771642,0.1860279467423111,0.023602975685284695,0.16345871999954303,0.0036862556905959535
0.2541724,0.10317928495477524,0.0054056398251511656,0.1058118582786814,0.016489348823178786,0.1856401774436104,0.023646174456977413,0.16368391478551397,0.003679477310335109
0.2546379,0.10334194011344973,0.005370729448634334,0.1058869863444024,0.016429995930353065,0.18523944078140628,0.023687987571783198,0.16389379327467163,0.003672888271434058
0.2551034,0.1034965731504494,0.005335926362477178,0.1059516779806956,0.0163698909805843,0.1848258085098393,0.023728411390192217,0.16408831882040695,0.0036664878217030155
0.255569,0.10364316321475994,0.0053012334125001025,0.10600594451214349,0.016309049740119125,0.18439935565073803,0.02376744264762828,0.164267458612975,0.0036602752077553964
0.2560345,0.10378169128691472,0.005266653413228419,0.10604979967110505,0.016247488049654268,0.18396016044812838,0.023805078454010805,0.16443118368795165,0.00365424967465114
0.2565,0.10391214017969809,0.005232189147634084,0.10608325958296845,0.016185221818850546,0.18350830432185272,0.023841316293153697,0.16457946893312436,0.003648410465536195
0.2569655,0.10403449453820925,0.00519784336687981,0.10610634275070316,0.016122267020870103,0.18304387182033288,0.023876154022001442,0.164712293093818,0.003642756821278197
0.257431,0.10414874083929448,0.005163618790065379,0.10611907003872274,0.016058639686939342,0.18256695057251224,0.02390958986970249,0.16482963877665854,0.003637287980098372
0.2578966,0.10425486739035487,0.005129518103975975,0.1061214646560696,0.015994355900939904,0.1820776312390106,0.02394162243652014,0.1649314924517801,0.0036320031771997
0.2583621,0.10435286432753683,0.005095543962832375,0.10611355213893212,0.015929431794029968,0.18157600746252642,0.023972250692581104,0.16501784445348164,0.003626901644391367
0.2588276,0.10444272361331272,0.0050616989880428375,0.10609536033250552,0.01586388353929795,0.18106217581751882,0.02400147397646197,0.16508868897934142,0.0036219826097095595
0.2592931,0.10452443903345844,0.0050279857679565824,0.10606691937220697,0.015797727346450623,0.1805362357592017,0.024029291993613745,0.1651440240877967,0.003617245297034653
0.2597586,0.10459800619343511,0.004994406857618737,0.1060282616642551,0.015730979456537536,0.17999828957188074,0.024055704814624955,0.16518385169419647,0.003612688925704852
0.2602241,0.10466342251418234,0.0049609647785266945,0.10597942186562492,0.015663656136713517,0.17944844231666437,0.02408071287332368,0.16520817756533426,0.0036083127101263495
0.2606897,0.10472068722732969,0.004927662018387827,0.10592043686338856,0.015595773675040907,0.1788868017785785,0.024104316964719097,0.16521701131246694,0.0036041158593800825
0.2611552,0.1047698013698341,0.00489450103087853,0.10585134575345219,0.015527348375333112,0.1783134784131168,0.024126518242783196,0.16521036638282516,0.0036000975768251784
0.2616207,0.10481076777805116,0.004861484235404577,0.10577218981870015,0.015458396552040905,0.17772858529225766,0.024147318218073484,0.16518826004961992,0.003596257059699201
0.2620862,0.10484359108124802,0.004828614016862822,0.10568301250655675,0.015388934525182859,0.17713223804997977,0.024166718755197634,0.16515071340054974,0.0035925934987153393
0.2625517,0.10486827769456668,0.004795892725404255,0.1055838594059765,0.015318978615321117,0.1765245548273091,0.024184722070121217,0.16509775132481322,0.0035891060776567147
0.2630172,0.10488483581144596,0.004763322676198505,0.10547477822387394,0.015248545138583694,0.17590565621693063,0.024201330727319826,0.1650294024986324,0.003585793972968018
0.2634828,0.10489327539551085,0.0047309061491998304,0.10535581876100394,0.015177650401734447,0.17527566520739746,0.024216547636777018,0.16494569936929293,0.003582656353344726
0.2639483,0.10489360817193809,0.00469864538891471,0.10522703288730391,0.01510631069729188,0.17463470712697152,0.024230376050829835,0.16484667813770934,0.003579692379320199
0.2644138,0.10488584761830584,0.0046665426041711195,0.1050884745167089,0.015034542298697951,0.1739829095871284,0.02424281956086371,0.16473237873952495,0.0035769012028510133
0.2648793,0.10487000895493512,0.004634599967889629,0.10494019958145161,0.014962361455538128,0.17332040242575852,0.024253882093858814,0.1646028448247575,0.0035742819669009286
0.2653448,0.10484610913472983,0.004602819616856441,0.10478226600585895,0.014889784388813955,0.17264731765009708,0.02426356790879018,0.1644581237360043,0.0035718338050239264
0.2658103,0.10481416683252201,0.004571203651498509,0.1046147336796573,0.014816827286269334,0.17196378937941326,0.024271881592883984,0.16429826648522308,0.003569555840946768
0.2662759,0.1047742024339284,0.004539754135660901,0.10443766443079913,0.014743506297771674,0.17126995378748852,0.024278828057732856,0.16412332772910665,0.003567447188151527
0.2667414,0.1047262380237243,0.004508473096386564,0.10425112199782399,0.014669837530748993,0.1705659490449135,0.024284412535273074,0.16393336574307155,0.0035655069494585617
0.2672069,0.10467029737374037,0.004477362523698669,0.10405517200176724,0.014595837045683971,0.16985191526123278,0.02428864057362697,0.16372844239388357,0.003563734216610383
0.2676724,0.10460640593028829,0.004446424370385705,0.10384988191763025,0.014521520851665866,0.1691279944269655,0.024291518032814024,0.1635086231109447,0.003562128069856863
0.2681379,0.1045345908011212,0.004415660551789543,0.1036353210454266,0.014446904902001219,0.1683943303555315,0.02429305108033443,0.16327397685626766,0.0035606875775422327
0.2686034,0.10445488074193426,0.004385072945596644,0.10341156048081855,0.01437200508988429,0.1676510686251113,0.024293246186629106,0.16302457609316628,0.00355941179569429
0.269069,0.1043673061424113,0.004354663391632636,0.10317867308535948,0.014296837244128191,0.16689835652046875,0.02429211012042021,0.16276049675369028,0.0035582997676162245
0.2695345,0.10427189901182266,0.004324433691660492,0.10293673345635752,0.01422141712495768,0.16613634297476504,0.024289649943936373,0.1624818182048346,0.00355735052348146
0.27,0.10416869296417997,0.004294385609182533,0.10268581789637646,0.01414576041986454,0.1653651785113928,0.02428587300802696,0.16218862321355354,0.003556563079931874
0.2704655,0.10405772320295296,0.004264520869246518,0.10242600438239062,0.014069882739526474,0.16458501518585858,0.02428078694716956,0.16188099791061064,0.0035559364396797496
0.270931,0.10393902650535333,0.0042348411582560554,0.10215737253461071,0.013993799613790301,0.1637960065277419,0.02427439967437508,0.1615590317532951,0.0035554695911137924
0.2713966,0.10381264120619053,0.004205348123785615,0.10188000358499802,0.013917526487720228,0.162998307482758,0.02426671937599474,0.16122281748703535,0.0035551615079095563
0.2718621,0.10367860718130487,0.004176043374400346,0.1015939803454851,0.01384107871771194,0.162192074354952,0.024257754506433225,0.16087245110594056,0.003555011148644578
0.2723276,0.10353696583058224,0.004146928479480941,0.10129938717592119,0.013764471567673268,0.16137746474905004,0.02424751378277207,0.16050803181229997,0.003555017456418514
0.2727931,0.10338776006055549,0.0041180049690537485,0.10099630995176095,0.013687720205272152,0.1605546375129934,0.024236006179307643,0.16012966197506967,0.003555179358478544
0.2732586,0.10323103426659638,0.004089274333626333,0.10068483603151517,0.013610839698252577,0.1597237526806789,0.0242232409220075,0.15973744708737606,0.0035554957658502787
0.2737241,0.1030668343147024,0.004060738024028694,0.10036505422398218,0.013533845010819195,0.15888497141492894,0.024209227482889173,0.15933149572306357,0.0035559655729744074
0.2741897,0.10289520752288171,0.0040323974512603495,0.10003705475527856,0.013456751000091366,0.1580384559507127,0.024193975574324986,0.1589119194923138,0.0035565876573493116
0.2746552,0.10271620264213992,0.0040042539863434585,0.09970092923568735,0.013379572412627326,0.15718436953863915,0.024177495143276544,0.15847883299636167,0.003557360879179866
0.2751207,0.1025298698370721,0.003976308960182218,0.09935677062634168,0.013302323881019365,0.15632287638874107,0.024159796365462144,0.15803235378133335,0.003558284081032651
0.2755862,0.1023362606660636,0.003948563663428719,0.0990046732057619,0.013225019920560832,0.155454141614568,0.024140889639460494,0.15757260229122988,0.0035593560874978216
0.2760517,0.10213542806110304,0.003921019346355454,0.09864473253626309,0.013147674925985911,0.1545783311776053,0.024120785580753885,0.15709970182007907,0.003560575704857857
0.2765172,0.10192742630721163,0.0038936772187346687,0.0982770454302499,0.013070303168283094,0.15369561183203567,0.024099495015714005,0.1566137784632782,0.0035619417207634644
0.2769828,0.10171231102149315,0.003866538449724729,0.09790170991641509,0.012992918791583227,0.15280615106985845,0.024077028975533484,0.15611496106815015,0.0035634529039169156
0.2774483,0.10149013913180926,0.0038396041677637082,0.09751882520585753,0.01291553581012295,0.15191011706638122,0.024053398690106448,0.15560338118373526,0.0035651080037631226
0.2779138,0.10126096885508541,0.003812875460470378,0.09712849165813499,0.012838168105284297,0.15100767862609724,0.024028615581861375,0.15507917300984198,0.0035669057501888095
0.2783793,0.10102485967525375,0.003786353374552816,0.09673081074726654,0.012760829422711143,0.15009900512896182,0.024002691259549652,0.1545424733453801,0.003568844853230148
0.2788448,0.10078187232083992,0.0037600389157248677,0.0963258850276983,0.012683533369503059,0.14918426647707944,0.023975637511993497,0.1539934215360008,0.0035709240027892593
0.2793103,0.10053206874220157,0.003733933048630705,0.09591381810024587,0.012606293411487111,0.14826363304181264,0.023947466301797067,0.15343215942106925,0.0035731418683600173
0.2797759,0.10027551208842767,0.0037080366967777597,0.09549471457802627,0.012529122870568139,0.14733727561132284,0.023918189759024672,0.15285883127999625,0.003575497098763578
0.2802414,0.1000122666839079,0.003682350742478319,0.09506868005239115,0.012452034922158005,0.14640536533855175,0.023887820174850236,0.15227358377795655,0.003577988321894094
0.2807069,0.09974239800458248,0.003656876026800084,0.09463582105887232,0.012375042592684385,0.14546807368965112,0.023856369995182158,0.15167656591102238,0.0035806141444750476
0.2811724,0.09946597265388307,0.0036316133495260063,0.09419624504315001,0.012298158757179614,0.14452557239286762,0.023823851814267574,0.15106792895074153,0.0035833731518266324
0.2816379,0.09918305833837661,0.003606563469123718,0.09375006032705374,0.012221396136950134,0.14357803338788863,0.023790278368279925,0.1504478263881904,0.0035862639076445955
0.2821034,0.0988937238431232,0.0035817271027248853,0.0932973760746048,0.012144767297327098,0.14262562877565435,0.023755662528893676,0.1498164138775329,0.003589284953790941
0.282569,0.09859803900676054,0.0035571049261148213,0.09283830225810921,0.01206828464549872,0.14166853076864097,0.02372001729684967,0.1491738491791162,0.0035924348100968696
0.2830345,0.09829607469632701,0.003532697573732697,0.09237294962430949,0.011991960428425047,0.14070691164161914,0.02368335579551452,0.14852029210213505,0.003595711974178324
0.2835,0.09798790278183547,0.0035085056386827125,0.09190142966060275,0.011915806730835862,0.13974094368289203,0.02364569126443731,0.14785590444689595,0.0035991149212644914
0.2839655,0.09767359611061006,0.0034845296727565745,0.09142385456133298,0.01183983547331257,0.1387707991460171,0.02360703705290678,0.14718084994671263,0.0036026421040395826
0.284431,0.09735322848139714,0.003460770186467636,0.09094033719416461,0.011764058410454827,0.1377966502020156,0.02356740661351217,0.14649529420946442,0.0036062919524981986
0.2848966,0.09702687461826169,0.003437227649097033,0.0904509910665442,0.011688487129132796,0.13681866889207392,0.023526813495711025,0.14579940465884828,0.0036100628738145726
0.2853621,0.09669461014427945,0.0034139024887521467,0.08995593029225694,0.011613133046825779,0.1358370270807409,0.023485271339407535,0.14509335047535535,0.0036139532522259615
0.2858276,0.0963565115550353,0.003390795092437712,0.08945526955808454,0.01153800741004795,0.13485189640962622,0.023442793868545128,0.14437730253700207,0.0036179614489304677
0.2862931,0.09601265619193797,0.0033679058061398546,0.08894912409057047,0.01146312129286176,0.1338634482516043,0.023399394884717296,0.14365143335984557,0.0036220858019995676
0.2867586,0.0956631222153615,0.003345234934923353,0.088437609622899,0.01138848559547959,0.13287185366552898,0.023355088260801023,0.14291591703831183,0.0036263246263056295
0.2872241,0.09530798857762396,0.0033227827430423597,0.08792084236189407,0.011314111042954073,0.131877283351464,0.02330988793461712,0.1421709291853647,0.003630676213464698
0.2876897,0.09494733499581394,0.0033005494540648333,0.08739893895514446,0.011240008183957527,0.1308799076064352,0.023263807902622013,0.14141664687254285,0.0036351388317947893
0.2881552,0.0945812419244753,0.0032785352510108843,0.08687201645826108,0.011166187389650828,0.12987989628070998,0.02321686221363541,0.14065324856989048,0.0036397107262899457
0.2886207,0.0942097905281608,0.0032567402765052256,0.08634019230227327,0.011092658852642079,0.12887741873461073,0.02316906496260839,0.13988091408580694,0.0036443901186102535
0.2890862,0.0938330626538657,0.0032351646329439035,0.08580358426117005,0.011019432586035442,0.12787264379586724,0.023120430284436052,0.1390998245068397,0.003649175207088034
0.2895517,0.09345114080335212,0.003213808382675441,0.08526231041959308,0.010946518422570436,0.1268657397175152,0.02307097234781881,0.13831016213744282,0.0036540641667503894
0.2900172,0.09306410810537569,0.003192671548196523,0.08471648914068758,0.010873926013852063,0.1258568741363459,0.02302070534917624,0.13751211043972297,0.0036590551493582697
0.2904828,0.09267204828782666,0.003171754112362334,0.0841662390341179,0.010801664829672033,0.12484621403191325,0.02296964350661712,0.13670585397319363,0.0036641462834622078
0.2909483,0.09227504564979722,0.003151056018611657,0.08361167892425425,0.010729744157421346,0.12383392568610285,0.022917801053969216,0.1358915783345571,0.003669335674474842
0.2914138,0.09187318503358836,0.0031305771712068363,0.08305292781853703,0.010658173101594401,0.12282017464326717,0.022865192234872156,0.13506947009753306,0.003674621404760334
0.2918793,0.09146655179666954,0.003110317435488705,0.0824901048760256,0.010586960583384802,0.12180512567093056,0.02281183129693654,0.13423971675275123,0.0036800015337407487
0.2923448,0.09105523178360539,0.003090276638146579,0.08192332937613808,0.010516115340372896,0.12078894272106697,0.022757732485972237,0.1334025066477255,0.0036854740980194543
0.2928103,0.09063931129796439,0.0030704545675033926,0.08135272068758892,0.01044564592630511,0.11977178889195222,0.022702910040288612,0.13255802892692622,0.00369103711152162
0.2932759,0.09021887707422505,0.003050850973816065,0.08077839823753097,0.010375560710965084,0.11875382639059345,0.02264737818506933,0.1317064734719676,0.003696688565651855
0.2937414,0.08979401624969599,0.00303146556959117,0.08020048148090883,0.01030586788013655,0.11773521649573719,0.022591151126824235,0.13084803084192653,0.0037024264294690493
0.2942069,0.08936481633646624,0.0030122980299159678,0.07961908987003043,0.010236575435657902,0.11671611952145845,0.022534243047920604,0.12998289221380985,0.003708248649878457
0.2946724,0.0889313651934034,0.002993347992804836,0.07903434282436374,0.010167691195568302,0.11569669478133297,0.022476668101196032,0.12911124932318635,0.003714153151841044
0.2951379,0.0884937509982169,0.002974615059561129,0.07844635970056564,0.010099222794345166,0.11467710055319506,0.022418440404655005,0.1282332944050011,0.0037201378386001035
0.2956034,0.08805206221960378,0.002956098795154464,0.07785525976274986,0.010031177683232726,0.11365749404448407,0.022359574036251193,0.12734922013458916,0.003726200591925108
0.296069,0.08760638758949522,0.0029377987286134197,0.07726116215300138,0.009963563130661386,0.11263803135818275,0.02230008302875736,0.1264592195689053,0.0037323392723727588
0.2965345,0.08715681607542122,0.0029197143534335987,0.07666418586214473,0.009896386222757422,0.11161886745935155,0.022239981364724774,0.12556348608798795,0.0037385517195651775
0.297,0.08670343685301095,0.0029018451280009923,0.07606444970077345,0.009829653863942595,0.11060015614226272,0.022179282971534032,0.12466221333667458,0.003744835752485178
0.2974655,0.0862463392786461,0.0028841904760305553,0.07546207227054853,0.009763372777623153,0.10958204999813967,0.022118001716539368,0.1237555951665874,0.0037511891697885303
0.297931,0.08578561286228416,0.0028667497870198838,0.07485717193577308,0.009697549506967643,0.10856470038350674,0.022056151402308502,0.12284382557840827,0.0037576097501331356
0.2983966,0.08532134724046815,0.002849522416717859,0.0742498667952511,0.009632190415772965,0.1075482573891556,0.021993745761960205,0.1219270986644631,0.003764095252525013
0.2988621,0.08485363214953852,0.0028325076876081156,0.07364027465443775,0.00956730168941802,0.10653286980973459,0.021930798454601646,0.12100560855163657,0.0037706434166809694
0.2993276,0.08438255739906246,0.00281570488940717,0.0730285129978887,0.00950288933590428,0.10551868511396807,0.021867323060867586,0.1200795493446383,0.003777251963407827
0.2997931,0.08390821284549566,0.0027991132795770336,0.07241469896201608,0.009438959186982603,0.10450584941551329,0.021803333078563338,0.11914911506964207,0.003783918594998077
0.3002586,0.0834306883660901,0.0027827320838521297,0.07179894930815822,0.00937551689936545,0.10349450744446174,0.021738841918413267,0.11821449961831995,0.0037906409956418178
0.3007241,0.08295007383306183,0.0027665604967803265,0.07118138039597056,0.009312567956023716,0.10248480251949268,0.021673862899916546,0.1172758966922924,0.0037974168318548386
0.3011897,0.08246645908803102,0.0027505976822779074,0.07056210815714448,0.009250117667567226,0.10147687652068604,0.021608409247311597,0.11633349974801477,0.0038042437529226805
0.3016552,0.08197993391674689,0.0027348427741982874,0.06994124806946078,0.009188171173707986,0.10047086986300187,0.021542494085650732,0.1153875019421204,0.003811119391360493
0.3021207,0.08149058802410857,0.0027192948769142787,0.06931891513118399,0.009126733444805132,0.09946692147043315,0.02147613043698637,0.11443809607723882,0.0038180413633884867
0.3025862,0.0809985110094931,0.002703953065913689,0.06869522383580315,0.00906580928349056,0.09846516875083874,0.021409331216670144,0.11348547454830736,0.003825007269422763
0.3030517,0.08050379234240056,0.0026888163884080355,0.0680702881471247,0.009005403326374154,0.09746574757146276,0.021342109229766138,0.11252982928939345,0.003832014694581303
0.3035172,0.08000652133842565,0.002673883863954121,0.06744422147472191,0.00894552004582747,0.09646879223514611,0.021274477167579277,0.11157135172104446,0.0038390612092048877
0.3039828,0.0795067871355646,0.002659154485088209,0.06681713664974522,0.00888616375184475,0.09547443545723647,0.021206447604299877,0.11061023269818127,0.0038461443693927014
0.3044483,0.0790046786708655,0.002644627217972513,0.06618914590109665,0.008827338593980034,0.09448280834320162,0.021138032993765304,0.10964666245855158,0.003853261717552349
0.3049138,0.07850028465742953,0.002630301003053694,0.06556036083197192,0.008769048563359156,0.09349404036695134,0.021069245666339467,0.10868083057175881,0.0038604107829640034
0.3053793,0.07799369356177042,0.0026161747557330553,0.06493089239677206,0.008711297494765319,0.0925082593498724,0.021000097825911033,0.10771292588888218,0.003867589082358369
0.3058448,0.07748499358153897,0.0026022473670480844,0.0643008508783868,0.008654089068796904,0.09152559144058066,0.020930601547011013,0.10674313649270353,0.003874794120508138
0.3063103,0.07697427262361922,0.002588517704365,0.06367034586585091,0.008597426814096126,0.0905461610953936,0.020860768772050398,0.10577164964855681,0.0038820233908326064
0.3067759,0.07646161828260271,0.0025749846120819513,0.06303948623237475,0.008541314109647133,0.08957009105952633,0.020790611308678427,0.10479865175581515,0.003889274376015112
0.3072414,0.07594711781964676,0.002561646912342496,0.06240838011374937,0.008485754187142078,0.0885975023490127,0.020720140827261913,0.10382432830003116,0.003896544548632961
0.3077069,0.07543085814172258,0.0025485034057589804,0.06177713488712653,0.00843075013341368,0.08762851423335315,0.020649368858485884,0.10284886380574537,0.003903831371799468
0.3081724,0.07491292578125859,0.0025355528721454222,0.061145857150173795,0.008376304892932746,0.08666324421888967,0.020578306791075713,0.10187244178997755,0.0039111322998177525
0.3086379,0.07439340687618386,0.0025227940712594927,0.06051465270060467,0.008322421270369099,0.08570180803290772,0.02050696586964078,0.10089524471641562,0.003918444778845905
0.3091034,0.07387238715037628,0.0025102257435531666,0.05988362651608345,0.008269101933214304,0.08474431960846442,0.02043535719263965,0.09991745395031651,0.00392576624757311
0.309569,0.0733499518945196,0.002497846610931612,0.05925288273450488,0.008216349414464552,0.0837908910699415,0.020363491710466555,0.09893924971413255,0.003933094137906306
0.3100345,0.07282618594737275,0.0024856553775198715,0.05862252463464834,0.00816416611536195,0.08284163271932148,0.020291380223659068,0.09796081104387647,0.003940425875666924
0.3105,0.07230117367745509,0.002473650730436877,0.0579926546172068,0.008112554308192452,0.08189665302318438,0.020219033381226575,0.09698231574623767,0.003947758881297238
0.3109655,0.07177499896515005,0.002461831340576335,0.05736337418619051,0.008061516139138568,0.08095605860042249,0.02014646167909931,0.09600394035646138,0.003955090570575836
0.311431,0.07124774518522987,0.002450195863394011,0.056734783930706044,0.00801105363118493,0.08001995421066925,0.020073675458697544,0.09502586009700194,0.0039624183553417045
0.3118966,0.07071949518980396,0.002438742939700935,0.05610698350711088,0.007961168687074742,0.07908844274343878,0.02000068490562059,0.09404824883696075,0.003969739644226396
0.3123621,0.07019033129169291,0.0024274711964620633,0.05548007162154446,0.007911863092315096,0.07816162520797094,0.019927500048455157,0.09307127905231932,0.003977051843393749
0.3128276,0.06966033524823075,0.002416379247599922,0.05485414601283687,0.00786313851822903,0.0772396007237768,0.019854130757702614,0.09209512178697718,0.0039843523572866205
0.3132931,0.06912958824549699,0.002405465694802805,0.05422930343579618,0.007814996525052173,0.07632246651187838,0.01978058674482473,0.09111994661460421,0.003991638589380093
0.3137586,0.06859817088298073,0.0023947291283370857,0.053605639644875934,0.0077674385650718025,0.07541031788673645,0.01970687756140727,0.09014592160131674,0.00399890794294061
0.3142241,0.06806616315867818,0.002384168127863242,0.05298324937822433,0.007720465985806037,0.07450324824885926,0.01963301259844076,0.08917321326918597,0.004006157821790498
0.3146897,0.06753364445462519,0.002373781263255194,0.052362226342117055,0.007674080033220926,0.07360134907808487,0.01955900108571762,0.08820198656058735,0.004013385631077341
0.3151552,0.06700069352286586,0.0023635670954225653,0.0517426631957755,0.0076282818549831865,0.07270470992752985,0.019484852091344724,0.08723240480339801,0.004020588778047643
0.3156207,0.06646738847185815,0.0023535241771354826,0.05112465153657254,0.007583072503746319,0.07181341841819663,0.019410574521370513,0.08626462967704941,0.004027764672824291
0.3160862,0.06593380675331695,0.002343651053851523,0.050508281885628115,0.007538452940467869,0.0709275602342319,0.019336177119525618,0.08529882117944107,0.004034910729187276
0.3165517,0.06540002514949482,0.002333946264544419,0.04989364367379675,0.007494424037755595,0.07004721911882823,0.019261668467075936,0.0843351375947208,0.004042024365357241
0.3170172,0.06486611976089997,0.002324408342534136,0.04928082522804969,0.007450986583240301,0.06917247687076113,0.01918705698278696,0.08337373546193633,0.004049103004781419
0.3174828,0.06433216599445066,0.0023150358163179447,0.04866991375825385,0.007408141282973104,0.06830341334155306,0.019112350922998105,0.08241476954456188,0.0040561440769215865
0.3179483,0.06379823855206501,0.002305827210402122,0.04806099534435013,0.007365888764844893,0.06744010643325592,0.019037558381805573,0.0814583928009038,0.004063145018043686
0.3184138,0.06326441141968452,0.0022967810461339395,0.04745415492393375,0.007324229582025775,0.06658263209684268,0.018962687291352223,0.08050475635538758,0.004070103272008782
0.3188793,0.06273075785672924,0.0022878958425336,0.04684947628023904,0.007283164216422241,0.0657310643311989,0.018887745422222876,0.07955400947072923,0.004077016291065028
0.3193448,0.06219735038598245,0.0022791701171257918,0.046247042030531094,0.007242693082149852,0.06488547518270404,0.01881274038394333,0.07860629952099309,0.004083881536640324
0.3198103,0.06166426078390208,0.002270602386770528,0.04564693361490682,0.0072028165290192155,0.06404593474539239,0.018737679625581424,0.07766177196553749,0.004090696480135361
0.3202759,0.061131560071356096,0.0022621911684929338,0.04504923128550758,0.007163534846033026,0.06321251116168321,0.018662570436448325,0.07672057032384988,0.004097458603716736
0.3207414,0.06059931850477852,0.0022539349803116387,0.044454014096145536,0.007124848264891879,0.06238527062366999,0.018587419946898207,0.07578283615127171,0.004104165401109868
