Time,Rectus Femoris right,Rectus Femoris left,Hamstrings right,Hamstrings left,TibilaisÂ Anterior right,TibilaisÂ Anterior left,Gastrocnemius right,Gastrocnemius left
0.0,0.00137390443070892,-0.016326437391860862,0.00035916133449718173,-0.025609837169189242,0.006654163489505547,0.02145186980820535,0.0017191275009520689,0.008986537462417118
0.0004655,0.0014675947259132646,-0.01585534642535286,0.00037977182656206846,-0.024412693941560776,0.006806245442491821,0.021675148660803827,0.0017543850932813427,0.009271087425346835
0.000931,0.001561702134965147,-0.01538511850962352,0.0004005020986210967,-0.023216312918081822,0.0069587505428394,0.0218985915395811,0.001789677653504237,0.00955724512884207
0.0013966,0.0016562174133833256,-0.014915817915107335,0.00042135205093753907,-0.022020857099366384,0.007111659511196071,0.02212217393883971,0.001825000081790774,0.00984498488541999
0.0018621,0.0017511312158306508,-0.01444750870106826,0.00044232159143073015,-0.020826489433856153,0.007264952925620854,0.02234587144130263,0.0018603472583373164,0.010134280637635312
0.0023276,0.0018464340981091559,-0.013980254696050905,0.00046341063584786805,-0.01963337277058901,0.007418611226664508,0.022569659728483082,0.001895714044894484,0.010425105963441523
0.0027931,0.0019421165191844058,-0.013514119478461905,0.0004846191079241321,-0.018441669812094472,0.007572614722521237,0.022793514591039826,0.001931095286308913,0.010717434081658213
0.0032586,0.002038168843238264,-0.01304916635729392,0.0005059469395307093,-0.017251543067448083,0.007726943594249805,0.023017411939108896,0.001966485812078111,0.01101123785754114
0.0037241,0.002134581341749232,-0.012585458353004118,0.0005273940708103278,-0.016063154805515144,0.007881577901062175,0.02324132781260307,0.0020018804379176585,0.011306489808451769
0.0041897,0.0022313441955995263,-0.012123058178558473,0.0005489604502998968,-0.0148766670084125,0.008036497585677765,0.02346523839147043,0.0020372739673400206,0.01160316210962302
0.0046552,0.0023284474972080343,-0.011662028220652636,0.0005706460350398529,-0.013692241325215132,0.00819168247974132,0.02368912000590349,0.002072661193244217,0.011901226600018022
0.0051207,0.002425881252688305,-0.01120243052111974,0.0005924507906698219,-0.012510039025932373,0.008347112309302369,0.02391294914649036,0.0021080368995156054,0.01220065478827862
0.0055862,0.002523635384030714,-0.010744326758535027,0.0006143746915102087,-0.011330220955776849,0.00850276670035415,0.02413670247429921,0.0021433958626350252,0.012501417858760307
0.0060517,0.002621699731307935,-0.010287778230026934,0.0006364177206293394,-0.01015294748974777,0.008658625184429837,0.02436035683088765,0.0021787328532965468,0.012803486677650333
0.0065172,0.00272006405490286,-0.00983284583330389,0.0006585798698957884,-0.008978378487548924,0.00881466720425383,0.024583889248228383,0.002214042638033069,0.013106831799165724
0.0069828,0.002818718037758103,-0.009379590048905585,0.0006808611400155304,-0.007806673248860564,0.008970872119445805,0.02480727695854284,0.0022493199808490245,0.013411423471828117
0.0074483,0.0029176512876462448,-0.008928070922686996,0.0007032615405535653,-0.006637990468983269,0.009127219212275174,0.025030497404034492,0.002284559644859464,0.013717231644812453
0.0079138,0.0030168533394599674,-0.008478348048542694,0.000725781089939675,-0.005472488194870602,0.009283687693463594,0.025253528246513734,0.002319756393934788,0.0140242259743667
0.0083793,0.0031163136575212604,-0.008030480551378385,0.000748419815457984,-0.004310323781566182,0.009440256708033081,0.025476347376906332,0.002354904994350437,0.014332375830299886
0.0088448,0.0032160216379088966,-0.007584527070335903,0.0007711777532200148,-0.0031516538490594555,0.009596905341197268,0.02569893292463738,0.0023900002164408247,0.014641650302535702
0.0093103,0.0033159666108034088,-0.007140545742277379,0.0007940549481209521,-0.0019966342395731146,0.009753612624293355,0.025921263266882707,0.002425036836256802,0.014952018207728972
0.0097759,0.0034161378428488325,-0.00669859418553385,0.0008170514537788491,-0.0008454199752939077,0.009910357540752207,0.026143317037679657,0.0024600096372259395,0.015263448095942257
0.0102414,0.0035165245395305366,-0.006258729483923185,0.0008401673324565347,0.00030183478344245925,0.010067119032104072,0.026365073136889145,0.002494913411814903,0.015575908257379919
0.0107069,0.0036171158475684865,-0.005821008171041942,0.0008634026549659966,0.0014449767795024142,0.010223876004017347,0.02658651073900071,0.0025297429631931825,0.01588936672917689
0.0111724,0.003717900857325328,-0.005385486214835396,0.0008867575005550304,0.00258385369983216,0.01038060733236776,0.02680760930177238,0.0025644931068974463,0.01620379130223933
0.0116379,0.003818868605228711,-0.004952219002449718,0.0009102319567759637,0.00371831421585273,0.010537291869335334,0.027028348574697297,0.002599158672495774,0.01651914952813432
0.0121034,0.003920008076207262,-0.004521261325369988,0.0009338261193362755,0.004848208023363563,0.010693908449526406,0.02724870860728913,0.002633734505251011,0.01683540872602579
0.012569,0.004021308206139623,-0.004092667364847473,0.0009575400919309526,0.005973385881946009,0.010850435896117951,0.02746866975717892,0.0026682154677824758,0.0171525359896538
0.0130345,0.0041227578843159385,-0.0036664906776193813,0.0009813739860564425,0.007093699653858521,0.011006853027021344,0.027688212698016284,0.002702596441725236,0.017470498194354474
0.0135,0.0042243459559111775,-0.003242784181924147,0.0010053279208060819,0.00820900234241576,0.011163138661062657,0.02790731842716817,0.002736872329386159,0.017789262004117803
0.0139655,0.004326061224469645,-0.002821600143815167,0.0010294020226469082,0.009319148129844298,0.011319271624176489,0.028125968273208634,0.0027710380553959417,0.018108793878680536
0.014431,0.004427892454400022,-0.0024029901637758117,0.0010535964251777823,0.010423992414608148,0.01147523075561029,0.028344143903192943,0.00280508856835631,0.01842906008065139
0.0148966,0.004529828373480255,-0.001987005163638424,0.0010779112688687736,0.011523391848197896,0.011630994914136033,0.028561827329709265,0.0028390188424815993,0.018750026682665635
0.0153621,0.004631857675371589,-0.0015736953738099027,0.001102346700781772,0.012617204371377724,0.011786542984265996,0.02877900091770123,0.0028728238792339158,0.019071659574566146
0.0158276,0.004733969022141026,-0.0011631103208063463,0.001126902874272299,0.01370528924988525,0.011941853882469378,0.028995647391054667,0.002906498708951049,0.01939392447060791
0.0162931,0.004836151046791457,-0.0007552988150990948,0.00115157994867249,0.014787507109579707,0.01209690656338634,0.029211749838942088,0.0029400383924663093,0.019716786916683108
0.0167586,0.004938392355798704,-0.0003503089392743709,0.00117637808895523,0.015863719971034515,0.012251680026036004,0.02942729172191878,0.002973438022719443,0.020040212297563743
0.0172241,0.005040681531654691,5.1811963491439914e-05,0.0012012974653794308,0.01693379128357099,0.012406153320014839,0.029642256877764957,0.003006692726357739,0.02036416584415899
0.0176897,0.005143007135415963,0.0004510173006390127,0.0012263382531164419,0.017997585958730262,0.012560305551681857,0.029856629527068898,0.0030397976653264423,0.02068861264078423
0.0181552,0.005245357709256743,0.0008472612411141409,0.001251500631857605,0.01905497040318096,0.012714115890326895,0.030070394278546415,0.0030727480384475786,0.021013517632438868
0.0186207,0.005347721779025717,0.0012404987259351547,0.001276784785402979,0.020105812551060462,0.012867563574318288,0.030283536134092556,0.003105539082986273,0.021338845632089903
0.0190862,0.0054500878568057385,0.0016306854784384139,0.0013021909012312855,0.021149981895747707,0.013020627917226071,0.030496040493561534,0.003138166076203656,0.0216645613279583
0.0195517,0.005552444443475634,0.002017778014200761,0.0013277191700511526,0.02218734952106561,0.013173288313916853,0.03070789315927117,0.0031706243368954524,0.021990629290805162
0.0200172,0.005654780031273273,0.002401733650637964,0.0013533697853337528,0.02321778813191128,0.01332552424661637,0.03091908034022847,0.003202909226915335,0.022317013981214752
0.0204828,0.00575708310635908,0.0027825105162782825,0.0013791429428269633,0.024241172084312274,0.013477315290935847,0.031129588656073556,0.003235016152682151,0.02264367975687131
0.0209483,0.00585934215137914,0.0031600675597103596,0.0014050388400511883,0.025257377414906912,0.013628641121858283,0.0313394051407399,0.003266940566670111,0.02297059087982664
0.0214138,0.005961545648026998,0.0035343645582046937,0.0014310576757770067,0.026266281869846867,0.013779481519680998,0.031548517245829584,0.0032986779688810378,0.023297711523755173
0.0218793,0.006063682079603258,0.0039053621260079843,0.0014571996494848315,0.027267764933120026,0.013929816375911,0.031756912843702884,0.003330223908297799,0.02362500578119335
0.0223448,0.006165739933572041,0.004273021722309707,0.0014834649608067919,0.02826170785429138,0.014079625699109963,0.03196458023028166,0.0033615739843180516,0.023952437670760246
0.0228103,0.006267707704113322,0.004637305658880363,0.0015098538089510847,0.029247993675659504,0.01422888962068578,0.032171508127566306,0.0033927238481674593,0.024279971144356587
0.0232759,0.006369573894670175,0.00499817710738098,0.0015363663921090821,0.030226507258825988,0.014377588400627802,0.03237768568586586,0.003423669204291563,0.024607570094339528
0.0237414,0.006471327020489904,0.005355600106343551,0.0015630029068455077,0.031197135310675132,0.01452570243318301,0.03258310248574118,0.0034544058117255048,0.024935198360670912
0.0242069,0.006572955611158104,0.005709539567822208,0.0015897635474720498,0.03215976640876085,0.014673212252470447,0.032787748539660946,0.0034849294854407964,0.02526281973803689
0.0246724,0.006674448213124617,0.00605996128371504,0.0016166485054048066,0.033114291026097815,0.014820098538031151,0.03299161429337028,0.0035152360976683254,0.025590397982936688
0.0251379,0.0067757933922203886,0.006406831931756426,0.0016436579685060054,0.03406060155535391,0.01496634212031091,0.03319469062697177,0.0035453215791967836,0.025917896820738234
0.0256034,0.006876979736164182,0.006750119081179864,0.001670792120410459,0.03499859233244109,0.015111923986073144,0.033396968855718426,0.003575181920645746,0.026245279952698465
0.026069,0.006977995857058065,0.007089791198051219,0.001698051139837254,0.03592815965950186,0.015256825283739403,0.03359844073051801,0.0036048131737126243,0.02657251106294578
0.0265345,0.007078830393870563,0.0074258176502723,0.001725435199887177,0.03684920182728886,0.0154010273286552,0.033799098438147775,0.0036342114523928116,0.026899553825422143
0.027,0.00717947201490634,0.007758168712254657,0.0017529444673263978,0.037761619136934814,0.01554451160827946,0.033998934601178636,0.003663372934172395,0.027226371910782268
0.0274655,0.007279909420261262,0.008086815569263571,0.0017805791018569253,0.03866531392111026,0.01568725978729629,0.03419794227760757,0.003692293861192874,0.02755292899324711
0.027931,0.00738013134426166,0.008411730321432172,0.0018083392553743492,0.03956019056456635,0.01582925371264822,0.034396114960196934,0.0037209705413874176,0.02787918875740896
0.0283966,0.007480126557886623,0.008732885987445765,0.0018362250712133834,0.04044615552405971,0.015970475418490487,0.03459344657551941,0.00374939934958823,0.0282051149049853
0.0288621,0.0075798838711721534,0.009050256507896513,0.0018642366833817121,0.04132311734765648,0.01611090713106601,0.03478993148270701,0.003777576728604653,0.02853067116151864
0.0293276,0.007679392135596046,0.009363816748308669,0.0018923742157826513,0.042190986693412584,0.016250531273500818,0.03498556447190274,0.003805499190271627,0.028855821283019584
0.0297931,0.007778640246442467,0.009673542501834706,0.0019206377814271248,0.043049676347427346,0.016389330470519593,0.03518034076241336,0.003833163316468137,0.029180529062550246
0.0302586,0.007877617145145238,0.009979410491622659,0.00194902748163547,0.043899101241267835,0.016527287553080895,0.03537425600056152,0.0038605657601052798,0.02950475833674546
0.0307241,0.007976311821608928,0.010281398372855155,0.0019775434052295825,0.044739178468761284,0.016664385562931653,0.03556730625723559,0.0038877032460835586,0.029828472992269237
0.0311897,0.008074713316506932,0.010579484734460735,0.0020061856277158964,0.04556982730215304,0.01680060775708024,0.03575948802513552,0.003914572572219055,0.030151636972204333
0.0316552,0.008172810723555746,0.01087364910049821,0.0020349542104597163,0.046390969207627364,0.016935937612187545,0.035950798215713814,0.003941170610138112,0.030474214282372684
0.0321207,0.00827059319176468,0.011163871931215088,0.002063849199851387,0.04720252786018834,0.017070358828875132,0.03614123415581134,0.003967494306140207,0.030796168997584656
0.0325862,0.008368049927660248,0.01145013462378134,0.0020928706264647812,0.04800442915789787,0.01720385533594969,0.03633079358398904,0.00399354068202872,0.031117465267815045
0.0330517,0.00846517019748447,0.011732419512700102,0.002122018504208578,0.04879660123546765,0.01733641129454269,0.036519474646557616,0.0040193068359093125,0.031438067324304056
0.0335172,0.00856194332936633,0.012010709869897326,0.0021512928294707898,0.049578974477202074,0.017468011102164258,0.03670727589330835,0.0040447899429557,0.03175793948558153
0.0339828,0.008658358715465627,0.012284989904492784,0.00218069358025699,0.050351481529289255,0.017598639396670203,0.03689419627294893,0.0040699872561426155,0.032077046163412774
0.0344483,0.008754405814088467,0.01255524476225527,0.0022102207153226654,0.05111405731143754,0.017728281060141224,0.03708023512824866,0.00409489610694581,0.0323953518686643
0.0349138,0.008850074151773555,0.01282146052474528,0.002239874173300138,0.05186663902785543,0.017856921222673277,0.03726539219089766,0.004119513906008935,0.03271282121708787
0.0353793,0.00894535332534848,0.013083624208148775,0.002269653871820477,0.052609166177572685,0.017984545266078046,0.03744966757608534,0.00414383814377722,0.03302941893502123
0.0358448,0.009040233003955086,0.013341723761805799,0.0022995597066308446,0.0533415805641006,0.018111138827492483,0.03763306177680334,0.004167866391097807,0.0333451098650043
0.0363103,0.009134702931043043,0.013595748066437909,0.002329591550707711,0.0540638263044293,0.018236687802896324,0.03781557565787834,0.004191596299786702,0.03365985897130968
0.0367759,0.009228752926330694,0.013845686932078376,0.0023597492533663856,0.054775849837359364,0.018361178350536474,0.03799721044974016,0.0042150256031622275,0.03397363134538666
0.0372414,0.009322372887732269,0.01409153109570926,0.0023900326393673102,0.05547759993116514,0.01848459689425714,0.03817796774193085,0.0042381521165449155,0.03428639221121787
0.0377069,0.009415552793250593,0.014333272218609527,0.0024204415080195368,0.056169027690586515,0.018606930126734804,0.038357849476360915,0.004260973737723747,0.03459810693058782
0.0381724,0.00950828270283446,0.01457090288341855,0.0024509756322818165,0.05685008656314613,0.01872816501261701,0.0385368579403197,0.004283488447388644,0.03490874100826259
0.0386379,0.009600552760199879,0.014804416590919385,0.002481634757861703,0.05752073234478881,0.018848288791564225,0.03871499575924764,0.0043056943095291155,0.0352182600970798
0.0391034,0.009692353194614482,0.015033807756546353,0.0025124186023130486,0.05818092318484058,0.018967288981193983,0.0388922658892787,0.00432758947179896,0.03552663000294814
0.039569,0.009783674322644499,0.015259071706621495,0.0025433268541322613,0.05883061959028532,0.019085153379926684,0.03906867160956173,0.004349172165846967,0.03583381668975577
0.0400345,0.009874506549863648,0.0154802046743244,0.002574359171853662,0.05946978442935751,0.019201870069732594,0.03924421651436953,0.004370440707613619,0.03613978628418686
0.0405,0.009964840372523506,0.01569720379540013,0.0026055151831442715,0.06009838293445075,0.019317427418779898,0.03941890450500463,0.0043913934975938285,0.036444505080446006
0.0409655,0.010054666379184897,0.015910067103609947,0.0026367944838983303,0.060716382704342015,0.01943181408398404,0.03959273978151035,0.004412029021065844,0.036747939544890494
0.041431,0.010143975252309942,0.01611879352592971,0.0026681966373318412,0.06132375370573248,0.019545019013458793,0.039765726834196206,0.004432345848286473,0.0370500563205707
0.0418966,0.010232757769814535,0.016323382877500976,0.0026997211730774083,0.06192046827410609,0.019657031448869718,0.039937870434986464,0.004452342634652829,0.03735082223167943
0.0423621,0.010321004806581083,0.01652383585633995,0.002731367586279637,0.06250650111390721,0.019767840927690652,0.040109175628600835,0.004472018120830837,0.0376502042879116
0.0428276,0.010408707335931432,0.016720154037809555,0.0027631353366913505,0.06308182929803856,0.01987743728536378,0.040279647723576444,0.004491371132850714,0.037948169688735864
0.0432931,0.010495856431060022,0.01691233986885991,0.0027950238477708863,0.06364643226668064,0.019985810657363788,0.04044929228314013,0.0045104005821696705,0.03824468582758034
0.0437586,0.010582443266427329,0.01710039666204259,0.0028270325057807317,0.06420029182543334,0.020092951481166552,0.04061811511594003,0.004529105465702077,0.038539720295934374
0.0442241,0.010668459119113672,0.017284328589303843,0.002859160658887746,0.06474339214278031,0.02019885049812274,0.040786122266645256,0.0045474848658173675,0.038833240887368434
0.0446897,0.01075389537013352,0.01746414067556198,0.0028914076162652362,0.06527571974687653,0.02030349875523682,0.040953320006422184,0.004565537950306022,0.039125215601473744
0.0451552,0.010838743505710447,0.017639838792074054,0.002923772647197141,0.06579726352165934,0.020406887606851946,0.041119714823295975,0.00458326397231397,0.03941561264772354
0.0456207,0.010922995118512977,0.017811429649596755,0.0029562549801845904,0.0663080147022835,0.020509008716241183,0.04128531341240542,0.00460066227024583,0.039704400449257465
0.0460862,0.011006641908851788,0.017978920791346435,0.0029888538020551073,0.0668079668698812,0.02060985405710566,0.04145012266615959,0.00461773226763741,0.039991547646590644
0.0465517,0.011089675685838712,0.018142320585762966,0.0030215682570747496,0.06729711594564801,0.020709415914980087,0.04161414966430459,0.004634473472997943,0.04027702310124877
0.0470172,0.011172088368508219,0.018301638219082164,0.00305439744606348,0.06777546018425666,0.020807686888546083,0.041777401663908836,0.004650885479622527,0.04056079589933062
0.0474828,0.011253871986902055,0.018456883687721318,0.0030873404255140863,0.06824300016660158,0.02090465989085388,0.0419398860892758,0.004666967965375224,0.040842835354999246
0.0479483,0.011335018683117756,0.01860806779048243,0.0031203962067149686,0.06869973879187734,0.02100032815045282,0.042101610521793086,0.004682720692443293,0.041123111013903244
0.0484138,0.011415520712321634,0.018755202120577706,0.0031535637548771463,0.06914568126899513,0.021094685212431186,0.04226258268972737,0.004698143507062995,0.04140159265652961
0.0488793,0.011495370443726918,0.018898299057481843,0.003186841988265841,0.06958083510734225,0.021187724939365816,0.04242281045797441,0.004713236339217439,0.041678250301489486
0.0493448,0.0115745603615376,0.019037371758615657,0.0032202297773370188,0.07000521010688983,0.02127944151218208,0.04258230181777372,0.0047279992023069525,0.0419530542087379
0.0498103,0.011653083065858607,0.019172434150865607,0.0032537259438792814,0.07041881834765534,0.021369829430924848,0.04274106487639717,0.004742432192792485,0.04222597488272864
0.0502759,0.011730931273572841,0.019303500921943738,0.0032873292601615124,0.07082167417852647,0.021458883515441115,0.04289910784682044,0.0047565354898125665,0.04249698307550534
0.0507414,0.011808097819185648,0.019430587511592524,0.0033210384480866946,0.07121379420545361,0.021546598905975052,0.0430564390373863,0.004770309354774369,0.04276604978972974
0.0512069,0.011884575655637207,0.019553710102638983,0.0033548521783523066,0.07159519727901811,0.02163297106367614,0.043213066841468535,0.004783754130919413,0.0430331462816481
0.0516724,0.011960357855083372,0.01967288561190238,0.003388769069617728,0.07196590448138368,0.021717995771021077,0.04336899972714532,0.004796870242864454,0.04329824406399669
0.0521379,0.01203543760964544,0.01978813168095981,0.003422787687679079,0.07232593911263765,0.021801669132149922,0.04352424622689071,0.004809658196118067,0.0435613149088472
0.0526034,0.0121098082321294,0.01989946666677388,0.0034569065446519083,0.07267532667652937,0.02188398757311697,0.04367881492729295,0.0048221185765734125,0.04382233085039314
0.053069,0.01218346315671517,0.020006909632186837,0.003491124098162135,0.07301409486561318,0.021964947842056638,0.043832714458808084,0.004834252049977652,0.0440812641876786
0.0535345,0.012256395939616445,0.020110480336285458,0.0035254387505456244,0.07334227354580404,0.022044547009264715,0.0439859534855571,0.004846059361378411,0.044338087487271714
0.054,0.012328600259711723,0.020210199224641092,0.003559848848056759,0.07365989474035503,0.022122782467195165,0.044138540695174616,0.0048575413345477185,0.04459277358588519
0.0544655,0.012400069919147189,0.02030608741942921,0.0035943526800863387,0.07396699261326709,0.022199651930372787,0.0442904847887169,0.0048686988713838005,0.04484529559294681
0.054931,0.012470798843912115,0.020398166709432723,0.0036289484783891286,0.07426360345214326,0.02227515343522186,0.04444179447063675,0.004879532951291094,0.04509562689312339
0.0553966,0.012540781084387432,0.02048645953993321,0.003663634416321354,0.07454976565050095,0.022349285339810922,0.04459247843883261,0.004890044630538821,0.04534374114880144
0.0558621,0.012610010815868128,0.020570989002494107,0.003698408608088466,0.07482551968955672,0.022422046323513543,0.044742545374779404,0.0049002350415984445,0.04558961230252822
0.0563276,0.012678482339060177,0.02065177882463969,0.003733269108003501,0.07509090811949938,0.022493435386585072,0.04489200393374857,0.004910105392460274,0.04583321457941711
0.0567931,0.012746190080552673,0.02072885335943368,0.003768213909756364,0.07534597554026708,0.02256345184965509,0.04504086273512492,0.004919656965929482,0.04607452248952213
0.0572586,0.012813128593265975,0.02080223757496122,0.0038032409456944085,0.07559076858184481,0.02263209535313508,0.04518913035282816,0.0049288911189017195,0.04631351083018626
0.0577241,0.012879292556876594,0.020871957043717977,0.003838348086114702,0.07582533588409847,0.02269936585654086,0.04533681530584659,0.004937809281618516,0.046550154688368615
0.0581897,0.012944676778219607,0.02093803793191025,0.0038735331385683636,0.07604972807616131,0.0227652636377292,0.045483926048890747,0.004946412956902569,0.046784429442955675
0.0586552,0.01300927619166938,0.021000506988669974,0.003908793847177442,0.07626399775538854,0.022829789292047816,0.04563047096317427,0.004954703719373035,0.04701631076706145
0.0591207,0.013073085859499437,0.021059391535188668,0.003944127891964804,0.07646819946589525,0.02289294373139786,0.04577645834732941,0.004962683214640885,0.04724577463032142
0.0595862,0.01313610097222234,0.021114719453774314,0.003979532888197562,0.07666238967669234,0.022954728183207963,0.04592189640846439,0.004970353158484387,0.04747279730118511
0.0600517,0.013198316848910548,0.021166519176835274,0.004015006385744623,0.07684662675943471,0.02301514418931895,0.04606679325336972,0.004977715336004764,0.047697355349211865
0.0605172,0.013259728937499195,0.021214819675795128,0.004050545868448932,0.07702097096579569,0.023074193604778477,0.04621115687988041,0.004984771600762082,0.047919425647374204
0.0609828,0.013320332815071863,0.02125965044994242,0.0040861487535150615,0.07718548440448117,0.023131878596544878,0.046354995168400866,0.0049915238738914465,0.04813898537437317
0.0614483,0.013380124188130357,0.02130104151521891,0.004121812390912749,0.07734023101789748,0.0231882016420998,0.04649831587359887,0.004997974143199536,0.048356012016969784
0.0619138,0.013439098892849536,0.02133902339294994,0.004157534062797059,0.07748527655848642,0.02324316552796911,0.046641126616274564,0.005004124462241547,0.048570483372336964
0.0623793,0.013497252895318206,0.021373627098520285,0.0041933109829458215,0.07762068856474147,0.02329677334815164,0.04678343487541019,0.005009976949378567,0.04878237755043585
0.0628448,0.013554582291767082,0.02140488412999869,0.004229140296215001,0.0777465363369195,0.023349028502455252,0.0469252479804058,0.005015533786815438,0.04899167297642095
0.0633103,0.013611083308784681,0.02143282645671414,0.004265019078012709,0.07786289091246242,0.0233999346947396,0.047066573103506,0.005020797219619148,0.04919834839307821
0.0637759,0.013666752303522116,0.021457486507786883,0.004300944333792565,0.0779698250411432,0.023449495931064872,0.04720741725242195,0.005025769554717897,0.049402382863300696
0.0642414,0.013721585763887654,0.021478897160617176,0.004336912998567129,0.07806741315995122,0.023497716517745935,0.047347787263153085,0.005030453159881046,0.0496037557726061
0.0647069,0.013775580308731853,0.021497091729334568,0.004372921936442191,0.07815573136773095,0.02354460105931141,0.04748768979301222,0.005034850462680286,0.04980244683170037
0.0651724,0.013828732688024054,0.021512103953210744,0.0044089679401726495,0.0782348573995892,0.023590154456367397,0.0476271313138577,0.0050389639494324906,0.04999843607909126
0.0656379,0.013881039783020922,0.02152396798503894,0.004445047730740743,0.07830487060108514,0.023634381903365802,0.04776611810553573,0.005042796164124769,0.050191703883755566
0.0661034,0.013932498606427557,0.021532718379483104,0.00448115795695738,0.07836585190221744,0.02367728888627721,0.04790465624953565,0.005046349707322343,0.05038223094786316
0.066569,0.013983106302551665,0.021538390081400075,0.0045172951950873015,0.07841788379122319,0.023718881180168426,0.048042751622860896,0.005049627235059885,0.0505699983095609
0.0670345,0.014032860147451105,0.021541018414138195,0.004553455948498793,0.07846105028820223,0.023759164846684944,0.048180409892117845,0.00505263145771696,0.050754987345818695
0.0675,0.01408175754907507,0.021540639067815826,0.004589636647338682,0.07849543691858056,0.02379814623143876,0.048317636507824654,0.005055365138878276,0.05093717977534005
0.0679655,0.014129796047399048,0.021537288087583543,0.004625833648233344,0.07852113068642612,0.023835831961302248,0.04845443669894178,0.005057831094179465,0.05111655766153867
0.068431,0.014176973314553622,0.021531001861873775,0.004662043234016443,0.07853822004762925,0.02387222894160921,0.048590815467626024,0.005060032190139167,0.05129310341558243
0.0688966,0.01422328715494715,0.02152181711064177,0.004698261613484129,0.07854679488296015,0.02390734435326454,0.04872677758420974,0.005061971342978252,0.051466799799505705
0.0693621,0.01426873550538235,0.021509770873601803,0.004734484921178437,0.07854694647101469,0.023941185649764343,0.04886232758240706,0.0050636515174270515,0.05163762992939053
0.0698276,0.014313316435166822,0.021494900498462494,0.004770709217199601,0.07853876746105994,0.023973760554128535,0.04899746975474918,0.005065075725521522,0.05180557727861662
0.0702931,0.014357028146217615,0.02147724362916492,0.0048069304870480495,0.0785223518457897,0.024005077055748277,0.04913220814825094,0.005066247025389245,0.05197062568118015
0.0707586,0.014399868973159884,0.02145683819412727,0.004843144641496815,0.07849779493400035,0.02403514340715061,0.049266546560310556,0.005067168520026232,0.052132759335080436
0.0712241,0.014441837383419701,0.02143372239449939,0.004879347516495062,0.07846519332319597,0.02406396812068267,0.04940048853484482,0.005067843356065453,0.05229196280577349
0.0716897,0.014482931977311011,0.02140793469243072,0.004915534873103467,0.07842464487213237,0.024091559965117856,0.049534037358661534,0.005068274722538005,0.05244822102969097
0.0721552,0.01452315148811663,0.02137951379935474,0.004951702397462094,0.07837624867330796,0.02411792796218615,0.04966719605807064,0.005068465849627783,0.05260151931782246
0.0726207,0.014562494782163092,0.02134849866429323,0.004987845700791404,0.07832010502541026,0.024143081383030982,0.049799967395735605,0.005068420007420519,0.05275184335935865
0.0730862,0.014600960858889012,0.021314928462183642,0.00502396031942701,0.07825631540572592,0.02416702974459473,0.04993235386776631,0.005068140504648022,0.05289917922539259
0.0735517,0.014638548850906563,0.021278842582232813,0.005060041714888748,0.07818498244252224,0.02418978280593524,0.05006435770105504,0.005067630687428437,0.053043513372675814
0.0740172,0.014675258024055499,0.021240280616300334,0.005096085273984639,0.07810620988740709,0.024211350564475584,0.050195980850856865,0.005066893938003349,0.05318483264742563
0.0744828,0.014711087777449004,0.021199282347315104,0.00513208630895027,0.07802010258767418,0.0242317432521895,0.050327224998616193,0.005065933673472535,0.053323124289179805
0.0749483,0.014746037643510589,0.021155887737728543,0.005168040057624122,0.07792676645864001,0.02425097133172512,0.05045809155004093,0.005064753344527195,0.053458375934694775
0.0754138,0.014780107288001105,0.02111013691800813,0.005203941683659304,0.07782630845597809,0.024269045492469794,0.050588581633425785,0.0050633564341824285,0.05359057562188348
0.0758793,0.014813296510034874,0.021062070175174835,0.005239786276772141,0.07771883654805592,0.024285976646559147,0.05071869609822633,0.005061746456509739,0.053719711793788975
0.0763448,0.014845605242083797,0.021011727941388197,0.00527556885302802,0.07760445968827966,0.024301775924833822,0.0508484355138856,0.005059926955370327,0.05384577330259028
0.0768103,0.014877033549968258,0.020959150782582602,0.005311284355164847,0.07748328778745135,0.02431645467274734,0.050977800168914594,0.00505790150314988,0.05396874941363661
0.0772759,0.014907581632833632,0.020904379387158414,0.005346927652954455,0.07735543168614342,0.024330024446228716,0.05110679007022861,0.005055673699495567,0.054088629809506863
0.0777414,0.014937249823111152,0.02084745455473141,0.0053824935436022694,0.0772210031270953,0.024342497007503405,0.051235404942740634,0.005053247170055934,0.05420540459409141
0.0782069,0.014966038586461863,0.020788417184943984,0.005417976752185502,0.077080114727637,0.024353884320876183,0.051363644229213336,0.005050625565224405,0.05431906429669419
0.0786724,0.014993948521702372,0.020727308266341293,0.005453371932130126,0.07693287995214451,0.02436419854847955,0.051491507090370925,0.0050478125588870465,0.05442959987615374
0.0791379,0.015020980360711053,0.02066416886531558,0.005488673665726903,0.07677941308453207,0.02437345204599128,0.05161899240527205,0.0050448118471752975,0.054537002724982
0.0796034,0.015047134968313277,0.02059904011512164,0.005523876464686683,0.07661982920078558,0.024381657358324604,0.051746098771945026,0.005041627147224321,0.05464126467352001
0.080069,0.015072413342144188,0.020531963204966384,0.005558974770735185,0.07645424414154176,0.024388827215294322,0.05187282450828646,0.005038262195937629,0.05474237799410977
0.0805345,0.015096816612487402,0.020462979369175252,0.005593962956247444,0.0762827744847164,0.024394974527261984,0.05199916765322424,0.005034720748758603,0.054840335405281215
0.081,0.015120346042087982,0.020392129876438184,0.005628835324922068,0.0761055375181859,0.02440011238076307,0.05212512596814577,0.005031006578449505,0.05493513007595376
0.0814655,0.015143003025938,0.020319456019137653,0.005663586112495423,0.07592265121252473,0.024404254034119065,0.052250696938591926,0.00502712347387853,0.055026755629651376
0.081931,0.015164789091032952,0.020244999102761126,0.005698209487495821,0.07573423419380312,0.024407412913036993,0.052375877776216787,0.005023075238815444,0.05511520614873008
0.0823966,0.01518570589609742,0.020168800435400168,0.00573269955203772,0.07554040571644845,0.02440960260619894,0.05250066542101365,0.005018865690736291,0.05520047617861655
0.0828621,0.015205755231278413,0.020090901317338313,0.005767050342655932,0.07534128563617462,0.024410836860843874,0.05262505654380697,0.005014498659637657,0.05528256073205607
0.0833276,0.01522493901780492,0.02001134303072956,0.0058012558311797795,0.07513699438298407,0.02441112957834406,0.05274904754901042,0.005009977986860957,0.05536145529336785
0.0837931,0.015243259307612353,0.019930166829369204,0.005835309925647129,0.07492765293424726,0.024410494809778468,0.05287263457765087,0.005005307523927172,0.0554371558227057
0.0842586,0.015260718282930682,0.01984741392855867,0.005869206471258206,0.07471338278786453,0.024408946751505376,0.05299581351065808,0.00500049113138247,0.055509658760321594
0.0847241,0.015277318255835167,0.019763125495065773,0.00590293925136907,0.07449430593551587,0.02440649974073663,0.05311857997241942,0.0049955326776551165,0.055578961030829634
0.0851897,0.01529306166775863,0.019677342637181933,0.005936501988524655,0.07427054483600384,0.024403168251115787,0.053240929334599035,0.004990436037924023,0.05564506004746759
0.0856552,0.015307951088964385,0.01959010639487753,0.0059698883455312985,0.07404222238869507,0.024398966888302353,0.05336285672022032,0.004985205092999305,0.05570795371635305
0.0861207,0.015321989217978985,0.019501457730056848,0.006003091926568633,0.07380946190706501,0.024393910385564186,0.05348435700801067,0.004979843728215135,0.05576764044073073
0.0865862,0.015335178880984117,0.019411437516913887,0.00603610627834076,0.07357238709235106,0.024388013599379997,0.05360542483700742,0.004974355832335174,0.05582411912520734
0.0870517,0.015347523031167152,0.019320086532390382,0.006068924891266547,0.07333112200731803,0.024381291505053724,0.05372605461142374,0.00496874529647078,0.05587738917997005
0.0875172,0.015359024748029896,0.019227445446737403,0.0061015412007089315,0.07308579105014006,0.02437375919234254,0.05384624050577302,0.004963016013012211,0.0559274505249841
0.0879828,0.015369687236655251,0.01913355481418193,0.0061339485882429805,0.07283651892840194,0.02436543186109993,0.05396597647024977,0.004957171874572927,0.055974303594165074
0.0884483,0.015379513826931486,0.019038455063699725,0.006166140382962509,0.07258343063322316,0.024356324816935143,0.05408525623636487,0.004951216772947149,0.05601794933952056
0.0889138,0.015388507972733848,0.018942186489895887,0.006198109862824973,0.07232665141350708,0.02434645346689013,0.054204073322832405,0.004945154598080752,0.056058389235255746
0.0893793,0.015396673251063307,0.018844789243994294,0.006229850256034377,0.07206630675031835,0.024335833315134885,0.05432242104170494,0.004938989237055594,0.05609562528183695
0.0898448,0.015404013361142388,0.018746303324937198,0.006261354742461867,0.07180252233139092,0.024324479958681852,0.0544402925047536,0.004932724573087353,0.056129660010006834
0.0903103,0.01541053212346814,0.018646768570596054,0.006292616455103754,0.07153542402576964,0.024312409083119976,0.054557680630088826,0.004926364484536928,0.05616049648474427
0.0907759,0.01541623347882251,0.018546224649094632,0.006323628481576657,0.07126513785858796,0.024299636458368676,0.054674578149017376,0.004919912843935471,0.05618813830916169
0.0912414,0.015421121487240508,0.018444711050245272,0.0063543838656494826,0.07099178998598477,0.024286177934451918,0.05479097761313061,0.004913373517023093,0.056212589628331956
0.0917069,0.015425200326936575,0.01834226707709926,0.006384875608811903,0.07071550667016249,0.02427204943729253,0.05490687140161848,0.004906750361801268,0.05623385513303662
0.0921724,0.015428474293189774,0.01823893183761198,0.0064150966718790415,0.0704364142545887,0.024257266964526954,0.05502225172880331,0.004900047227598972,0.05625194006342668
0.0926379,0.01543094779718838,0.018134744236423583,0.006445039976631993,0.07015463913934296,0.024241846581340674,0.055137110651887054,0.004893267954152537,0.05626685021258683
0.0931034,0.015432625364834628,0.018029742966755722,0.006474698407493795,0.06987030775661024,0.02422580441632469,0.055251440078905034,0.004886416370699212,0.05627859192999369
0.093569,0.015433511635510459,0.01792396650242476,0.006504064813240432,0.06958354654632179,0.02420915665735345,0.055365231776879124,0.004879496295084368,0.0562871721248581
0.0940345,0.015433611360805163,0.017817453089971947,0.006533132008746363,0.06929448193194396,0.024191919547484574,0.05547847738016263,0.004872511532882309,0.056292598269341465
0.0945,0.015432929403205852,0.017710240740910963,0.006561892776764078,0.06900324029641523,0.024174109380880646,0.055591168398968875,0.0048654658765305905,0.05629487840163561
0.0949655,0.015431470734751684,0.01760236722409338,0.0065903398697371015,0.06870994795823122,0.024155742498753092,0.055703296228075176,0.004858363104477748,0.05629402112889533
0.095431,0.015429240435652705,0.017493870058192595,0.006618466011645803,0.06841473114767727,0.024136835285328125,0.055814852155693796,0.004851206980344292,0.05629003563001251
0.0958966,0.015426243692874014,0.017384786504306894,0.006646263899885371,0.06811771598320818,0.024117404163834583,0.0559258273725015,0.00484400125209682,0.05628293165822037
0.0963621,0.015422485798685931,0.017275153558682282,0.006673726207175232,0.06781902844797465,0.024097465592513474,0.05603621298081941,0.004836749651235052,0.05627271954351591
0.0968276,0.015417972149180746,0.017165007945555723,0.006700845583499206,0.06751879436649615,0.02407703606064897,0.05614600000393563,0.0048294558919916705,0.05625941019488836
0.0972931,0.015412708242756607,0.0170543861101194,0.006727614658075635,0.06721713938148047,0.024056132084620773,0.05625517939556321,0.004822123670544764,0.05624301510234088
0.0977586,0.015406699678569,0.01694332421160681,0.0067540260413567555,0.06691418893079039,0.024034770203977783,0.0563637420494264,0.004814756664242808,0.05622354633869301
0.0982241,0.01539995215495031,0.016831858116501574,0.006780072327056578,0.06661006822455777,0.02401296697753324,0.05647167880896823,0.004807358530842071,0.056201016561150854
0.0986897,0.015392471467797757,0.016720023391870002,0.006805746094206527,0.06630490222244587,0.023990738979481622,0.05657898047717271,0.004799932907756377,0.056175439012632826
0.0991552,0.015384263508930133,0.016607855298818627,0.00683103990923816,0.06599881561105993,0.023968102795537915,0.0566856378264951,0.004792483411319166,0.05614682752283865
0.0996207,0.015375334264413532,0.016495388786077946,0.00685594632809226,0.06569193278150616,0.023945075019099964,0.05679164160889357,0.004785013636057778,0.05611519650905009
0.1000862,0.015365689812856303,0.016382658483713588,0.006880457898353677,0.06538437780709883,0.02392167224743493,0.05689698256595572,0.00477752715397987,0.05608056097665259
0.1005517,0.015355336323673323,0.016269698696966088,0.0069045671614113326,0.06507627442121519,0.02389791107789088,0.057001651439112976,0.00477002751387192,0.056042936519367884
0.1010172,0.01534428005531969,0.016156543400220377,0.006928266654642831,0.06476774599529804,0.023873808104134486,0.05710563897993561,0.004762518240609756,0.056002339319190124
0.1014828,0.015332527353493759,0.016043226231106038,0.006951548913623206,0.06445891551700561,0.023849379912416053,0.05720893596050082,0.004755002834481115,0.055958786146019436
0.1019483,0.015320084649309446,0.01592978048472946,0.006974406474357356,0.06414990556850972,0.023824643077863014,0.05731153318382621,0.004747484770520243,0.0559122943569891
0.1024138,0.015306958457437736,0.015816239108038935,0.00699683187553579,0.06384083830494289,0.023799614160803045,0.05741342149436073,0.004739967497854589,0.05586288189548401
0.1028793,0.015293155374217346,0.015702634694323942,0.007018817660813308,0.06353183543299633,0.023774309703117842,0.057514591788524895,0.004732454439063654,0.0558105672898491
0.1033448,0.01527868207573458,0.015588999477849723,0.0070403563811102556,0.06322301818967117,0.023748746224628612,0.057615035025292194,0.004724948989550088,0.0557553696517878
0.1038103,0.01526354531587256,0.01547536532862833,0.0070614405969359854,0.0629145073211855,0.02372294021951418,0.057714742236803715,0.004717454516923106,0.05569730867445192
0.1042759,0.015247751924330134,0.015361763747327197,0.007082062880734101,0.06260642306204027,0.023696908152762576,0.05781370453900749,0.004709974360394307,0.055636404630226045
0.1047414,0.0152313088046109,0.015248225860316206,0.007102215819249014,0.06229888511424744,0.02367066645665692,0.05791191314231421,0.004702511830185955,0.055572678368210573
0.1052069,0.015214222931982997,0.015134782414854131,0.007121892015913327,0.061992012626723346,0.023644231527296444,0.05800935936226075,0.004695070206951785,0.055506151311407945
0.1056724,0.015196501351410367,0.015021463774415187,0.007141084093255464,0.06168592417484991,0.02361761972115344,0.058106034630173276,0.004687652741210355,0.05543684545361742
0.1061379,0.01517815117545638,0.014908299914156339,0.00715978469532693,0.0613807377402063,0.02359084735166686,0.058201930503821594,0.004680262652790992,0.05536478335604354
0.1066034,0.015159179582160728,0.014795320416525915,0.007177986490148559,0.06107657069047288,0.02356393068587325,0.05829703867805702,0.004672903130292383,0.05528998814362382
0.107069,0.015139593812890435,0.01468255446701393,0.00719568217217504,0.060773539759509144,0.023536885941075596,0.05839135099542569,0.004665577330553872,0.0552124835010809
0.1075345,0.015119401170165862,0.014570030850044503,0.007212864464777062,0.060471761027606784,0.02350972928155068,0.058484859456749215,0.004658288378139565,0.05513229366870475
0.108,0.015098609015462434,0.014457777945010644,0.007229526122740336,0.060171349901918594,0.023482476815295483,0.05857755623166438,0.004651039364835309,0.055049443437870466
0.1084655,0.01507722476698887,0.014345823722451573,0.00724565993478087,0.059872421097063894,0.023455144590813357,0.05866943366911308,0.004643833349158661,0.05496395814629738
0.108931,0.015055255897442723,0.014234195740372685,0.0072612587260758215,0.059575088615910606,0.023427748593940617,0.058760484307773274,0.004636673355881914,0.05487586367305564
0.1093966,0.015032709931744045,0.01412292114070816,0.00727631536080938,0.05927946573053426,0.02340030474471427,0.05885070088642153,0.004629562375568239,0.054785186433326284
0.1098621,0.015009594444748127,0.014012026645926203,0.007290822744733127,0.058985664963354,0.02337282889428163,0.0589400763542169,0.004622503364120991,0.05469195337292102
0.1103276,0.014985917058938328,0.013901538555776706,0.007304773827740409,0.058693798068445845,0.023345336821852428,0.05902860388089606,0.004615499242346187,0.05459619196256793
0.1107931,0.01496168544210008,0.013791482744181122,0.007318161606454282,0.05840397601303375,0.02331784423169408,0.059116276866868975,0.00460855289552816,0.054497930191969045
0.1112586,0.014936907304977324,0.013681884656264215,0.007330979126828646,0.05811630895915923,0.02329036675017066,0.05920308895320432,0.004601667173018359,0.05439719656363576
0.1117241,0.014911590398912674,0.013572769305527206,0.007343219486762185,0.05783090624553025,0.023262919922826083,0.059289034031493666,0.004594844887837256,0.054294020086507966
0.1121897,0.01488574251347266,0.013464161271161805,0.007354875838724752,0.05754787636955067,0.02323551921151202,0.05937410625358325,0.004588088816289302,0.05418843026936259
0.1126552,0.01485937147405952,0.013356084695504408,0.007365941392395816,0.057267326969531115,0.023208179991561044,0.059458300041162475,0.00458140169759086,0.05408045711401739
0.1131207,0.014832485139511077,0.01324856328162971,0.007376409417314569,0.05698936480708214,0.023180917549005465,0.05954161009519815,0.004574786233511036,0.053970131108335956
0.1135862,0.014805091399690211,0.013141620291082786,0.0073862732455412475,0.05671409574969043,0.023153747077842398,0.059624031405203955,0.004568245088025339,0.05385748321904008
0.1140517,0.014777198173065543,0.013035278541748675,0.0073955262743292186,0.05644162475347834,0.023126683677345536,0.05970555925833467,0.004561780886982052,0.05374254488433554
0.1145172,0.014748813404284997,0.012929560405858426,0.007404161968807312,0.05617205584614679,0.02309974234942408,0.05978618924829456,0.0045553962177812,0.053625348006357196
0.1149828,0.014719945061743905,0.012824487808130476,0.007412173864671912,0.05590549211010115,0.02307293799602918,0.059865917284049656,0.004549093629065963,0.053505924943439476
0.1154483,0.014690601135149346,0.01272008222404619,0.00741955557088829,0.055642035665759274,0.02304628541660826,0.05994473959833352,0.004542875630426372,0.05338430850221751
0.1159138,0.014660789633082375,0.012616364678258453,0.0074263007724006905,0.05538178765504035,0.02301979930560772,0.06002265275593597,0.004536744692115138,0.053260531929564675
0.1163793,0.01463051858055985,0.012513355743132117,0.007432403232850738,0.055124848225032885,0.02299349425002455,0.06009965366176438,0.004530703244775474,0.05313462890437145
0.1168448,0.014599796016597465,0.01241107553741515,0.007437856797303731,0.05487131651183988,0.022967384727007607,0.060175739568666654,0.004524753679180747,0.05300663352917043
0.1173103,0.014568629991775562,0.012309543725039269,0.007442655394982479,0.054621290624598876,0.022941485101509243,0.060250908085005286,0.004518898345985836,0.052876580321612104
0.1177759,0.014537028565809238,0.012208779514048813,0.007446793042008358,0.05437486762967446,0.022915809623987968,0.06032515718197167,0.004513139555490028,0.05274450420579577
0.1182414,0.014504999805124201,0.012108801655656507,0.007450263844149339,0.05413214353502071,0.022890372428162737,0.06039848520062971,0.004507479577411283,0.0526104405034598
0.1187069,0.014472551780439755,0.012009628443424777,0.007453061999574784,0.05389321327471115,0.02286518752881931,0.060470890858677614,0.004501920640671674,0.05247442492503549
0.1191724,0.014439692564360247,0.011911277712571281,0.007455181801616808,0.05365817069363419,0.022840268819669,0.060542373256917206,0.004496464933193799,0.05233649356056845
0.1196379,0.01440643022897635,0.011813766839397296,0.0074566176415381,0.053427108532352066,0.02281563007126006,0.060612931885420315,0.004491114601707937,0.052196682870511726
0.1201034,0.01437277284347757,0.011717112740837685,0.00745736401130604,0.0532001184121221,0.02279128492894184,0.060682566629382824,0.004485871751569755,0.052055029676394644
0.120569,0.014338728471777367,0.011621331874131165,0.007457415506372996,0.05297729082007866,0.0227672469108817,0.060751277774658184,0.004480738446588338,0.05191157115137155
0.1210345,0.01430430517015243,0.011526440236609745,0.007456766828462659,0.052758715094574346,0.022743529406134663,0.060819066012963226,0.0044757167088643225,0.05176634481065474
0.1215,0.014269510984897524,0.011432453365606127,0.007455412788362256,0.05254447941067871,0.022720145672765656,0.060885932446750606,0.004470808518637886,0.05161938850183615
0.1219655,0.014234353949997405,0.011339386338478074,0.007453348308720439,0.05233467076583265,0.022697108836024063,0.06095187859374265,0.004466015814146336,0.05147074039510286
0.122431,0.014198842084817268,0.011247253772748685,0.007450568426850607,0.05212937496565659,0.02267443188656997,0.061016906391122096,0.0044613404914910105,0.05132043897335121
0.1228966,0.01416298339181307,0.011156069826361803,0.0074470682975394,0.051928676609910775,0.022652127678751542,0.06108101819937577,0.004456784404513197,0.051168523022204704
0.1233621,0.014126785854263092,0.011065848198051722,0.00744284319586004,0.05173265907860601,0.022630208928932718,0.061144216805787806,0.004452349364678783,0.051015031619940455
0.1238276,0.014090257434021989,0.010976602127826515,0.007437888519990145,0.05154140451826371,0.022608688213870267,0.06120650542757974,0.0044480371409713615,0.05086000412732895
0.1242931,0.014053406069298622,0.010888344397564403,0.00743219979403359,0.05135499382832441,0.02258757796913913,0.06126788771469488,0.004443849459793534,0.05070348017739183
0.1247586,0.014016239672458835,0.010801087331722517,0.0074257726708459705,0.05117350664770435,0.022566890487604952,0.06132836775222501,0.004439788004876182,0.050545499665082136
0.1252241,0.013978766127854434,0.010714842798157405,0.007418602934863155,0.050997021341500026,0.02254663791794248,0.06138795006247733,0.004435854417195477,0.05038610273689191
0.1256897,0.013940993289679508,0.01062962220905663,0.007410686504932411,0.05082561498784104,0.02252683226319874,0.061446639606679704,0.0044320502948974275,0.05022532978039186
0.1261552,0.01390292897985519,0.010545436521980629,0.007402019437145597,0.0506593633648917,0.022507485379399752,0.06150444178632281,0.004428377193229762,0.05006322141370791
0.1266207,0.013864580985943863,0.010462296241014035,0.007392597927673876,0.05049834093800194,0.0224886089741999,0.06156136244413842,0.004424836624480945,0.04989981847493942
0.1270862,0.013825957059093731,0.010380211418025627,0.007382418315603459,0.05034262084700853,0.022470214605573042,0.06161740786471373,0.004421430057926111,0.04973516201152378
0.1275517,0.01378706491201462,0.010299191654036118,0.0073714770857718735,0.05019227489368723,0.0224523136805444,0.06167258477474219,0.004418158919779671,0.04956929326955194
0.1280172,0.013747912216985724,0.010219246100692974,0.007359770871604315,0.05004737352935753,0.022434917453962283,0.06172690034291164,0.004415024593154361,0.04940225368303942
0.1284828,0.013708506603896057,0.010140383461851575,0.007347296457949683,0.04990798584264134,0.02241803702730853,0.06178036217943095,0.004412028418026476,0.04923408486315775
0.1289483,0.01366885565831813,0.010062611995262068,0.007334050783915953,0.04977417954737782,0.022401683347546476,0.061832978335196576,0.004409171691207103,0.049064828587431664
0.1294138,0.01362896691961548,0.009985939514361341,0.007320030945704585,0.04964602097069665,0.02238586720600518,0.06188475730060085,0.004406455666319152,0.048894526788907725
0.1298793,0.01358884787908454,0.009910373390169562,0.007305234199443765,0.04952357504125209,0.02237059923729867,0.06193570800398439,0.004403881553780098,0.04872322154530077
0.1303448,0.013548505978131446,0.009835920553290758,0.007289657964020275,0.0494069052776202,0.022355889918279366,0.06198583980973633,0.00440145052079035,0.04855095506812452
0.1308103,0.013507948606484388,0.00976258749601693,0.007273299823909873,0.04929607377686103,0.02234174956702506,0.06203516251604692,0.004399163691327231,0.04837776969181287
0.1312759,0.013467183100442173,0.009690380274535152,0.007256157532006071,0.04919114120324762,0.02232818834185948,0.06208368635231839,0.004397022146144583,0.04820370786283791
0.1317414,0.013426216741159732,0.009619304511237114,0.007238229012447234,0.04909216677716301,0.022315216240406527,0.06213142197624096,0.004395026922778006,0.048028812128831
0.1322069,0.013385056752971237,0.009549365397130468,0.007219512363441931,0.048999208264166254,0.022302843098678717,0.06217838047054167,0.004393179015555738,0.04785312512771269
0.1326724,0.013343710301751544,0.009480567694351322,0.0072000058600925195,0.04891232196422812,0.02229107859020024,0.06222457333941408,0.0043914793756151815,0.04767668957683747
0.1331379,0.013302184493316573,0.00941291573877718,0.007179707957216887,0.048831562701136685,0.02227993222516498,0.06227001250463792,0.004389928910925093,0.04749954826215863
0.1336034,0.013260486371863134,0.009346413442739586,0.0071586172921682695,0.04875698381207278,0.022269413349629747,0.06231471030139766,0.004388528486313485,0.047321744027418775
0.134069,0.013218622918448695,0.009281064297835696,0.007136732687653025,0.04868863713735519,0.022259531144742748,0.06235867947380916,0.004387278923501319,0.04714331976337069
0.1345345,0.013176601049511441,0.009216871377837969,0.007114053154546185,0.048626573010355174,0.022250294626007142,0.06240193317016393,0.0043861810011420685,0.04696431839703331
0.135,0.013134427615430953,0.009153837341701183,0.007090577894704573,0.048570840247580245,0.022241712642579545,0.06244448493790024,0.004385235454867273,0.046784782880987016
0.1354655,0.013092109399129661,0.009091964436665868,0.007066306303777176,0.04852148613892709,0.02223379387660312,0.06248634871831018,0.004384442977338165,0.04660475618271229
0.135931,0.013049653114715221,0.009031254501457302,0.00704123797401245,0.04847855643810402,0.022226546842574916,0.06252753884099174,0.004383804218303424,0.046424281273975444
0.1363966,0.013007065406163898,0.008971708969579077,0.007015372697062144,0.048442095353223316,0.022219979886746902,0.06256807001805412,0.004383319784663094,0.046243401120265114
0.1368621,0.01296435284604497,0.008913328872700278,0.006988710466781154,0.04841214553756426,0.022214101186560153,0.06260795733808436,0.0043829902405386955,0.0460621586702827
0.1373276,0.012921521934286157,0.00885611484413524,0.006961251482022927,0.04838874808050813,0.02220891875011147,0.06264721625988318,0.004382816107349509,0.045880596845490194
0.1377931,0.012878579096979948,0.008800067122414833,0.00693299614942979,0.048371942498647146,0.02220444041565165,0.06268586260597712,0.004382797863895032,0.045698758529718296
0.1382586,0.012835530685230755,0.008745185554948227,0.0069039450862176475,0.04836176672706971,0.02220067385111456,0.06272391255591432,0.0043829359464435695,0.04551668655883806
0.1387241,0.012792382974042654,0.008691469601774004,0.0068740991229543835,0.048358257110825156,0.022197626553676072,0.06276138263935054,0.004383230748826922,0.04533442371049872
0.1391897,0.012749142161247453,0.00863891833939954,0.006843459306331319,0.04836144839657148,0.022195305849341793,0.0627982897289322,0.00438368262254112,0.04515201269393455
0.1396552,0.01270581436647291,0.00858753046472745,0.0068120269019270405,0.04837137372440965,0.02219371889256256,0.06283465103298258,0.00438429187685316,0.044969496139843246
0.1401207,0.01266240563015078,0.00853730429906788,0.006779803396962906,0.04838806461990834,0.022192872665876617,0.06287048408799709,0.004385058778913677,0.04478691659033825
0.1405862,0.01261892191256442,0.008488237792235395,0.006746790503049524,0.048411550986322355,0.022192773979577484,0.06290580675095314,0.004385983553875523,0.04460431648897728
0.1410517,0.012575369092935666,0.0084403285267291,0.0067129901589234806,0.048441861097008404,0.022193429471406623,0.06294063719143991,0.004387066385018169,0.04442173817086937
0.1415172,0.01253175296855065,0.008393573721994663,0.006678404533173643,0.04847902158804105,0.022194845606269956,0.0629749938836128,0.004388307413877877,0.044239223852862386
0.1419828,0.012488079253924282,0.008347970238766723,0.006643036026956331,0.048523057451031956,0.022197028675977185,0.0630088955979772,0.004389706740383557,0.04405681562381344
0.1424483,0.0124443535800032,0.008303514583490242,0.006606887276698717,0.04857399202615567,0.022199984799002828,0.06304236139300592,0.00439126442299821,0.04387455543494414
0.1429138,0.01240058149340702,0.008260202912819209,0.006569961156789778,0.04863184699538545,0.02220371992026778,0.0630754106065943,0.004392980478865953,0.043692485090283
0.1433793,0.012356768455707854,0.008218031038191069,0.0065322607822581626,0.04869664237594284,0.022208239810940108,0.0631080628473568,0.004394854883964556,0.043510646237197415
0.1438448,0.01231291984274805,0.008176994430475199,0.006493789511436327,0.04876839651396602,0.022213550068253866,0.06314033798576885,0.004396887573263549,0.043329080357017595
0.1443103,0.012269040943996093,0.008137088224693683,0.006454550948610255,0.0488471260784017,0.022219656115344703,0.06317225614515741,0.0043990784408878955,0.0431478287557554
0.1447759,0.01222513696194057,0.00809830722481259,0.006414548946654069,0.04893284605512608,0.02222656320110129,0.06320383769254452,0.004401427340287263,0.04296693255492098
0.1452414,0.012181213011522007,0.008060645908601833,0.006373787609648849,0.04902556974130068,0.022234276400031706,0.06323510322934801,0.00440393408441092,0.04278643268244015
0.1457069,0.012137274119602283,0.008024098432561686,0.0063322712954849624,0.04912530873996839,0.02224280061214406,0.06326607358194486,0.004406598445888301,0.042606369863675574
0.1461724,0.012093325224471284,0.007988658636913936,0.006290004618447188,0.04923207295489557,0.022252140562840785,0.06329676979210298,0.004409420157215323,0.042426784612554155
0.1466379,0.012049371175390445,0.007954320050655593,0.006246992451781885,0.04934587058566554,0.022262300802826096,0.06332721310728795,0.004412398910946565,0.04224771722280329
0.1471034,0.012005416732172758,0.007921075896673032,0.006203239930245441,0.04946670812302937,0.022273285708026384,0.06335742497085127,0.004415534359893502,0.04206920775929826
0.147569,0.011961466564798962,0.007888919096914375,0.006158752452633189,0.04959459034451951,0.022285099479523354,0.06338742701210694,0.00441882611732898,0.041891296049523
0.1480345,0.01191752525306963,0.00785784227761787,0.006113535684287965,0.04972952031033226,0.022297746143500018,0.06341724103630281,0.0044222737571981766,0.04171402167514605
0.1485,0.011873597286292925,0.007827837774594011,0.006067595559587407,0.04987149935948459,0.022311229551199484,0.06344688901449308,0.004425876814336255,0.04153742396371373
0.1489655,0.01182968706300792,0.007798897638559054,0.006020938284409107,0.050020527106250726,0.02232555337889665,0.06347639307331836,0.004429634784692926,0.04136154198046226
0.149431,0.011785798890743413,0.007771013640517563,0.005973570338572675,0.05017660143688344,0.02234072112788272,0.0635057754846994,0.00443354712556409,0.04118641452025074
0.1498966,0.011741936985812221,0.0077441772771915844,0.005925498478257749,0.05033971850662465,0.022356736124462456,0.06353505865545134,0.00443761325583072,0.04101208009961708
0.1503621,0.011698105473140994,0.00771837977649401,0.005876729738396949,0.05050987273700965,0.02237360151996415,0.06356426511682511,0.004441832556205125,0.04083857694895889
0.1508276,0.011654308386135575,0.00769361210304367,0.005827271435042779,0.05068705681346896,0.022391320290761966,0.06359341751398367,0.004446204369484692,0.040665943004841526
0.1512931,0.011610549666582053,0.0076698649637197145,0.005777131167707462,0.05087126168323137,0.02240989523831062,0.06362253859542061,0.004450728000813221,0.040494215902435
0.1517586,0.011566833164583455,0.007647128813252804,0.0057263168216746966,0.05106247655353198,0.02242932898919195,0.06365165120232885,0.004455402717949919,0.0403234329680815
0.1522241,0.011523162638532215,0.007625393859850675,0.005674836570282317,0.051260688890128706,0.022449623995173067,0.06368077825792698,0.00446022775154609,0.04015363121199484
0.1526897,0.011479541755118365,0.007604650070855653,0.005622698877174859,0.05146588441613068,0.022470782533275706,0.06370994275675033,0.004465202295429586,0.03998484732109298
0.1531552,0.011435974089373408,0.007584887178431689,0.005569912498525006,0.05167804711114197,0.022492806705856256,0.06373916775391376,0.004470325506897012,0.039817117651964724
0.1536207,0.01139246312474976,0.0075660946852785325,0.005516486485222886,0.0518971592107234,0.022515698440695838,0.06376847635435258,0.0044755965070136915,0.03965047822397154
0.1540862,0.011349012253235553,0.007548261870370644,0.005462430185032182,0.0521232012061752,0.02253945949109978,0.06379789170204793,0.00448101438092134,0.03948496471248543
0.1545517,0.011305624775504529,0.0075313777947185025,0.005407753244711931,0.05235615184464273,0.02256409143600562,0.06382743696924248,0.004486578178153398,0.03932061244226345
0.1550172,0.011262303901100657,0.0075154313071499656,0.005352465612102896,0.052595988129547105,0.022589595680098763,0.0638571353456517,0.0044922869129579435,0.039157456380959556
0.1554828,0.011219052748657032,0.007500411050109445,0.005296577538177337,0.05284268532134207,0.022615973453934773,0.06388701002767583,0.004498139564628103,0.038995531132773924
0.1559483,0.011175874346148609,0.00748630546547267,0.0052400995790509676,0.053096216938598374,0.022643225814067167,0.06391708420761716,0.004504135077839896,0.038834870932240036
0.1564138,0.011132771631178184,0.00747310280037488,0.005183042597955887,0.053356554759416634,0.022671353643179744,0.06394738106290696,0.004510272362997466,0.03867550963814934
0.1568793,0.011089747451295083,0.007460791113050273,0.00512541776717327,0.05362366882316978,0.022700357650222318,0.06397792374534599,0.004516550296585693,0.03851748072761318
0.1573448,0.011046804564345855,0.007449358278680579,0.0050672365699246085,0.053897527432576135,0.022730238370548998,0.06400873537036257,0.004522967721530208,0.03836081729026128
0.1578103,0.011003945638856262,0.00743879199525058,0.005008510802220313,0.05417809715610461,0.022760996166058298,0.06403983900629154,0.004529523447564854,0.03820555202257589
0.1582759,0.010961173254443795,0.007429079789408476,0.004949252574664539,0.05446534283071347,0.022792631225334783,0.06407125766367737,0.004536216251606622,0.03805171722236027
0.1587414,0.010918489902259894,0.007420209022329053,0.004889474314215097,0.054759227564924066,0.022825143563792272,0.06410301428460456,0.00454304487813811,0.03789934478333995
0.1592069,0.01087589798546097,0.007412166895577695,0.0048291887658973385,0.05505971274223102,0.022858533023819086,0.06413513173205797,0.004550008039597501,0.03774846618989499
0.1596724,0.010833399819707407,0.007404940456973419,0.004768408994470931,0.05536675802485046,0.022892799274925952,0.06416763277931564,0.004557104416776034,0.037599112511921155
0.1601379,0.010790997633689585,0.007398516606449181,0.00470714838604841,0.05568032135780787,0.022927941813897363,0.06420054009937641,0.0045643326592229114,0.03745131439981797
0.1606034,0.010748693569680185,0.007392882101907814,0.004645420649664436,0.05600035897336797,0.02296395996494733,0.06423387625442417,0.004571691385657537,0.03730510207960146
0.161069,0.010706489684111906,0.007388023565072008,0.004583239818794644,0.05632682539580911,0.02300085287988063,0.06426766368533074,0.004579179184388967,0.0371605053481395
0.1615345,0.01066438794817987,0.00738392748732681,0.004520620252822983,0.05665967344654564,0.02303861953826083,0.06430192470119842,0.004586794613742419,0.03701755356850771
0.162,0.010622390248468066,0.0073805802355531155,0.004457576638456416,0.05699885424960157,0.023077258747586562,0.06433668146894359,0.004594536202492681,0.03687627566546377
0.1624655,0.01058049838759918,0.007377968057950628,0.004394123991085861,0.05734431723743936,0.023116769143477496,0.06437195600292142,0.004602402450304222,0.03673670012103818
0.162931,0.010538714084907237,0.007376077089848762,0.004330277656092242,0.05769601015714723,0.02315714918987166,0.06440777015459187,0.004610391828177831,0.036598854970239
0.1633966,0.010497038977132408,0.007374893359503891,0.004266053310096512,0.05805387907698848,0.023198397179235414,0.06444414560222642,0.0046185027789036074,0.03646276779686842
0.1638621,0.010455474619137442,0.007374402793881351,0.004201466962152507,0.05841786839331607,0.023240511232787524,0.06448110384065474,0.004626733717520121,0.036328465729448575
0.1643276,0.01041402248464503,0.0073745912244205635,0.004136534954881423,0.05878792083785593,0.023283489300738508,0.06451866617105037,0.004635083031779586,0.036195975437254675
0.1647931,0.010372683966995467,0.007375444392781635,0.004071273965546748,0.059163977485362514,0.023327329162546526,0.06455685369075481,0.0046435490826188894,0.03606532312645371
0.1652586,0.01033146037992383,0.007376947956571795,0.004005701007068397,0.059545977761650576,0.023372028427191043,0.06459568728314007,0.00465213020463629,0.03593653453634771
0.1657241,0.010290352958355816,0.0073790874950501045,0.003939833428974801,0.059933859452007014,0.023417584533465426,0.06463518760751112,0.00466082470657361,0.03580963493572062
0.1661897,0.01024936285922135,0.007381848514808859,0.0038736889182917006,0.06032755870998711,0.02346399475028955,0.06467537508905058,0.004669630871803726,0.03568464911928838
0.1666552,0.010208491162284932,0.0073852164554301485,0.0038072855003663435,0.0607270100665995,0.023511256177043492,0.06471626990880876,0.0046785469588230925,0.03556160140425127
0.1671207,0.010167738870991603,0.00738917669511603,0.0037406415396258248,0.06113214643988409,0.02355936574392321,0.06475789199374285,0.004687571201749099,0.03544051562694824
0.1675862,0.010127106913327355,0.007393714556290773,0.0036737757402682653,0.061542899144887045,0.023608320212319154,0.06480026100680918,0.0046967018108219445,0.03532141513961246
0.1680517,0.01008659614269269,0.007398815311173653,0.003606707146885554,0.061959197904036915,0.023658116175218635,0.06484339633711278,0.004705936972910775,0.0352043228072277
0.1685172,0.010046207338787977,0.007404464187320703,0.0035394551450163747,0.06238097085792536,0.023708750057632684,0.06488731709011863,0.004715274852023778,0.03508926100448518
0.1689828,0.01000594120850918,0.007410646373133813,0.003472039461628273,0.06280814457649582,0.02376021811704829,0.06493204207792869,0.004724713589821921,0.03497625161284074
0.1694483,0.009965798386852508,0.007417347023335553,0.003404480165527528,0.06324064407064309,0.023812516443906726,0.06497758980962894,0.004734251306136034,0.034865316017672274
0.1699138,0.009925779437826443,0.007424551264408059,0.0033367976676956365,0.0636783928042264,0.023865640962108737,0.06502397848171078,0.00474388609948689,0.03475647510553736
0.1703793,0.009885884855369627,0.007432244199994324,0.003269012721551222,0.06412131270649853,0.023919587429547147,0.06507122596857018,0.004753616047607932,0.03464974926153094
0.1708448,0.009846115064273088,0.007440410916260287,0.003201146423136217,0.06456932418495333,0.02397435143866733,0.0651193498130886,0.004763439207970329,0.03454515836674256
0.1713103,0.009806470421105211,0.007449036487216167,0.0031332202112251883,0.06502234613859433,0.02402992841705598,0.06516836721729913,0.004773353618310014,0.034442721795812654
0.1717759,0.009766951215137893,0.007458105979995532,0.0030652558673567136,0.06548029597162705,0.02408631362805839,0.06521829503314108,0.004783357297156372,0.03434245841458738
0.1722414,0.009727557669272302,0.0074676044600906835,0.002997275515785744,0.06594308960757815,0.024143502171424393,0.0652691497533061,0.004793448244362262,0.03424438657787094
0.1727069,0.009688289940962746,0.007477516996542918,0.0029293016233559385,0.0664106415038439,0.024201488983982878,0.06532094750217861,0.004803624441635028,0.034148524127274836
0.1731724,0.009649148123137108,0.007487828667086245,0.002861356999290948,0.0668828646666705,0.02426026884034496,0.06537370402687359,0.004813883853068151,0.03405488838916291
0.1736379,0.009610132245112377,0.007498524563243126,0.002793464794903666,0.06735967066656821,0.024319836353635778,0.06542743468837389,0.004824224425673169,0.033963496172691315
0.1741034,0.009571242273503838,0.007509589795370712,0.0027256485032224674,0.06784096965416114,0.02438018597625495,0.06548215445277032,0.004834644089911467,0.03387436376794215
0.174569,0.00953247811312651,0.007521009497656048,0.0026579319585334524,0.06832667037647382,0.024441312000665766,0.06553787788260763,0.00484514076022555,0.033787506944149635
0.1750345,0.009493839607887435,0.007532768833058644,0.0025903393358377635,0.06881668019365578,0.024503208560213385,0.06559461912834028,0.004855712335569359,0.03370294094801758
0.1755,0.009455326541667438,0.007544852998198755,0.0025228951502230057,0.06931090509614468,0.024565869629972176,0.0656523919199022,0.004866356699937218,0.03362068050212714
0.1759655,0.009416938639191016,0.007557247228189681,0.002455624256147864,0.06980924972226844,0.024629289027622202,0.06571120955839546,0.004877071722890977,0.03354073980343383
0.176431,0.00937867556688301,0.007569936801412338,0.00238855184663901,0.07031161737628651,0.024693460414354825,0.0657710849079023,0.004887855260084867,0.03346313252185319
0.1768966,0.009340536933710829,0.007582907044230295,0.002321703452399412,0.07081791004687008,0.024758377295807335,0.06583203038742529,0.004898705153787637,0.03338787179893455
0.1773621,0.009302522292010913,0.007596143335643499,0.0022551049408272,0.07132802842602085,0.024824033023026545,0.06589405796295966,0.004909619233401542,0.033314970246622506
0.1778276,0.009264631138298254,0.007609631111878834,0.002188782514944217,0.0718418719284274,0.02489042079346156,0.06595717913970166,0.004920595315977769,0.03324443994610576
0.1782931,0.009226862914057743,0.007623355870915656,0.0021227627122334296,0.07235933871125864,0.024957533651986163,0.06602140495439597,0.004931631206727975,0.033176292446752985
0.1787586,0.009189217006516212,0.007637303176944464,0.0020570724033843408,0.07288032569439316,0.02502536449195163,0.06608674596782564,0.004942724699531619,0.033110538765135485
0.1792241,0.009151692749394117,0.007651458664756813,0.0019917387909455615,0.07340472858108363,0.025093906056270873,0.0661532122574473,0.004953873577438836,0.03304718938413628
0.1796897,0.009114289423635905,0.007665808044064599,0.0019267894078837157,0.07393244187905507,0.025163150938535012,0.06622081341017486,0.004965075613168572,0.032986254252145325
0.1801552,0.009077006258118147,0.007680337103746829,0.00186225211604787,0.07446335892203611,0.025233091584163297,0.06628955851531491,0.0049763285696017585,0.03292774278234042
0.1806207,0.009039842430334568,0.007695031716021984,0.0017981551045387206,0.0749973718917221,0.025303720291587176,0.06635945615765719,0.004987630200269266,0.03287166385205341
0.1810862,0.009002797067057073,0.00770987784054405,0.0017345268879818026,0.07553437184016852,0.025375029213469135,0.06643051441072367,0.004998978249834454,0.03281802580222096
0.1815517,0.00896586924497188,0.0077248615284203235,0.001671396304704041,0.07607424871261312,0.025447010357956656,0.0665027408301798,0.005010370454570187,0.032766836436918995
0.1820172,0.008929057991289848,0.007739968926149076,0.0016087925148130205,0.07661689137072437,0.02551965558997173,0.06657614244741096,0.005021804542830256,0.03271810302297986
0.1824828,0.008892362284330222,0.007755186279475174,0.0015467449981784074,0.0771621876162736,0.025592956632536048,0.06665072576326697,0.005033278235515229,0.032671832289690846
0.1829483,0.00885578105407709,0.007770499937161743,0.001485283552315036,0.07771002421522712,0.025666905068131917,0.06672649674197736,0.00504478924653287,0.032628030428572936
0.1834138,0.008819313182708158,0.0077858963546759636,0.0014244382901672332,0.0782602869222548,0.025741492340098825,0.06680346080523963,0.005056335283253308,0.032586703093238446
0.1838793,0.008782957505095668,0.007801362097787129,0.0013642396377940252,0.07881286050565033,0.02581670975406536,0.06688162282648295,0.0050679140469592245,0.03254785539932629
0.1843448,0.008746712809279631,0.007816883846075177,0.0013047183319549317,0.07936762877265845,0.02589254847941604,0.06696098712530983,0.005079523233291317,0.0325114919245136
0.1848103,0.008710577836913846,0.007832448396347997,0.0012459054175960882,0.07992447459520392,0.025968999550792453,0.06704155746211846,0.0050911605326893344,0.03247761670860256
0.1852759,0.008674551283685498,0.007848042665965949,0.0011878322452364722,0.08048327993601692,0.02604605386962788,0.06712333703290946,0.005102823630828942,0.03244623325368153
0.1857414,0.008638631799709452,0.007863653696072153,0.001130530468254044,0.0810439258751494,0.026123702205714427,0.06720632846428101,0.005114510209054644,0.03241734452435997
0.1862069,0.008602817989898573,0.007879268654727259,0.0010740320400716263,0.08160629263687709,0.02620193519880151,0.06729053380861715,0.0051262179448089695,0.03239095294807701
0.1866724,0.008567108414311585,0.007894874839947531,0.0010183692112423742,0.08217025961698153,0.02628074336022434,0.06737595453947372,0.005137944512058112,0.03236706041548415
0.1871379,0.008531501588480045,0.007910459682645194,0.0009635745264347103,0.08273570541040637,0.026360117074560995,0.0674625915471671,0.005149687581714163,0.03234566828090299
0.1876034,0.008495995983716023,0.007926010749469994,0.0009096808213166184,0.08330250783928175,0.026440046601316453,0.06755044513456969,0.005161444822054108,0.032326777362859375
0.188069,0.008460590027402114,0.00794151574555101,0.0008567212193392119,0.08387054398131086,0.026520522076631838,0.0676395150131167,0.005173213899135755,0.032310387944695367
0.1885345,0.008425282103265354,0.007956962517137758,0.0008047291284195197,0.08443969019851222,0.02660153351501708,0.06772980029902775,0.005184992477210773,0.03229649977526068
0.189,0.008390070551636654,0.007972339054139736,0.0007537382375224672,0.08500982216631178,0.026683070811105186,0.06782129950974675,0.005196778219135073,0.03228511206968505
0.1894655,0.008354953669697428,0.007987633492563755,0.0007037825131420792,0.08558081490297843,0.026765123741426252,0.06791401056060306,0.005208568786776729,0.03227622351023291
0.189931,0.008319929711715121,0.008002834116848573,0.0006548961956819831,0.08615254279939673,0.02684768196619956,0.06800793076169681,0.005220361841421691,0.03226983224724166
0.1903966,0.008284996889269428,0.008017929362096629,0.000607113795735338,0.0867248796491701,0.026930735031142128,0.06810305681501055,0.005232155044177505,0.0322659359001447
0.1908621,0.008250153371471001,0.008032907816202828,0.0005604700902643687,0.08729769867904778,0.02701427236929232,0.0681993848117495,0.005243946056375274,0.03226453155858039
0.1913276,0.008215397285174546,0.008047758221880613,0.0005150001186797256,0.08787087257966875,0.027098283302847324,0.0682969102299122,0.005255732539970043,0.03226561578358823
0.1917931,0.008180726715188153,0.008062469478585622,0.0004707391788199446,0.088444273536616,0.02718275704501303,0.068395627932094,0.005267512157939808,0.03226918460889323
0.1922586,0.008146139704480741,0.008077030644337341,0.0004277228228313121,0.08901777326177478,0.027267682701865026,0.06849553216352594,0.005279282574683285,0.03227523354227954
0.1927241,0.008111634254389481,0.008091430937439217,0.00038598685294847845,0.08959124302498793,0.027353049274219277,0.0685966165503524,0.005291041456416565,0.03228375756705458
0.1931897,0.008077208324828973,0.008105659738097685,0.00034556731717618226,0.09016455368600206,0.027438845659510908,0.06869887409815091,0.005302786471568736,0.032294751143604555
0.1936552,0.008042859834503981,0.008119706589940557,0.00030650050487246656,0.09073757572669773,0.027525060653679594,0.06880229719069789,0.0053145152911765305,0.032308208211042654
0.1941207,0.008008586661127401,0.008133561201435255,0.0002688229422337763,0.09131017928359679,0.0276116829530602,0.06890687758898353,0.005326225589278057,0.032324122188950956
0.1945862,0.007974386641645157,0.008147213447207364,0.0002325713876823347,0.09188223418063995,0.027698701156277306,0.0690126064304791,0.005337915043305652,0.03234248597921709
0.1950517,0.007940257572469635,0.00816065336926004,0.0001977828271561964,0.09245360996222819,0.027786103766142514,0.0691194742286598,0.005349581334477891,0.032363291967966695
0.1955172,0.00790619720972322,0.00817387117809479,0.000164494469302375,0.09302417592652175,0.02787387919155349,0.06922747087278644,0.0053612221481907875,0.03238653202759293
0.1959828,0.007872203269493477,0.008186857253734183,0.0001327437405734434,0.09359380115899073,0.027962015749393783,0.06933658562794906,0.005372835174408168,0.032412197518884064
0.1964483,0.007838273428101493,0.008199602146647137,0.0001025682802280093,0.0941623545662121,0.02805050166643268,0.06944680713537521,0.005384418108051177,0.03244027929325005
0.1969138,0.007804405322384803,0.008212096578577447,7.400593523548016e-05,0.09472970490990702,0.028139325081224548,0.06955812341300611,0.005395968649386865,0.03247076769504896
0.1973793,0.0077705965499963075,0.008224331443276353,4.7094755085554894e-05,0.09529572084121316,0.028228474046007503,0.06967052185634379,0.005407484504415755,0.032503652564013726
0.1978448,0.007736844669720536,0.00823629780714001,2.1872986502918488e-05,0.0958602709351854,0.028317936528601522,0.06978398923957176,0.005418963385258261,0.03253892323777945
0.1983103,0.0077031472018085235,0.008247986909752819,-1.6209319323377893e-06,0.09642322372551854,0.028407700414306156,0.06989851171695172,0.005430403010539776,0.03257656855451129
0.1987759,0.007669501628332548,0.00825939016433772,-2.3348375257992378e-05,0.09698444773948432,0.028497753507798037,0.07001407482449834,0.005441801105774266,0.032616576855632656
0.1992414,0.007635905393561885,0.008270499158114706,-4.3270537696029e-05,0.09754381153307541,0.02858808353502835,0.07013066348193389,0.00545315540374618,0.032658935988653576
0.1997069,0.007602355904360717,0.008281305652569054,-6.134843831133399e-05,0.09810118372634741,0.028678678145120297,0.07024826199492443,0.005464463644890508,0.032703633310098686
0.2001724,0.007568850530609282,0.008291801583631,-7.754292676199467e-05,0.09865643303895007,0.028769524912266566,0.07036685405759878,0.005475723577670793,0.03275065568853476
0.2006379,0.007535386605649297,0.008301979061768728,-9.181468914037726e-05,0.09920942832583793,0.02886061133762692,0.07048642275535189,0.005486932958954965,0.032799989507697566
0.2011034,0.007501961426754716,0.008311830371996736,-0.00010412425390410755,0.09976003861315014,0.028951924851226152,0.07060695056793329,0.005498089554388858,0.032851620669718064
0.201569,0.007468572255628791,0.008321347973801782,-0.00011443199789603176,0.10030813313424916,0.029043452813852986,0.07072841937282184,0.005509191138767275,0.032905534598448125
0.2020345,0.007435216318928445,0.00833052450098867,-0.00012269815245219672,0.10085358136590758,0.029135182518960728,0.07085081044888733,0.005520235496402479,0.03296171624288578
0.2025,0.007401890808816925,0.008339352761448223,-0.0001288828095968562,0.10139625306463207,0.029227101194570605,0.07097410448033954,0.005531220421489987,0.033020150080699986
0.2029655,0.007368592883545692,0.008347825736849767,-0.00013294592832348195,0.1019360183031137,0.02931919600517874,0.0710982815609653,0.005542143718471544,0.03308082012185492
0.203431,0.007335319668066482,0.00835593658226046,-0.00013484734096073562,0.1024727475067936,0.029411454053667845,0.07122332119865342,0.005553003202395244,0.03314370991233373
0.2038966,0.007302068254674501,0.008363678625693805,-0.00013454675962233916,0.10300631149053247,0.029503862383224357,0.07134920232020762,0.005563796699272749,0.033208802537961664
0.2043621,0.007268835703683645,0.008371045367589596,-0.0001320037827397713,0.10353658149537284,0.02959640797926206,0.07147590327644719,0.00557452204643367,0.03327608062832842
0.2048276,0.007235619044134675,0.008378030480227509,-0.00012717790167670692,0.10406342922538098,0.029689077771353014,0.07160340184759474,0.005585177092877203,0.03334552636080963
0.2052931,0.007202415274537251,0.008384627807076495,-0.0001200285074241084,0.10458672688455575,0.029781858635166723,0.07173167524895038,0.005595759699621215,0.033417121464687366
0.2057586,0.007169221363646674,0.008390831362082112,-0.00011051489737486733,0.10510634721379067,0.029874737394418423,0.07186070013685125,0.005606267740048921,0.03349084722536921
0.2062241,0.007136034251276173,0.008396635328893792,-9.85962821768817e-05,0.10562216352787411,0.02996770082282735,0.07199045261491531,0.0056166991002533605,0.033566684488705784
0.2066897,0.007102850849145513,0.008402034060034045,-8.423179266343061e-05,0.10613404975251269,0.030060735646085992,0.0721209082405676,0.005627051679379817,0.033644613665406095
0.2071552,0.007069668041766707,0.008407022076011579,-6.738048685967841e-05,0.10664188046136149,0.030153828543841462,0.07225204203184754,0.005637323389966357,0.03372461473555002
0.2076207,0.0070364826873674565,0.00841159406438019,-4.800135706409784e-05,0.10714553091304485,0.030246966151690258,0.07238382847449529,0.005647512158282569,0.03380666725319703
0.2080862,0.007003291618853052,0.008415744878745269,-2.605333700355025e-05,0.10764487708815064,0.03034013506318767,0.07251624152931586,0.0056576159246665685,0.03389075035109008
0.2085517,0.006970091644807284,0.00841946953771971,-1.4953090606996348e-06,0.10813979572618031,0.030433321831873215,0.07264925463981926,0.005667632643860306,0.033976842745453095
0.2090172,0.006936879550532975,0.008422763223830978,2.5713888427630755e-05,0.10863016436243723,0.030526512973313356,0.07278284074013472,0.005677560285343195,0.034064922740880646
0.2094828,0.0069036520991326384,0.008425621282381043,5.5615453802621764e-05,0.10911586136483524,0.03061969496716264,0.07291697226319736,0.005687396833664057,0.03415496823531777
0.2099483,0.006870406032629776,0.008428039220260879,8.825061464767507e-05,0.10959676597060879,0.03071285425924435,0.07305162114920455,0.005697140288771356,0.034246956725127946
0.2104138,0.006837138073131225,0.008430012704721195,0.00012366062028628747,0.11007275832290533,0.03080597726365167,0.07318675885433897,0.005706788666341717,0.03434086531024688
0.2108793,0.006803844924031005,0.008431537562101079,0.00016188673421525733,0.1105437195072403,0.030899050364870357,0.07332235635975523,0.005716339998106648,0.03443667069941959
0.2113448,0.006770523271256034,0.008432609776516225,0.00020297022647496974,0.11100953158779389,0.030992059919923425,0.0734583841808261,0.005725792332177367,0.03453434921551783
0.2118103,0.006737169784554031,0.008433225488508484,0.0002469523659585763,0.11147007764352942,0.031084992260538413,0.07359481237664406,0.005735143733367629,0.034633876800934944
0.2122759,0.006703781118823945,0.008433380993658467,0.00029387441266195063,0.1119252418041125,0.031177833695337425,0.07373161055977372,0.0057443922835143735,0.03473522902305464
0.2127414,0.006670353915489135,0.008433072741163011,0.00034377760987635566,0.11237490928560995,0.031270570512050094,0.07386874790625027,0.005753536081796047,0.034838381079790294
0.2132069,0.006636884803913575,0.008432297332379372,0.00039670317632580664,0.11281896642594819,0.03136318897974947,0.07400619316581877,0.005762573245048476,0.03494330780519083
0.2136724,0.006603370402861287,0.008431051519338031,0.00045269229825115043,0.11325730072011032,0.0314556753511111,0.07414391467240876,0.005771501908078191,0.03504998367510955
0.2141379,0.0065698073219992315,0.008429332203226074,0.0005117861214429085,0.11368980085505159,0.031548015864695626,0.07428188035483839,0.005780320223973195,0.03515838281293186
0.2146034,0.006536192163443819,0.008427136432843204,0.0005740257432249535,0.1141163567443125,0.0316401967472553,0.07442005774774187,0.005789026364411249,0.03526847899535816
0.215069,0.006502521523351225,0.008424461403032402,0.0006394522043910985,0.11453685956230863,0.03173220421606521,0.0745584140027139,0.005797618519965809,0.035380245658237934
0.2155345,0.006468791993551637,0.008421304453087336,0.0007081064810966937,0.11495120177827547,0.03182402448127981,0.07469691589966529,0.005806094900409843,0.03549365590245111
0.216,0.006435000163227542,0.008417663065138551,0.0007800294767073394,0.11535927718984591,0.031915643748315944,0.0748355298583837,0.00581445373501776,0.03560868249983283
0.2164655,0.006401142620636149,0.008413534862520463,0.0008552620136068517,0.11576098095623777,0.03200704822026363,0.07497422195029382,0.00582269327286573,0.03572529789913743
0.216931,0.006367215954875952,0.00840891760812112,0.0009338448249666533,0.11615620963102748,0.03209822410032641,0.07511295791041078,0.005830811783130642,0.035843474232037494
0.2173966,0.006333216757697431,0.008403809202716635,0.001015818546478804,0.11654486119448594,0.03218915759429337,0.07525170314948053,0.0058388075553879185,0.03596318331915361
0.2178621,0.006299141625357833,0.008398207683292164,0.0011012237080549412,0.11692683508545132,0.032279834913045084,0.07539042276630034,0.005846678899908425,0.0360843966761101
0.2183276,0.006264987160519934,0.008392111221351186,0.001190100725493462,0.11730203223271315,0.03237024227509592,0.0755290815602123,0.005854424147954658,0.036207085519612124
0.2187931,0.006230749974194644,0.008385518121214856,0.0012824898921173563,0.11767035508588154,0.03246036590917485,0.0756676440437625,0.005862041652076465,0.036331220773538814
0.2192586,0.006196426687727272,0.008378426818313049,0.0013784313703851703,0.11803170764571451,0.03255019205684712,0.07580607445551794,0.005869529786406512,0.03645677307504746
0.2197241,0.006162013934827243,0.008370835877468778,0.0014779651834776596,0.11838599549387652,0.03263970697517856,0.07594433677303343,0.0058768869469557694,0.036583712780683064
0.2201897,0.0061275083636409995,0.008362743991177491,0.001581131206862745,0.11873312582210176,0.032728896939444405,0.07608239472596007,0.005884111551909344,0.036712009972487865
0.2206552,0.006092906638867776,0.008354149977882773,0.0016879691598414436,0.11907300746073633,0.03281774824588437,0.07622021180928677,0.005891202041923006,0.036841634464105176
0.2211207,0.006058205443917901,0.008345052780249919,0.0017985185970774845,0.11940555090663578,0.032906247214505455,0.07635775129670576,0.0058981568804208585,0.03697255580687198
0.2215862,0.006023401483113246,0.00833545146343882,0.0019128189001133527,0.11973066835039688,0.03299438019193394,0.07649497625409239,0.005904974553894624,0.037104743295894804
0.2220517,0.005988491483929377,0.00832534521337755,0.0020309092688755403,0.12004827370290586,0.03308213355431785,0.07663184955308949,0.005911653572205046,0.03723816597610336
0.2225172,0.005953472199278971,0.0083147333350381,0.002152828713171812,0.1203582826211883,0.03316949371028102,0.07676833388478556,0.005918192468885936,0.0373727926482765
0.2229828,0.005918340409835986,0.008303615250715617,0.0022786160441833144,0.1206606125335484,0.033256447103929596,0.07690439177347633,0.005924589801451402,0.03750859187503458
0.2234483,0.005883092926400037,0.008291990498312593,0.0024083098659543663,0.1209551826639866,0.03334298021791155,0.07703998559049852,0.005930844151706734,0.037645531986792706
0.2239138,0.005847726592300435,0.008279858729629375,0.002541948566882779,0.12124191405588584,0.033429079576529824,0.07717507756812496,0.005936954126063443,0.03778358108766887
0.2243793,0.005812238285839268,0.008267219708662404,0.002679570311213562,0.12152072959495697,0.03351473174890901,0.0773096298135098,0.005942918355858861,0.03792270706134137
0.2248448,0.005776624922772884,0.008254073309911571,0.002821213030538866,0.12179155403143421,0.033599923352215816,0.07744360432267282,0.005948735497680716,0.03806287757685008
0.2253103,0.0057408834588311,0.008240419516698084,0.002966914415307016,0.12205431400151402,0.03368464105493316,0.07757696299451183,0.005954404233697074,0.038204060094336786
0.2257759,0.0057050108922734434,0.008226258419494231,0.003116711906343486,0.12230893804803142,0.03376887158018774,0.07770966764483242,0.005959923271991959,0.03834622187072097
0.2262414,0.0056690042664817395,0.008211590214266444,0.003270642686386695,0.12255535664037115,0.03385260170913077,0.07784168002038352,0.005965291346906978,0.038489329965308114
0.2267069,0.005632860672588321,0.008196415200833003,0.003428743671641502,0.12279350219361237,0.03393581828437162,0.07797296181288804,0.005970507219389193,0.03863335124532887
0.2271724,0.005596577252139148,0.008180733781237737,0.0035910515033533265,0.12302330908690869,0.03401850821346364,0.07810347467305667,0.005975569677345473,0.03877825239140802
0.2276379,0.005560151199791096,0.008164546458140966,0.003757602539405845,0.12324471368110691,0.03410065847244193,0.07823318022457335,0.005980477536003505,0.038923999902963205
0.2281034,0.005523579766042653,0.008147853833228944,0.00392843284594526,0.12345765433561047,0.034182256109412446,0.07836204007804032,0.005985229638279632,0.039070560103534525
0.228569,0.005486860259997216,0.00813065660564299,0.0041035781890341756,0.12366207142449352,0.03426328824819186,0.07849001584487122,0.005989824855153626,0.03921789914604704
0.2290345,0.005449990052158171,0.008112955570429476,0.004283074026338162,0.1238579073518735,0.03434374209199773,0.07861706915112085,0.0059942620860504794,0.039365983018009074
0.2295,0.005412966577254866,0.008094751617011718,0.00446695549884812,0.12404510656654885,0.03442360492718831,0.078743161651241,0.005998540259229269,0.03951477754664948
0.2299655,0.0053757873370985695,0.008076045727684897,0.004655257422641608,0.12422361557590829,0.034502864127051225,0.07886825504175231,0.00600265833217911,0.0396642484039974
0.230431,0.005338449903467464,0.008056838976134933,0.004848014280686327,0.12439338295911752,0.034581507155640324,0.07899231107482202,0.006006615292022162,0.03981436111190814
0.2308966,0.005300951921019671,0.0080371325259823,0.005045260214688978,0.12455435937958778,0.03465952157165974,0.0791152915717378,0.006010410155923642,0.03996508104703901
0.2313621,0.00526329111023327,0.008016927629351616,0.005247029016992755,0.12470649759673026,0.0347368950323942,0.07923715843626748,0.006014041971508736,0.04011637344577945
0.2318276,0.005225465270372248,0.007996225625467866,0.00545335412252675,0.12484975247699978,0.0348136152976844,0.07935787366789547,0.006017509817286296,0.04026820340913974
0.2322931,0.005187472282477269,0.007975027939280009,0.0056642686008105585,0.12498408100423024,0.0348896702339461,0.07947739937492615,0.006020812803079128,0.04042053590760265
0.2327586,0.00514931011238015,0.007953336080112684,0.005879805148017409,0.12510944228926407,0.03496504781823168,0.07959569778744566,0.00602395007046068,0.0405733357859425
0.2332241,0.005110976813740898,0.00793115164034668,0.0060999960790991325,0.12522579757887742,0.03503973614233234,0.07971273127013345,0.006026920793197916,0.04072656776801545
0.2336897,0.005072470531106137,0.007908476294128757,0.00632487331997631,0.1253331102640022,0.035113723416919825,0.07982846233491575,0.006029724177700148,0.040880196461525124
0.2341552,0.005033789502987754,0.007885311796111362,0.006554468399796926,0.1254313458872457,0.035186997975725935,0.07994285365345324,0.0060323594634736,0.04103418636276728
0.2346207,0.004994932064960561,0.007861659980222705,0.006788812443266802,0.12552047214970694,0.035259548279758426,0.08005586806945619,0.006034825923581524,0.04118850186135704
0.2350862,0.004955896652777747,0.00783752275846765,0.007027936163055086,0.1256004589170889,0.035331362921551486,0.08016746861082025,0.006037122865109657,0.04134310724494227
0.2355517,0.004916681805502876,0.007812902119759735,0.007271869852278028,0.12567127822510407,0.0354024306294491,0.08027761850157718,0.006039249629636883,0.04149796670390653
0.2360172,0.004877286168657163,0.007787800128784706,0.007520643377064225,0.1257329042841704,0.035472740271919205,0.0803862811736551,0.006041205593710932,0.041653044336064746
0.2364828,0.004837708497380753,0.007762218924895804,0.007774286169204528,0.12578531348339386,0.03554228086189629,0.08049342027844338,0.006042990169329024,0.04180830415135504
0.2369483,0.004797947659606684,0.007736160721041092,0.008032827218889753,0.12582848439383326,0.035611041561150206,0.08059899969815913,0.006044602804423254,0.041963710076529534
0.2374138,0.004758002639246185,0.007709627802723093,0.008296295067539339,0.12586239777104205,0.03567901168467825,0.0807029835570128,0.0060460429833506255,0.04211922595984726
0.2378793,0.004717872539383969,0.007682622526991039,0.008564717800724094,0.1258870365568825,0.03574618070511764,0.08080533623217119,0.006047310227387487,0.04227481557577155
0.2383448,0.0046775565854820875,0.007655147321466084,0.00883812304118614,0.12590238588060795,0.03581253825717514,0.08090602236451704,0.006048404095228171,0.04243044262967439
0.2388103,0.0046370541285909615,0.00762720468339984,0.009116537941959199,0.12590843305921048,0.035878074142070414,0.08100500686920477,0.00604932418348757,0.042586070762549735
0.2392759,0.004596364648566113,0.0075987971787666465,0.009399989179592344,0.12590516759703205,0.03594277833198932,0.08110225494601264,0.006050070127207332,0.042741663555737615
0.2397414,0.004555487757289124,0.007569927441389917,0.009688502947480322,0.12589258118464008,0.0360066409745432,0.08119773208949237,0.006050641600365355,0.0428971845356607
0.2402069,0.0045144232018913275,0.007540598172102918,0.009982104949303619,0.1258706676969678,0.03606965239723011,0.0812914040989182,0.006051038316388241,0.04305259717857479
0.2406724,0.004473170867978693,0.007510812137944286,0.010280820392581366,0.12583942319072108,0.03613180311189362,0.08138323708803831,0.006051260028666361,0.0432078649153346
0.2411379,0.004431730782856362,0.007480572171388549,0.010584673982340219,0.12579884590105347,0.036193083819175145,0.08147319749463156,0.006051306531071225,0.043362951136176095
0.2416034,0.004390103118751257,0.0074498811696118465,0.010893689914902246,0.1257489362375116,0.03625348541295545,0.08156125208987379,0.00605117765847482,0.043517819195516574
0.242069,0.004348288196031187,0.007418742093793031,0.011207891871794912,0.12568969677925262,0.03631299898478129,0.08164736798751775,0.0060508732872706465,0.04367243241677308
0.2425345,0.004306286486418849,0.007387157968450276,0.011527303013786093,0.12562113226953672,0.03637161582827297,0.08173151265289105,0.00605039333589619,0.043826754097199966
0.243,0.004264098616199128,0.007355131880813275,0.011851945975047073,0.12554324960949717,0.036429327443508915,0.08181365391171637,0.006049737765356595,0.04398074751274635
0.2434655,0.004221725369418047,0.007322666980231148,0.012181842857446352,0.12545605785119043,0.0364861255413834,0.08189375995875767,0.006048906579749315,0.04413437592293406
0.243931,0.004179167691071752,0.0072897664776161355,0.012517015224977026,0.12535956818992866,0.03654200204793355,0.08197179936629617,0.006047899826789487,0.04428760257575702
0.2443966,0.004136426690283868,0.007256433644923162,0.012857484098320387,0.1252537939558963,0.036596949108632114,0.08204774109243869,0.006046717598335814,0.0444403907126032
0.2448621,0.004093503643469587,0.007222671814665404,0.013203269949548319,0.12513875060505242,0.03665095909264233,0.08212155448926095,0.006045360030916679,0.04459270357320049
0.2453276,0.004050399997484837,0.007188484379465966,0.013554392696966998,0.12501445570932024,0.03670402459703149,0.08219320931078776,0.006043827306256251,0.04474450440058823
0.2457931,0.0040071173727589055,0.007153874791645836,0.013910871700104296,0.1248809289460672,0.036756138450939904,0.08226267572081145,0.006042119651800313,0.04489575644611648
0.2462586,0.003963657566408913,0.007118846562848284,0.014272725754843181,0.1247381920868784,0.036807293719702254,0.08232992430054989,0.006040237341241552,0.04504642297447563
0.2467241,0.00392002255533454,0.007083403263699897,0.0146399730887034,0.12458626898562876,0.03685748370891845,0.08239492605614523,0.006038180695044011,0.04519646726875883
0.2471897,0.00387621449929148,0.007047548523508416,0.015012631356273532,0.1244251855658599,0.036906701968471275,0.08245765242600415,0.0060359500809663786,0.04534585263556042
0.2476552,0.0038322357439420623,0.00701128602999757,0.015390717634795527,0.1242549698074687,0.036954942296488096,0.08251807528798032,0.006033545914583799,0.04549454241011314
0.2481207,0.0037880888238815387,0.006974619529079051,0.01577424841990375,0.12407565173271544,0.03700219874324352,0.08257616696639943,0.0060309686598078805,0.04564249996146705
0.2485862,0.0037437764656385215,0.006937552824661775,0.01616323962152049,0.12388726339155923,0.037048465615000074,0.08263190023892679,0.006028218829404571,0.04578968869771288
0.2490517,0.0036993015906480703,0.006900089778498536,0.016557706559909798,0.12368983884633011,0.0370937374777836,0.08268524834327688,0.006025296985509571,0.04593607207125202
0.2495172,0.0036546673181959044,0.006862234310070128,0.01695766396189147,0.12348341415574643,0.037138009161090224,0.08273618498376405,0.006022203740140929,0.04608161358411543
0.2499828,0.003609876968332203,0.006823990396506997,0.017363125957217024,0.1232680273582863,0.037181275761521325,0.0827846843376931,0.006018939755708437,0.04622627679333318
0.2504483,0.0035649340647534566,0.006785362072548476,0.01777410607510931,0.12304371845492224,0.037223532646342934,0.0828307210615891,0.006015505745519424,0.046370025316356145
0.2509138,0.0035198423376508144,0.006746353430539581,0.018190617240967367,0.12281052939122664,0.037264775456965875,0.08287427029726567,0.006011902474280478,0.04651282283653144
0.2513793,0.0034746057265233874,0.006706968620465328,0.018612671773238134,0.12256850403885583,0.03730500011234286,0.08291530767773247,0.00600813075859461,0.04665463310863257
0.2518448,0.0034292283829549615,0.006667211850022518,0.019040281380456322,0.12231768817641915,0.03734420281227878,0.0829538093329422,0.0060041914674533875,0.04679541996444539
0.2523103,0.0033837146733526,0.006627087384728816,0.019473457158453802,0.12205812946973991,0.03738238004065071,0.0829897518953778,0.006000085522723499,0.04693514731841066
0.2527759,0.0033380691816456247,0.006586599548069017,0.019912209587739614,0.12178987745151537,0.03741952856853438,0.08302311250547997,0.005995813899627303,0.04707377917332378
0.2532414,0.003292296711943502,0.006545752721678242,0.020356548531051614,0.12151298350038334,0.037455645457234205,0.08305386881691476,0.005991377627216909,0.04721127962609194
0.2537069,0.003246402291151238,0.006504551345561844,0.02080648323108058,0.12122750081940467,0.037490728061214486,0.08308199900168033,0.005986777788841368,0.04734761287354896
0.2541724,0.0032003911715409246,0.0064629999183517485,0.021262022308367476,0.1209334844139723,0.03752477403092995,0.08310748175505181,0.005982015522606617,0.047482743218327406
0.2546379,0.003154268833278152,0.006421102997598909,0.021723173759374406,0.12063099106915992,0.037557781315554116,0.08313029630036257,0.005977092021827843,0.04761663507478767
0.2551034,0.003108040986902037,0.006378865200101537,0.02218994495472964,0.12032007932652497,0.03758974816560461,0.08315042239362071,0.005972008535473961,0.04774925297500338
0.255569,0.0030617135757576527,0.00633629120226872,0.02266234263764699,0.12000080946038118,0.03762067313546463,0.08316784032795964,0.005966766368603951,0.047880561574802236
0.2560345,0.003015292778379656,0.006293385740519032,0.02314037292251964,0.11967324345355747,0.03765055508579995,0.08318253093792216,0.0059613668827948165,0.048010525659861164
0.2565,0.002968785010825908,0.006250153611713685,0.023624041293688502,0.11933744497265973,0.03767939318587121,0.0831944756035775,0.0059558114965609305,0.048139110151854896
0.2569655,0.0029221969289598923,0.006206599673623751,0.02411335260438514,0.11899347934285208,0.03770718691574149,0.08320365625447068,0.005950101685764552,0.04826628011465655
0.257431,0.0028755354306807344,0.006162728845430942,0.024608311075849133,0.11864141352217461,0.037733936068379506,0.08321005537340333,0.00594423898401724,0.04839200076058922
0.2578966,0.0028288076580996226,0.006118546108261472,0.02510892029661985,0.11828131607541512,0.03775964075165901,0.08321365600004435,0.005938224983071891,0.04851623745672758
0.2583621,0.0027820209996614123,0.006074056505752439,0.02561518322200245,0.11791325714755313,0.037784301390255265,0.0832144417343685,0.005932061333205078,0.04863895573124816
0.2588276,0.0027351830922101874,0.006029265144650286,0.026127102173707874,0.11753730843679563,0.03780791872743954,0.08321239673992038,0.005925749743589349,0.04876012127982694
0.2592931,0.0026883018229975296,0.00598417719544082,0.026644678839666435,0.11715354316722384,0.03783049382677288,0.08320750574690132,0.005919291982655164,0.048879699972082906
0.2597586,0.0026413853316322256,0.005938797893010352,0.027167914274014562,0.11676203606107138,0.03785202807370028,0.08319975405507592,0.005912689878442128,0.048997657858065764
0.2602241,0.0025944420119701226,0.005893132537337535,0.027696808897254118,0.11636286331065347,0.03787252317704667,0.0831891275364956,0.005905945318939228,0.04911396117478625
0.2606897,0.002547480513942825,0.005847186494215475,0.028231362496583444,0.11595610254996738,0.037891981170416034,0.08317561263803652,0.00589906025241378,0.04922857635278707
0.2611552,0.002500509745323898,0.005800965196003728,0.028771574226399355,0.11554183282598406,0.03791040441349473,0.08315919638374952,0.005892036687728842,0.04934147002275288
0.2616207,0.0024535388734312417,0.005754474142409755,0.029317442608969013,0.11512013456965071,0.03792779559326021,0.08313986637701969,0.0058848766946488626,0.049452609022157784
0.2620862,0.0024065773267642806,0.005707718901299425,0.029868965535270405,0.11469108956662419,0.037944157725096274,0.08311761080253359,0.005877582404133396,0.04956196040194893
0.2625517,0.002359634796574619,0.005660705109536158,0.030426140266000178,0.11425478092775423,0.037959494153816165,0.08309241842805218,0.0058701560086187226,0.049669491433264996
0.2630172,0.002312721238368836,0.005613438473848293,0.030988963432747218,0.1138112930593354,0.037973808554594965,0.08306427860598779,0.005862599762287233,0.04977516961418869
0.2634828,0.002265846873342111,0.005565924771724296,0.03155743103933046,0.11336071163314594,0.03798710493381293,0.08303318127478379,0.0058549159813244996,0.04987896267653193
0.2639483,0.0022190221897414207,0.00551816985233536,0.0321315384632992,0.11290312355629094,0.03799938762981145,0.08299911696009606,0.005847107044163935,0.049980838592653
0.2644138,0.0021722579441570927,0.005470179637484944,0.032711280457594145,0.11243861694086649,0.03801066131356317,0.08296207677577615,0.0058391753917189345,0.05008076558230471
0.2648793,0.0021255651627415323,0.0054219601225847505,0.03329665115236731,0.1119672810734608,0.0380209309892578,0.08292205242465654,0.005831123527602424,0.05017871211951295
0.2653448,0.0020789551423539944,0.0053735173776566,0.03388764405695873,0.111489206384507,0.03803020199480457,0.08287903619913863,0.005822954018333675,0.050274646939485086
0.2658103,0.00203243945163029,0.005324857548359627,0.034484252062027855,0.11100448441750202,0.03803848000225234,0.08283302098158439,0.005814669493532205,0.05036853904554734
0.2662759,0.0019860299319763583,0.005275986857042183,0.03508646744183725,0.11051320779810424,0.03804577101812814,0.08278400024451274,0.005806272646098604,0.05046035771611035
0.2667414,0.0019397386984846632,0.005226911603817821,0.0356942818566863,0.11001547020312272,0.03805208138369438,0.08273196805060068,0.005797766232382029,0.050550072511661895
0.2672069,0.0018935781407723967,0.005177638167664727,0.036307686355492634,0.1095113663294093,0.038057417775125016,0.0826769190524894,0.005789153072334144,0.0506376532817855
0.2676724,0.0018475609237404867,0.005128173007547895,0.03692667137851901,0.10900099186266439,0.03806178720360036,0.08261884849239504,0.005780436049649239,0.05072307017220359
0.2681379,0.0018016999882524082,0.005078522663563386,0.03755122676024366,0.10848444344616709,0.038065197015320455,0.08255775220152313,0.005771618111890287,0.05080629363184321
0.2686034,0.0017560085517318003,0.005028693758103906,0.0381813417323721,0.1079618186494401,0.038067654891436396,0.08249362659928593,0.005762702270600658,0.05088729441992276
0.269069,0.0017105001086778955,0.00497869299704497,0.03881700492698846,0.10743321593685894,0.03806916884789905,0.0824264686923218,0.005753691601401188,0.05096604361305746
0.2695345,0.0016651884310977692,0.004928527170950852,0.039458204379844465,0.10689873463621592,0.03806974723522471,0.08235627607331605,0.005744589244072284,0.05104251261238165
0.27,0.0016200875688544203,0.0048782031562994745,0.04010492753378398,0.10635847490724817,0.0380693987381772,0.08228304691962342,0.0057353984026207025,0.05111667315068555
0.2704655,0.0015752118499296954,0.004827727916725362,0.04075716124230104,0.10581253771013895,0.038068132375366055,0.0822067799916924,0.005726122345330639,0.05118849729956418
0.270931,0.0015305758806010805,0.0047771085042797425,0.04141489177322892,0.10526102477400189,0.03806595749876039,0.08212747463129254,0.005716764404798716,0.05125795747657681
0.2713966,0.001486194545531377,0.004726352060706842,0.042078104812557686,0.10470403856535801,0.03806288379311809,0.08204513075954659,0.005707327977952445,0.05132502645241519
0.2718621,0.0014420830077702888,0.004675465818735378,0.04274678546837749,0.10414168225661574,0.03805892127532986,0.08195974887477077,0.0056978165260516975,0.05138967735807961
0.2723276,0.0013982567086669629,0.004624457103384224,0.04342091827494439,0.10357405969456517,0.038054080293677246,0.08187133005012609,0.005688233574672683,0.05145188369206195
0.2727931,0.0013547313676925414,0.00457333333328117,0.04410048719686532,0.10300127536889846,0.038048371527003966,0.08177987593108486,0.005678582713673908,0.05151161932753526
0.2732586,0.0013115229821718108,0.004522102021993694,0.044785475633398734,0.1024234343807686,0.038041805983799505,0.08168538873271543,0.005668867597143579,0.05156885851954955
0.2737241,0.0012686478269230389,0.004470770779370629,0.045475866422866947,0.10184064241139883,0.038034395001194314,0.08158787123678803,0.005659091943327894,0.05162357591223436
0.2741897,0.0012261224538051112,0.0044193473128935285,0.0461716418471765,0.10125300569075447,0.038026150243865846,0.08148732678870424,0.005649259534539684,0.05167574654600829
0.2746552,0.0011839636911710801,0.004367839429036576,0.04687278363644258,0.10066063096628905,0.03801708370285496,0.08138375929425173,0.005639374217046878,0.05172534586479596
0.2751207,0.0011421886432272498,0.004316255034633782,0.04757927297371362,0.10006362547177555,0.03800720769429216,0.08127717321618658,0.005629439900940349,0.051772349723252856
0.2755862,0.001100814689296927,0.004264602138252232,0.048291090499792556,0.09946209689623464,0.03799653485803326,0.08116757357064563,0.005619460559980686,0.051816734393997775
0.2760517,0.0010598594829879912,0.004212888851570098,0.04900821631815121,0.09885615335297064,0.03798507815620406,0.08105496592339283,0.005609440231423475,0.051858476574852576
0.2765172,0.0010193409512634657,0.004161123390758108,0.04973062999993463,0.0982459033487269,0.03797285087165371,0.0809393563859042,0.005599383015822702,0.051897553396088314
0.2769828,0.0009792772934143089,0.004109314077863186,0.05045831058905234,0.09763145575297281,0.03795986660631635,0.08082075161129794,0.0055892930768118194,0.05193394242767684
0.2774483,0.000939686979933699,0.004057469342192959,0.05119123660735386,0.09701291976733452,0.03794613927948071,0.0806991587901164,0.0055791746408620614,0.051967621686546145
0.2779138,0.0009005887512921272,0.00400559772169987,0.051929386059885986,0.09639040489518233,0.03793168312596726,0.0805745856459676,0.00556903199701754,0.05199856964383794
0.2783793,0.00086200161661266,0.003953707864363628,0.05267273644022952,0.09576402091138743,0.03791651269421273,0.08044704043103343,0.00555886949660669,0.05202676523216518
0.2788448,0.0008239448522457618,0.0039018085295707845,0.0534212647359133,0.09513387783226002,0.037900642844262006,0.08031653192145177,0.005548691552929674,0.05205218785286714
0.2793103,0.0007864380002430947,0.003849908589490199,0.05417494743390348,0.09450008588568078,0.037884088745667586,0.08018306941257969,0.005538502640921408,0.05207481738325918
0.2797759,0.000749500866729743,0.003798017030443194,0.054933760526165866,0.0938627554814366,0.03786686587529681,0.08004666271414476,0.005528307296789968,0.05209463418387395
0.2802414,0.0007131535201743413,0.0037461429542671467,0.055697679515299615,0.09322199718177138,0.03784899001504702,0.07990732214529282,0.005518110117630224,0.05211161910569044
0.2807069,0.0006774162895566275,0.0036942955796712587,0.056466679420241174,0.09257792167216174,0.037830477249469065,0.07976505852954079,0.005507915761012553,0.0521257534973468
0.2811724,0.0006423097624319794,0.0036424842435832223,0.057240734782038845,0.09193063973232801,0.03781134396329948,0.07961988318964444,0.005497728944546535,0.052137019212332755
0.2816379,0.0006078547828925339,0.003590718402485459,0.058019819669699706,0.09128026220748989,0.03779160683890168,0.07947180794239131,0.005487554445419547,0.05214539861615675
0.2821034,0.0005740724494245112,0.0035390076337395945,0.05880390768611209,0.09062689997987589,0.03777128285361656,0.07932084509332886,0.005477397099910183,0.052150874593482895
0.282569,0.0005409841126613847,0.0034873616368978,0.059592971974048115,0.08997066394049527,0.03775038927702278,0.07916700743143797,0.00546726180287651,0.05215343055523237
0.2830345,0.0005086113730325551,0.003435790234999625,0.06038698522225139,0.08931166496118041,0.03772894366810734,0.07901030822376137,0.005457153507219212,0.052153050445643535
0.2835,0.0004769760783072069,0.00338430337585291,0.061185919671615324,0.0886500138669071,0.03770696387234713,0.07885076120999637,0.00544707722331972,0.05214971874928495
0.2839655,0.0004461003210330569,0.003332911133297358,0.06198974712145724,0.08798582140839928,0.037684468018702684,0.07868838059706092,0.005437038018453486,0.052143420498015076
0.284431,0.0004160064358697397,0.0032816237084493105,0.06279843893589337,0.08731919823502436,0.03766147451652541,0.07852318105364195,0.005427041016178534,0.052134141277882635
0.2848966,0.00038671699681661347,0.0032304514309262717,0.06361196605031941,0.0866502548679843,0.0376380020523796,0.07835517770473446,0.005417091395699475,0.05212186723596166
0.2853621,0.00035825481433481997,0.00317940476004971,0.06443029897800047,0.08597910167380682,0.03761406958678069,0.07818438612617966,0.005407194391207146,0.052106585087115256
0.2858276,0.00033064293236347405,0.0031284942860246826,0.06525340781677418,0.08530584883814102,0.0375896963508514,0.07801082233920979,0.005397355291194103,0.05208828212068226
0.2862931,0.0003039046252299131,0.003077730731094867,0.06608126225586973,0.08463060633986037,0.03756490184289707,0.07783450280500724,0.005387579437746196,0.05206694620708113
0.2867586,0.00027806339445398765,0.0030271249506716104,0.06691383158284572,0.08395348392547616,0.037539705824901855,0.07765544441928449,0.005377872225810498,0.052042565804325584
0.2872241,0.00025314296544643627,0.002976687934435687,0.06775108469064886,0.08327459108386373,0.03751412831894698,0.07747366450689175,0.005368239102439866,0.05201512996444683
0.2876897,0.0002291672841014529,0.0029264308074104755,0.06859299008479527,0.08259403702130427,0.0374881896035521,0.07728918081645862,0.005358685566014431,0.05198462833981712
0.2881552,0.000206160513283617,0.002876364831005336,0.06943951589067589,0.08191193063684438,0.037461910209940684,0.0771020115150758,0.005349217165440287,0.05195105118936927
0.2886207,0.0001841470292094166,0.0028265014040279772,0.07029062986098703,0.0812283804979755,0.037435310918229915,0.07691217518302253,0.005339839499325666,0.051914389384706716
0.2890862,0.00016315141772364086,0.0027768520636646697,0.07114629938328702,0.08054349481663578,0.03740841275354551,0.07671969080854547,0.00533055821513484,0.05187463441609843
0.2895517,0.0001431984704709515,0.002727428486427158,0.07200649148767949,0.07985738142553644,0.037381236982061604,0.07652457778269385,0.005321379008319988,0.05183177839835272
0.2900172,0.00012431318096296678,0.002678242489065148,0.07287117285462333,0.07917014775481568,0.037353805106965746,0.07632685589421571,0.00531230762143121,0.05178581407656355
0.2904828,0.00010652074054120457,0.0026293060294432452,0.07374030982286948,0.07848190080902276,0.037326138864349205,0.07612654532452007,0.0053033498432048356,0.0517367348317227
0.2909483,8.984653423624317e-05,0.002580631207381229,0.07461386839752372,0.07779274714443601,0.037298260219022626,0.07592366664270936,0.005294511507630171,0.051684534686190844
0.2914138,7.431613652346457e-05,0.00253223026545654,0.07549181425823502,0.07710279284671775,0.03727019136025741,0.0757182408006869,0.005285798492994772,0.05162920830902022
0.2918793,5.99553069757578e-05,0.002484115589767854,0.07637411276750852,0.07641214350890912,0.03724195469745313,0.07551028912834369,0.0052772167209083265,0.05157075102112154
0.2923448,4.6789985813577365e-05,0.0024362997106586013,0.07726072897914238,0.07572090420976782,0.03721357285573134,0.0752998333288286,0.005268772155305237,0.05150915880026734
0.2928103,3.48462893527781e-05,0.002388795303399282,0.07815162764678732,0.07502917949245069,0.037185068671456,0.07508689547390518,0.0052604708014260156,0.051444428285923986
0.2932759,2.4150505350683094e-05,0.0023416151888274324,0.0790467732326282,0.07433707334354323,0.037156465187680725,0.07487149799939816,0.005252318704777624,0.051376556783904244
0.2937414,1.4729088250882138e-05,0.0022947723339441024,0.07994612991618671,0.07364468917243762,0.03712778564952301,0.07465366370073176,0.005244321950072963,0.05130554227083255
0.2942069,6.608654327300904e-06,0.0022482798524657054,0.08084966160324507,0.07295212979106087,0.0370990534994655,0.07443341572856184,0.0052364866601497416,0.05123138339841508
0.2946724,-1.8402327187653286e-07,0.0022021510053301203,0.08175733193489018,0.07225949739395461,0.037070292372584614,0.07421077758450267,0.005228818994869048,0.051154079497506715
0.2951379,-5.622019579810502e-06,0.002156399201155923,0.0826691042966786,0.0715668935387081,0.03704152609170749,0.07398577311694937,0.005221325149993949,0.05107363058196709
0.2956034,-9.678262965474607e-06,0.0021110379966536347,0.08358494182792271,0.0708744191267462,0.03701277866249856,0.07375842651699595,0.005214011356048526,0.05099003735229746
0.296069,-1.2325540386292527e-05,0.002066081096987891,0.08450480743109867,0.07018217438447444,0.03698407426847806,0.073528762314449,0.005206883877157732,0.050903301199050684
0.2965345,-1.353650273820258e-05,0.0020215423560894456,0.08542866378137694,0.06949025884478315,0.036955437265974715,0.07329680537393655,0.005199949009868465,0.050813424206006395
0.297,-1.3283670302366277e-05,0.0019774357769159587,0.08635647333627579,0.068798771328913,0.03692689217901549,0.07306258089111146,0.005193213081952223,0.05072040915310426
0.2974655,-1.1539438287696059e-05,0.0019337755116605232,0.08728819834543837,0.06810780992868395,0.036898463694154726,0.07282611438894897,0.005186682451189673,0.05062425951912861
0.297931,-8.276082468343518e-06,0.0018905758619069243,0.08822380086053286,0.06741747198908933,0.03687017665524504,0.07258743171413673,0.005180363504137461,0.05052497948413803
0.2983966,-3.465764915264961e-06,0.0018478512787306574,0.08916324274527533,0.06672785409125681,0.03684205605815217,0.07234655903355607,0.005174262654877545,0.05042257393163366
0.2988621,2.919460179034834e-06,0.00180561636274475,0.09010648568557392,0.06603905203577737,0.03681412704541541,0.07210352283085192,0.005168386343749352,0.05031704845046061
0.2993276,1.0907640583491295e-05,0.0017638858640894692,0.09105349119979217,0.06535116082640288,0.03678641490085543,0.07185834990308937,0.005162741036065099,0.05020840933643703
0.2997931,2.05269200201235e-05,0.0017226746823650206,0.09200422064912929,0.06466427465411242,0.036758945044130686,0.07161106735749359,0.005157333220808608,0.05009666359370598
0.3002586,3.1805532065270367e-05,0.0016819978665063608,0.09295863524811411,0.06397848688154702,0.03673174302524357,0.07136170260827027,0.005152169409318086,0.04998181893580588
0.3007241,4.4771793961378436e-05,0.0016418706145992677,0.09391669607520976,0.06329389002781186,0.0367048345189971,0.07111028337350268,0.005147256133953351,0.04986388378645609
0.3011897,5.945410034032638e-05,0.0016023082736368228,0.0948783640835252,0.06261057575364502,0.03667824531940279,0.07085683767212156,0.005142599946748081,0.04974286728005489
0.3016552,7.588091685930224e-05,0.0015633263392154663,0.09584360011162948,0.061928634846951255,0.036652001334040125,0.07060139382094315,0.005138207418047672,0.049618779261887944
0.3021207,9.408077375028553e-05,0.0015249404551697843,0.09681236489446451,0.06124815720869951,0.03662612857836812,0.0703439804317709,0.005134085135133325,0.04949163028804597
0.3025862,0.00011408225928422718,0.0014871664131451945,0.09778461907435138,0.06056923183918335,0.03660065316998915,0.0700846264085557,0.005130239700832981,0.049361431625050974
0.3030517,0.00013591401315106403,0.0014500201521076954,0.09876032321208467,0.059891946824643716,0.03657560132286554,0.06982336094460985,0.005126677732119684,0.04922819524919127
0.3035172,0.00015960471975675022,0.001413517757789868,0.0997394377981085,0.059216389324254215,0.03655099934148906,0.06956021351986971,0.005123405858697961,0.04909193384556656
0.3039828,0.00018518310143853181,0.001377675462072354,0.10072192326376724,0.058542645557469346,0.03652687361500367,0.06929521389820172,0.005120430721578787,0.04895266080684472
0.3044483,0.00021267791159972923,0.0013425096423000833,0.10170773999262342,0.05787080079173643,0.036503250611281776,0.06902839212474626,0.005117758971643684,0.04881039023173231
0.3049138,0.00024211792776532453,0.0013080368205325974,0.10269684833183554,0.05720093933057188,0.03648015687095466,0.06875977852329358,0.005115397268198493,0.04866513692316091
0.3053793,0.0002735319445596714,0.0012742736627278895,0.10368920860358868,0.056533144502002225,0.036457619001397656,0.0684894036936855,0.005113352277517344,0.0485169163861911
0.3058448,0.00030694876660765743,0.0012412369778592575,0.1046847811165717,0.055867498647370235,0.03643566367067144,0.0682172985092366,0.005111630671377369,0.048365744825636194
0.3063103,0.0003423972013606563,0.00120894371696473,0.10568352617749582,0.05520408311050626,0.03641431760142104,0.06794349411416817,0.005110239125584679,0.04821163914340727
0.3067759,0.0003799060518486157,0.0011774109721286764,0.10668540410265025,0.054542978227265025,0.03639360756473439,0.06766802192104764,0.005109184318492143,0.048054616935581045
0.3072414,0.0004195041093596396,0.0011466559753952304,0.1076903752294911,0.053884263315427776,0.03637356037396235,0.0673909136082266,0.005108472929509492,0.047894696489191965
0.3077069,0.0004612201460484421,0.0011166960976131792,0.10869839992826047,0.05322801666496979,0.03635420287850195,0.06711220111726982,0.005108111637606234,0.04773189677874983
0.3081724,0.0005050829074750727,0.001087548847211966,0.10970943861363215,0.05257431552869298,0.03633556195754453,0.06683191665036783,0.005108107119807925,0.047566237462483875
0.3086379,0.000551121105075333,0.0010592318689084692,0.11072345175638029,0.05192323611322348,0.03631766451379029,0.06655009266772588,0.005108466049686314,0.04739773887831468
0.3091034,0.000599363408564326,0.0010317629423442173,0.11174039989506707,0.051274853570373716,0.03630053746713033,0.06626676188492142,0.0051091950958439694,0.04722642203955509
0.309569,0.0006498384382745959,0.0010051599806527069,0.11276024364774452,0.05062924198886844,0.036284207748297985,0.06598195727022269,0.005110300920394021,0.04705230863034153
0.3100345,0.0007025747574303285,0.0009794410289564912,0.11378294372366568,0.0499864743864336,0.03626870229249071,0.06569571204186023,0.0051117901774357264,0.04687542100079739
0.3105,0.0007576008643591061,0.0009546242627937136,0.11480846093499825,0.04934662270224716,0.03625404803296432,0.06540805966524324,0.005113669511526573,0.04669578216193091
0.3109655,0.0008149451846427341,0.0009307279864737539,0.11583675620853419,0.0487097577897501,0.036240271894601474,0.0651190338501122,0.00511594555615168,0.0465134157802704
0.311431,0.0008746360632086912,0.000907770631361653,0.11686779059738713,0.048075949409816,0.03622740078745625,0.0648286685476193,0.005118624932191222,0.04632834617224047
0.3118966,0.0009367017563637793,0.0008857707540909795,0.11790152529266865,0.04744526622427752,0.03621546160027686,0.06453699794732844,0.005121714246386608,0.046140598298283396
0.3123621,0.001001170423771582,0.0008647470347048058,0.11893792163513386,0.046817775789807524,0.03620448119400853,0.06424405647412622,0.005125220089806076,0.045950197756729864
0.3128276,0.0010680701203753685,0.0008447182747244772,0.11997694112678552,0.04619354455215298,0.03619448639527862,0.0639498787850358,0.005129149036310369,0.04575717077742399
0.3132931,0.001137428788268107,0.0008257033951458906,0.12101854544242524,0.04557263784071962,0.036185503989865926,0.06365449976592459,0.005133507641019086,0.04556154421510738
0.3137586,0.001209274248511297,0.0008077214343630525,0.12206269644113985,0.04495511986350538,0.03617756071615587,0.06335795452809762,0.005138302438778318,0.04536334554256753
0.3142241,0.0012836341929043597,0.0007907915460187371,0.12310935617771002,0.04434105370238084,0.03617068325858311,0.063060278404768,0.005143539942630127,0.045162602843556374
0.3146897,0.0013605361757063749,0.0007749329967821172,0.1241584869139275,0.04373050130871466,0.03616489824106305,0.06276150694739697,0.005149226642284415,0.044959344805484865
0.3151552,0.0014400076053119948,0.0007601651640532919,0.12521005112980713,0.0431235234993423,0.03616023222041356,0.06246167592189615,0.005155369002593719,0.044753600711899884
0.3156207,0.0015220757358834038,0.0007465075335946694,0.12626401153467834,0.04252017995287598,0.03615671167976797,0.0621608213046859,0.005161973462031434,0.044545400434750054
0.3160862,0.0016067676589402481,0.0007339796970892172,0.1273203310781405,0.041920529206353925,0.03615436302198046,0.061858979278605654,0.005169046431173977,0.044334774426447066
0.3165517,0.0016941102949095024,0.0007226013496256346,0.12837897296086506,0.041324628652226573,0.03615321256302458,0.0615561862286735,0.005176594291187336,0.04412175371172924
0.3170172,0.001784130384637295,0.0007123922871105556,0.12943990064522695,0.04073253453567729,0.03615328652538543,0.0612524787376958,0.005184623392318502,0.04390636987933403
0.3174828,0.0018768544808647472,0.0007033724036079434,0.13050307786574677,0.04014430195227515,0.03615461103144583,0.06094789358172901,0.005193140052392217,0.0436886550734863
0.3179483,0.0019723089396699155,0.000695561688605875,0.13156846863932448,0.03955998484595711,0.03615721209686666,0.060642467725397706,0.005202150555313529,0.043468641985209014
