Time,Rectus Femoris right,Rectus Femoris left,Hamstrings right,Hamstrings left,TibilaisÂ Anterior right,TibilaisÂ Anterior left,Gastrocnemius right,Gastrocnemius left
0.0,0.09827540131971231,-0.012546004735767276,-0.023809791126591172,0.0022821616942406506,-0.016863368045880515,0.020224506807490647,-0.015006004137641547,-0.028223408873408826
0.0004655,0.08153970694363775,-0.01286180437782849,-0.02954617456858713,0.002707364264318293,-0.00872153560397802,0.03143898783837599,0.0008941674932456947,-0.02748457881471193
0.000931,0.0595804802887217,-0.01258110622863826,-0.03820051902770262,0.003154929159907523,-0.0031769711818803175,0.0420192521541777,0.029959155162824994,-0.0256049622863826
0.0013966,0.043534418547709404,-0.0121328787456502,-0.042545980836233205,0.0015783929909881965,-0.011264474215964403,0.0434790014745256,0.0481049950815712,-0.021523103565108604
0.0018621,0.033153257432287045,-0.011147313296316469,-0.04328517516094166,0.0007241870736195209,-0.022072721605739788,0.03444449806110843,0.04674092677725196,-0.01506777802432422
0.0023276,0.024494658244959305,-0.009811610131070923,-0.04411735469778919,-0.0005079535821498079,-0.028417783820268848,0.019020198706687773,0.02685641559933235,-0.009912522763631965
0.0027931,0.016742627687016225,-0.010272917019561486,-0.04746718298043852,-0.004679308469475663,-0.03262824894131554,0.0037384002522529037,-0.008724108893371312,-0.011689421254299318
0.0032586,0.011861571944135825,-0.010518771944135825,-0.047572413147753206,-0.012006464889382683,-0.03147829655419763,0.0007736613178884965,-0.025098664889382682,-0.016039104370098877
0.0037241,0.010862223786693147,-0.010883792709954947,-0.03925414009524779,-0.020302205229414318,-0.026661592709954947,0.0045319,-0.0030118437402703144,-0.015555323930765893
0.0041897,0.011066953578498509,-0.013345415377645676,-0.02627184429419821,-0.019091841391807755,-0.0175257092843003,0.006333520729351742,0.04019674929044408,-0.009455733946246271
0.0046552,0.008470728985001006,-0.0119173,-0.01636428931669921,-0.017445057970002013,-0.013416657970002013,0.003355326956920171,0.03788915925549073,-0.005219212835715723
0.0051207,0.00284870305228292,-0.010855032824619514,-0.014377534350760973,-0.010082393319986581,-0.0203098,-0.009705317938451218,-0.0030281938427381932,-0.016690554338105262
0.0055862,-0.0039019556324257597,-0.00961099223910266,-0.02393370408768815,-0.006330278657532314,-0.02838615951287443,-0.023092364234642532,-0.025820438170406745,-0.045894809958707136
0.0060517,-0.007827842782054183,-0.00939770668096652,-0.032757970153171806,-0.004614010459515413,-0.028218702803503963,-0.028475980612687215,-0.01798811303413965,-0.06939191196018105
0.0065172,-0.006359085499505662,-0.009017995308278673,-0.03559790263216771,-0.00358246734532722,-0.015755289765896636,-0.022646805435191097,0.008184007176605305,-0.07444482942631904
0.0069828,-0.008214711511169393,-0.011363002468893518,-0.02885541219138831,0.0014126084003267775,0.002821473438581833,-0.016695414622012007,0.02797224876555324,-0.07124465609569415
0.0074483,-0.010755253556942708,-0.009293036895224817,-0.01857107122124872,0.001568704125863696,0.012077526344804225,-0.023757088958156664,0.02212160081463236,-0.07416895030836329
0.0079138,-0.015099834207753626,-0.008799259475347824,-0.01098047735566668,0.006997555781710154,0.008573531584492746,-0.04273543247168535,0.010961462098608704,-0.07590548983980223
0.0083793,-0.01814825410758506,-0.011136818149370882,-0.017403111662123518,0.010689111662123519,0.003683052695320323,-0.058789581534971096,0.013582121380559784,-0.05612029865011681
0.0088448,-0.017216695265099672,-0.006953604734900326,-0.03392794968895236,0.011582211237131816,0.010526018939601301,-0.06493376508836655,0.03567825442385268,-0.018127444381434092
0.0093103,-0.01617948800852639,-0.007970429593178889,-0.04543675357612611,0.0067690933091271634,0.014185670406821112,-0.06401052805115834,0.0476535584153475,-0.021746749972361333
0.0097759,-0.01482709940039239,-0.009052340479686088,-0.04922344167890131,0.0008186640045981018,0.013103759520313913,-0.05589619640235434,0.0452192589207063,-0.04081530849015993
0.0102414,-0.012966762985710388,-0.010213382208573768,-0.04952397259714207,-0.00507621104286884,0.009324898568562851,-0.047351997137125706,0.04007095139663025,-0.04479451976907468
0.0107069,-0.008763917628312903,-0.0102388,-0.047732436126419815,-0.008472250434897004,0.013689359683950462,-0.05102890505942373,0.046634545263591426,-0.02847103635018351
0.0111724,-0.00670010810054147,-0.009498337484760958,-0.044195660040098415,-0.011897543745991527,0.023840517551322143,-0.06264731250801694,0.05914417875561186,-0.011937056254008472
0.0116379,-0.008642204931389643,-0.008092722690915146,-0.04247984968678006,-0.01435511820605657,0.022361976595931525,-0.06648430359179644,0.06115908583227094,-0.008312518206056569
0.0121034,-0.011256096847980965,-0.007366810590196328,-0.041757416238460694,-0.014639978819607343,0.01267165032788685,-0.05631634901633946,0.054521718557297864,-0.009758678468091272
0.012569,-0.013832753589968607,-0.008526851972992402,-0.04127267280077165,-0.015394274551099317,0.0054889278743649895,-0.029062237142198192,0.04467899872059211,-0.004100459961417716
0.0130345,-0.01621320962364976,-0.00837971303487862,-0.040636547594087566,-0.01395707139113134,0.007036913034878618,-0.005498358442128329,0.03500051137220199,0.0022092586183333337
0.0135,-0.018212955615016607,-0.008875340955297815,-0.03788317749384947,-0.011999944384983394,-0.00019358560785594047,0.008975119344039679,0.02058015472012422,0.0002573334686090071
0.0139655,-0.018330936660971908,-0.008754651839677748,-0.03311042186137472,-0.004849936364038445,-0.010221125837663683,0.015733677759516625,0.0030477518396777492,-0.008745870779914282
0.014431,-0.017978800812684593,-0.008234050406342296,-0.03043031392951344,0.0007446973441442679,-0.010583950406342297,0.016276674796828854,-0.004092246937801972,-0.014170334038775082
0.0148966,-0.009982006377697106,-0.0075532,-0.026286379525580137,0.0034979393543629164,-0.001560041337650977,0.01385898747813815,0.0020176932334916428,-0.020431751895840664
0.0153621,-1.1597886883044778e-05,-0.00748786845443003,-0.02453412058767141,0.001410726086745115,0.010438573777471268,0.01597382058767141,0.022536530312979027,-0.02827413246634483
0.0158276,0.005711376544090214,-0.00714409545632584,-0.025861111387711452,-0.0017076017646745305,0.016630256069030444,0.01693553850495813,0.03076154746031862,-0.03429418230393985
0.0162931,0.01272047770265516,-0.007655989096273682,-0.032885105658849154,-0.003508327787168105,0.014913889227339463,0.006233127956193993,0.017613983530530203,-0.04025403344601726
0.0167586,0.022818611919511452,-0.006824142408184127,-0.037002442356660684,-0.003276271126806898,0.00661783218883684,-0.009726318790053852,0.006489705015807904,-0.04441081363803791
0.0172241,0.03487572621804405,-0.005998021895276097,-0.03548445792731865,-0.002122568428293033,-0.0018969052160952861,-0.021308064792500962,0.0008926044603355843,-0.042848968497076846
0.0176897,0.04182351625986955,-0.005611995232905228,-0.033168527913376815,-0.0016079173140837373,-0.0052421374584557074,-0.024138569267224293,-0.0015519500054446728,-0.03744513179787924
0.0181552,0.040699669054592,-0.006328578508672052,-0.032482630945408,-0.0026511022903040757,-0.005393985672448035,-0.024834984511846493,0.004472810745663973,-0.029555777378969517
0.0186207,0.028600863103994928,-0.0058683658620541914,-0.033712363448216764,-0.0021693317241083822,0.0007315215417660343,-0.025658731460612063,0.0028914048276748533,-0.03909617801196684
0.0190862,0.01491479022396048,-0.007513517039934133,-0.035191612288184425,-0.004011295248250295,0.004226342389588745,-0.025759893509391143,-0.03468687835626923,-0.06226973450036145
0.0195517,0.009106712153547627,-0.007592468022785209,-0.03668374565944728,-0.011008028401004495,0.0036857786476479806,-0.02089089479133673,-0.07591927211669444,-0.07545460520866326
0.0200172,0.009271175054750573,-0.006645023799078591,-0.038092039615256694,-0.02522708247910767,-0.002655778274260786,-0.009972183256653352,-0.07616444611244526,-0.07496948477144934
0.0204828,0.0046775244070420465,-0.006866197384959781,-0.037136306973440586,-0.03767012919981568,-0.00822720121047091,0.005656264938698676,-0.034921628087860736,-0.07041721481856124
0.0209483,-0.005981126566871804,-0.007614340796362661,-0.03190519924910408,-0.03413110362285842,-0.012465844027280045,0.02305472676284232,0.013015536814549358,-0.041669920887296145
0.0214138,-0.01023243519161595,-0.007429962094644255,-0.028969872567865533,-0.025111553806056612,-0.011498740619095539,0.03214429640033338,0.030822693157487417,0.016147569497305073
0.0218793,0.0071971761079380175,-0.008493888039918226,-0.023417495853378118,-0.02593812265104827,-0.010463293371350692,0.02693463069137795,0.022054878646168573,0.040194984033804164
0.0223448,0.022874617841561584,-0.007452629038086102,-0.029142289783456298,-0.033073934647226536,-0.005805511551142699,0.009559299318721546,0.008902986460937762,-0.009342328058105288
0.0228103,0.034722431186092216,-0.007033824429617155,-0.02906026881390778,-0.03437820196677966,-0.003926087352477573,0.000278878087838488,0.01746439945861564,-0.05118471123606456
0.0232759,0.033519054348976805,-0.0066241362326512005,-0.030857009418371998,-0.02677340725711681,-0.006866336953069596,-0.0032362217617026147,0.045332492776520406,-0.054832218836743996
0.0237414,0.017927549666543995,-0.005049638325253875,-0.03789346449234989,-0.014841548999631981,-0.014028551000368018,-0.014230871165255931,0.07225417198212365,-0.03763669866617597
0.0242069,-0.003902355241955692,-0.005780314783713991,-0.04173339286005967,-0.00875018359276598,-0.020538184977328122,-0.034038572224036494,0.06177876694657407,-0.028565973918569958
0.0246724,-0.015348557727322614,-0.006669625313424373,-0.042354513409016074,-0.006407290537158337,-0.027377126976429828,-0.0569533130130786,0.01401377871194888,-0.02866507113633869
0.0251379,-0.0013436681490607244,-0.00601646904080013,-0.03853538170907552,-0.005758097608509292,-0.03452631577058795,-0.06102012620225432,-0.04823836339211518,-0.023356166649309423
0.0256034,0.01920221616695406,-0.005408228852037321,-0.0327393721300933,-0.007274113443888036,-0.03863365672194402,-0.051162509949046295,-0.08497639824609367,-0.012654085573981339
0.026069,0.03042675753180419,-0.004133574097273391,-0.029858036518975697,-0.010918028237840827,-0.04020902462693439,-0.04448742229022044,-0.08733339660716352,-0.013291412951363305
0.0265345,0.03599051686469258,-0.0041962,-0.02707224156765371,-0.01288799382425972,-0.043088758432346295,-0.045966429216173145,-0.06799209161377318,-0.0206767777447118
0.027,0.038574253365871974,-0.0038573014847630063,-0.020215132221568635,-0.012512047881623158,-0.04480587530694065,-0.04740022742531749,-0.02670766491767302,-0.02625122742531749
0.0274655,0.03639740921752668,-0.0054647365219083555,-0.010045109217526684,-0.011119197782667924,-0.04254016347809165,-0.046135926980756116,0.014528636521908354,-0.028172809217526684
0.027931,0.030497557044662543,-0.005196217690938218,-0.005295370017803176,-0.009924346927185348,-0.03985112309061783,-0.04715143538187644,0.027733345129118875,-0.030652659218443956
0.0283966,0.024780754863486965,-0.005164639716756093,-0.004220685098390328,-0.00972204113297563,-0.038681704248658605,-0.04560308084973173,0.01719893688431702,-0.03333885461836576
0.0288621,0.016693217828778358,-0.004539511896251328,-0.0023632202515723637,-0.009235505948125665,-0.03976127025937168,-0.038185529725029685,0.006007908184398238,-0.034571191644678964
0.0293276,0.012845266704951404,-0.006240473944662629,-0.0026037149827718687,-0.009731170034456263,-0.04481296209918932,-0.02862856562090048,-0.016884578358218414,-0.03281111606682279
0.0297931,0.010241175808829587,-0.007215124191170414,-0.006312375310595632,-0.009225802203569191,-0.05742627921950006,-0.027263414211478335,-0.044838817123914854,-0.03165643740618084
0.0302586,0.00991195645423654,-0.00771002877265307,-0.00837257231841653,-0.008226814773110389,-0.06849088514284477,-0.03663722441379881,-0.06037661819030725,-0.03239047177288173
0.0307241,0.010231326142840566,-0.008377552285681135,-0.011838825613000988,-0.007568147714318866,-0.07669188938641887,-0.036759,-0.07831771393974069,-0.03108199542863773
0.0311897,0.012728761411295668,-0.00891449422885411,-0.012887411542291779,-0.006826317313437668,-0.07477529406644813,-0.024306724812697456,-0.09435395555894678,-0.02713746925375067
0.0316552,0.01182160598405799,-0.009373918272999483,-0.01190693694785768,-0.006173356961142493,-0.05893406243639993,-0.012508992891399067,-0.08615410609099983,-0.02339736852739976
0.0321207,0.007438888960174616,-0.009245371705382182,-0.02938727170538218,-0.006421324390934935,-0.03721057304782871,-0.004622825359772571,-0.055999215912345905,-0.023392201093813726
0.0325862,-0.0006535178904138557,-0.00948477868024796,-0.059712989340123986,-0.00842072385739642,-0.02316054263950408,0.0018956924483064291,-0.02563437461913214,-0.031036665543967126
0.0330517,-0.005741222225211452,-0.010467891817020084,-0.06938405592656714,-0.009435692978884233,-0.01976079578733054,0.014239266298644315,-0.012191796029689545,-0.04039226678336232
0.0335172,-0.0018822943936741502,-0.010841769414087774,-0.05820798394557365,-0.010933010195304075,-0.020987646134745734,0.021590615548833507,-0.011920479862188268,-0.04502099175773668
0.0339828,0.004696235298077278,-0.009870232940384544,-0.048245463523076355,-0.011180165880769088,-0.02633824119230911,0.024901499590493644,-0.0142672,-0.04809993647692364
0.0344483,0.006109508457751083,-0.009587578308449784,-0.04598422646759826,-0.010614856616899567,-0.03199133383100433,0.021085704158664204,-0.0142672,-0.050361173532401736
0.0349138,0.003845749367824561,-0.00958215063217544,-0.04111389241389472,-0.011286463139984382,-0.03816817784478947,0.008693055689578955,-0.00936089114954385,-0.05050243053826123
0.0353793,0.003394161972336496,-0.010193230672814111,-0.03408852149113046,-0.012921318416657864,-0.04053069874658346,0.015024412882864522,-0.00112475587090365,-0.04269980980261371
0.0358448,0.005687007347292722,-0.009180976828811442,-0.02134798887487743,-0.01384569830447091,-0.03930048230217038,0.03459679265270728,0.0014873764730443894,-0.027819869869332724
0.0363103,0.007336829490892367,-0.00825490604574595,-0.009127523531980607,-0.014531599956582906,-0.041824804917281334,0.03346640034721014,-0.010957552632245737,-0.03513732383577366
0.0367759,0.013858502244404443,-0.00807242440324889,-0.00014904114361842394,-0.015755995511191116,-0.040291284289168894,0.006704455682311104,-0.02925895329530667,-0.05009743319553908
0.0372414,0.019493811955510244,-0.008560447359183673,0.009904354077857072,-0.017719546964778943,-0.04028291658891161,-0.022323078242704117,-0.043233677735051004,-0.04203303357222796
0.0377069,0.026730156658522457,-0.0078700244857198,0.006955044395812417,-0.017189608220174627,-0.04065678366690293,-0.035624933720529016,-0.04148687449964561,-0.012799889778407807
0.0381724,0.028753310194678822,-0.006371918448266,-0.007625288264750922,-0.01711853948275533,-0.03605806288431296,-0.03238428043714039,-0.022128479322546774,0.007684947379306401
0.0386379,0.029348696263148493,-0.007410303736851507,-0.022997787664330666,-0.013682388424879297,-0.03635385079788295,-0.022975773112907088,0.012736471591809824,0.00029942056992098053
0.0391034,0.029452810297046803,-0.007591202019554594,-0.030820905553775133,-0.012272001009777296,-0.033085301009777295,-0.019931346312972057,0.027612780614957526,-0.016395406058663783
0.039569,0.032590093583650344,-0.007090968640415688,-0.029130269940367975,-0.013094825438337248,-0.028470225840762097,-0.017708554239722875,0.019429231359584312,-0.03946225464214772
0.0400345,0.03725235515726474,-0.007388694486866287,-0.01972571817710407,-0.012309883648898281,-0.024989210314529473,-0.014196791023161001,0.005881550355868976,-0.05931782849163355
0.0405,0.0406511532623956,-0.0076850849533499155,-0.0069580918775546535,-0.015272617836422387,-0.024401319187204975,-0.009010437816331979,-0.0031972748399593394,-0.06822690493325952
0.0409655,0.042022280947417924,-0.00591786710667946,-0.0014776201769226818,-0.009679634477366595,-0.025698166842671784,-0.013582848582112735,-0.01573317903105429,-0.06303791720452834
0.041431,0.04024317504906331,-0.0047951793926204024,-0.0014165325932202863,-0.006515620117751941,-0.02045085300434665,-0.02155852880486613,-0.0234009481711619,-0.034503167406779715
0.0418966,0.03499847532458649,-0.004059531298017183,-0.007850925029507863,-0.009193725029507863,-0.012328949940984274,-0.03035487449836633,-0.01342866893804572,-0.020800381593095812
0.0423621,0.03356530945469473,-0.003930176698319148,-0.02193294342721541,-0.014505231540230475,-0.005183379645337517,-0.033320302245601424,-0.007935716378187789,-0.03741552503255412
0.0428276,0.035933599285450445,-0.0024736703968351688,-0.03403495126962629,-0.017800318412659326,-0.0032056368253186506,-0.03104935300572491,-0.02101984140766936,-0.060656900306999516
0.0432931,0.044644706568073796,-0.0021959377317597823,-0.041468847273690365,-0.01914813240440646,-0.005817671623094633,-0.027500029863833757,-0.031893291078429656,-0.06552142180883157
0.0437586,0.05382232886392616,-0.0032854157611775293,-0.05509121724543952,-0.0208244370215033,-0.00912510729350531,-0.024428782200583733,-0.026734145489175517,-0.05148990667331515
0.0442241,0.05839723989015749,-0.00235801510193203,-0.06790382914580402,-0.022555908926119004,-0.010453773942102491,-0.022461751692571,-0.01662387766484503,-0.01953872106613305
0.0446897,0.05665307243593974,-0.0006659745987391993,-0.0629941690867297,-0.022349769116159546,-0.00942381879113026,-0.020219117131240163,-0.009272682927619522,0.022357326021889532
0.0451552,0.0496395725881397,7.909327728955966e-05,-0.043154638016897645,-0.01916360640711227,-0.008402039873760732,-0.02118382009467945,0.0003380742872037049,0.03271078769589865
0.0456207,0.03693869316762224,-0.0003079004651602087,-0.02217103792265117,-0.013650621921149646,-0.007247956622860915,-0.024167544726493198,0.009555606832377762,-0.0009762557101312772
0.0460862,0.024318252580127535,-0.001354569094407745,-0.0215269942331826,-0.014170231208873422,-0.005110021977816446,-0.02753348534812237,0.0041962,-0.03747519362662026
0.0465517,0.01637249514477756,-0.0015974823376016952,-0.03199678543433268,-0.017232832231644096,-0.004881093594622832,-0.03229705805791102,0.0030710322388010363,-0.029562537086866538
0.0470172,0.011871940153660877,-0.0013834857291568242,-0.04479761697829079,-0.018395323178840014,-0.005439157149301291,-0.03655030000346993,0.004386876810750209,-0.0025086911093527894
0.0474828,0.008972444126961361,-0.0008680880366859813,-0.05399235879226041,-0.018566097298014977,-0.003088618088184504,-0.03925906039508476,-0.012170673669135424,-0.0019820681284403742
0.0479483,0.008286087731511235,-0.0013347681019292073,-0.06192906383706654,-0.02075617425346544,0.004203536162933458,-0.04048729750537729,-0.055426496903769405,-0.020358990185208987
0.0484138,0.00917774930734147,-0.0016844009292716188,-0.06277245078706298,-0.023810306960946773,0.009432943181261874,-0.04352148880298502,-0.104201451590462,-0.031641173244029236
0.0488793,0.015847844323904167,-0.0015106,-0.054052856663242936,-0.024952949259639673,0.01208334777891902,-0.04250360049357355,-0.10046990345501486,-0.045347945003374725
0.0493448,0.03163095556871703,-0.0017136717214583398,-0.032020953855265634,-0.022245576993453114,0.018660224412129008,-0.03987284443128297,-0.051910469568497083,-0.06819734928606193
0.0498103,0.04143595239109716,-0.0032291661505402212,-0.006560835411728268,-0.022176178411307364,0.031293858462364946,-0.04052998461469588,-0.01997916159585549,-0.06995119082703796
0.0502759,0.042577266424190886,-0.003747247852659103,0.005583255745187975,-0.024024219574378593,0.037912697022052196,-0.04053897613093961,0.004087104294681794,-0.03531323996013023
0.0507414,0.029842998526066044,-0.004449588642526374,0.00436377857586967,-0.02558319453639934,0.03674646175479539,-0.041678630016853076,0.04858859106856346,0.0003506799582451097
0.0512069,0.014084525170429761,-0.005555301267791718,-0.0038864807678607683,-0.02391427189331874,0.027183138930734055,-0.04315145395883006,0.07145663549816812,-0.006975033147989298
0.0516724,-0.0005525269131533219,-0.006794458395745588,-0.014040818327263598,-0.01865030951916616,0.01521558350975682,-0.04477471375782465,0.056345466718265645,-0.03925625037447352
0.0521379,-0.022909933287048868,-0.0074233989869293615,-0.008764919387195539,-0.01600325497199149,0.011297671549139719,-0.04394868825904036,0.05174588070921666,-0.03912936896825702
0.0526034,-0.044430695866916274,-0.006301323290237041,0.0018637699888751221,-0.011899409426855951,0.01677874140486585,-0.03998809277635707,0.0822309476229986,0.007764516184758109
0.053069,-0.056455446832457686,-0.005564612237355559,-0.0010728178948405057,-0.010261446342885713,0.024386358580241272,-0.03798350810534483,0.10311475844414465,0.0176491489268422
0.0535345,-0.04828250482647502,-0.004298880551208255,-0.020066790381707052,-0.011026848157422388,0.025605602968247123,-0.04052052205858482,0.08897730389736107,-0.018178949803444432
0.054,-0.025324517487938753,-0.00586227260776357,-0.03959545815772635,-0.010455132870683715,0.021777658277615502,-0.04395623349248888,0.04592931064599199,-0.03518742665054212
0.0544655,-0.006809736154680232,-0.006018827690639535,-0.040019316928081396,-0.011288188004410967,0.023331,-0.04412097308526237,0.002553137555624259,-0.016497587958169347
0.054931,0.009100108666782855,-0.005549894435661791,-0.03230209841018908,-0.013107187038414314,0.024383096179827087,-0.04171118131972173,-0.03420170794905459,9.350389735010328e-05
0.0553966,0.018693617071296114,-0.006220786436379667,-0.02648644330827514,-0.022131112726729477,0.023924503274134385,-0.043509350980346945,-0.04032520512808671,-0.0023196195085396424
0.0558621,0.023308580082551444,-0.0067890885596355085,-0.02461623432109348,-0.03074485041596336,0.017657454357020166,-0.04568373974379049,-0.010377109217904171,-0.010092951302633121
0.0563276,0.015707734260176427,-0.007600120119579658,-0.019019489723159116,-0.039289321315376234,0.009636097608406844,-0.043260090867729487,0.008556948834875304,-0.020811389012690855
0.0567931,0.002030525474205448,-0.007895041458895831,-0.011133268252017282,-0.04239220981031782,0.003670135505921317,-0.03564545861490352,-0.003725402538427303,-0.02802465976061547
0.0572586,-0.018739022055224208,-0.009846236508771795,0.006058335078799603,-0.04092668560828573,0.005247642865976189,-0.01696870781809325,-0.023229534955132962,-0.03320558560828574
0.0577241,-0.034099038074228614,-0.010042111256509908,0.025532264961511304,-0.03555943542405719,0.014337734540666721,0.007142643602137694,-0.01859927141550035,-0.029407794927223403
0.0581897,-0.05405447645779261,-0.0068818,0.03493335343438649,-0.033766200308163144,0.03244515619987837,0.024275795799193863,0.009550112845686486,-0.025077890057571987
0.0586552,-0.07001850994179706,-0.0067438933074653595,0.027938226964148365,-0.032627169980599016,0.04023309298658449,0.01873115978505983,0.011641486614930719,-0.022890089998470618
0.0591207,-0.07864537927456247,-0.0068818,0.011985627516650412,-0.033161653543446246,0.040573901924312455,0.008010735270019519,-0.008026477350250008,-0.02592124645655375
0.0595862,-0.07423692084198172,-0.0068215515089858625,-0.00500955462869086,-0.034318727263478795,0.02447815131620905,-0.00812556066463431,-0.03983187291860829,-0.027389524245507068
0.0600517,-0.04896882892679337,-0.007497317262048285,-0.01123479026624067,-0.03255811570717348,0.010490111570717348,-0.015577061801987396,-0.048009484292826525,-0.0276951
0.0605172,-0.004266273070727879,-0.006226877448442477,-0.028759865172282253,-0.026245208003884263,0.0036473427261633695,-0.014434020896630647,-0.03578176445025745,-0.028144072137825802
0.0609828,0.03845616567893407,-0.006434454889803323,-0.05764774963267774,-0.01617013722450831,0.005409071545574241,-0.013894539853071097,-0.029185751711481363,-0.03920201503673222
0.0614483,0.0649092160120041,-0.005853633044346315,-0.08021157910340575,-0.008140332177385263,0.00919002318551228,-0.014581833044346315,-0.02980387795894673,-0.05704837910340574
0.0619138,0.07970615950696074,-0.004925293724798231,-0.0842551188256053,-0.005654387449596463,0.013767565378934208,-0.016722025100807076,-0.021175197278925393,-0.08594684015737308
0.0623793,0.08894138635861695,-0.004564274281633576,-0.06683539869093397,-0.010392211493862791,0.012582671408167878,-0.017862777155099274,-0.0078734455469766,-0.10635271738361904
0.0628448,0.09585306181704686,-0.0049010854511406104,-0.041671720012484426,-0.01766884726818748,0.010210895457382824,-0.016261865988933467,-0.0005369854511406105,-0.09218437975326646
0.0633103,0.09485580947040541,-0.006686799975193076,-0.03424659997932756,-0.020537290347677147,0.007731554735202703,-0.015252654859237326,-0.004792690608149854,-0.05500600005788282
0.0637759,0.08727777335594475,-0.007888059154488116,-0.038959623135995027,-0.019013395572620787,0.0032785420846905004,-0.015224541045331675,-0.005684913481957434,-0.03081133609827305
0.0642414,0.0745527229386551,-0.008406005608799285,-0.04984295429050912,-0.016135348862016854,0.002022959886820715,-0.016415081345610177,-0.004130234324072987,-0.018625425923361753
0.0647069,0.05531332563936951,-0.007570532003947651,-0.05610172211049051,-0.01025075325572534,-0.00047968316573577234,-0.01658244631491825,-0.0002382340978848681,0.00441495896130804
0.0651724,0.04033116663516176,-0.007705546978576714,-0.057721419322508745,-0.009035940139750788,-0.002909228983763118,-0.016312496779581877,0.0031360948868589004,0.00873415152668999
0.0656379,0.02722250671266433,-0.008959181517231846,-0.0538796,-0.010606090758615924,-0.0062104,-0.016176097471280255,0.003985598079365058,-0.023126929729301957
0.0661034,0.024847845517107323,-0.010251191034214641,-0.046271662953469704,-0.010165516771258086,-0.009276421930793177,-0.017405432552099503,-0.000596723091105809,-0.0647971181245429
0.066569,0.027194894483621657,-0.0119173,-0.03898037783530546,-0.002649083115273187,-0.016505489676475162,-0.01764726727537001,-0.004877317666013205,-0.08481662744466227
0.0670345,0.027237658284531483,-0.011876719428177161,-0.032146846116729834,0.008141618291431157,-0.02826322800551974,-0.018870119022776043,0.004167698131909109,-0.08765239681494204
0.0675,0.025225127337393387,-0.01105828870016761,-0.02515558657207696,0.017753777096619735,-0.03620916858425712,-0.019523827515225207,0.02113278227892789,-0.0903336161264769
0.0679655,0.02396046384482516,-0.010301859612062893,-0.011980204232762264,0.024117724426730817,-0.038752656562653164,-0.018683930952569813,0.034399251360048136,-0.08364671603114701
0.068431,0.023910168361531654,-0.009440127007124233,0.0062067053523312855,0.030076346706738706,-0.03470607031671012,-0.01568745936657975,0.0323736878345207,-0.038588730404277044
0.0688966,0.021616301837160283,-0.00841708717141801,0.01825931457874838,0.03974522917286006,-0.02668151191000185,-0.01634626815839341,0.01625737649643188,0.03691974824215196
0.0693621,0.01732827210358612,-0.007197613948206939,0.007725088786569865,0.05957891689270708,-0.021423910404379798,-0.011641258155379183,0.0019472089321297286,0.0860844510677249
0.0698276,0.018735841122566755,-0.0065551906501348685,-0.02012929239931444,0.07039243455094407,-0.013495151501494773,-0.013677615851213817,-0.011536800804315793,0.07304815179651586
0.0702931,0.02244247522178354,-0.006894131194554115,-0.03756880088713416,0.07264787201361471,0.0025026110584069894,-0.01664176238910823,-0.022170184201353672,0.02553568708566761
0.0707586,0.019170735423007217,-0.007509374406587132,-0.02465713101069273,0.07117550237365147,0.019506923219761396,-0.0179599,-0.032965120511121465,0.0001389660989024655
0.0712241,0.014720363081415479,-0.0072175,-0.008802469892035205,0.07299771075575356,0.01713481827256329,-0.0179599,-0.04055246455009646,0.0016520053419387464
0.0716897,0.012811060188333428,-0.0072175,-0.00798419722357147,0.07872561943499971,0.004042455577143507,-0.0179599,-0.044370989085871476,-0.0029847918623000093
0.0721552,0.009340045415389806,-0.008103496704893689,-0.019997521633547084,0.08736658236899554,-0.009886165893463994,-0.02312817012435603,-0.047769022349645626,-0.01740541504333446
0.0726207,0.00628029865220044,-0.00764333303382232,-0.033859119714371416,0.09514107011104332,-0.01652236921251028,-0.03095507704799665,-0.04613826561837812,-0.02889351836657185
0.0730862,0.010270740875329256,-0.0069132567521374986,-0.04059878186918398,0.10513699762746676,-0.018484059271348597,-0.0358775395142324,-0.027485192120858617,-0.03087352882252421
0.0735517,0.01943401355614827,-0.0077829954635644065,-0.0344677034046414,0.1108611268848212,-0.017142716960789672,-0.03568990453643559,0.002280488426806272,-0.025418279407093593
0.0740172,0.02510123459646459,-0.006973337903742039,-0.0334858360522331,0.11601443467380573,-0.012115510085549371,-0.03345532927396118,0.007110827818192669,-0.023941313711226115
0.0744828,0.027011625528952494,-0.0055336906684166146,-0.0395073856108115,0.11882329358718381,-0.006925275046329283,-0.03031114406980703,-0.017304433174667507,-0.02603930349404898
0.0749483,0.025983357123752052,-0.004897502572781387,-0.04714924973355648,0.1186544531673735,-0.006270205145562774,-0.027934320582251097,-0.023799862597463417,-0.023447269987658986
0.0754138,0.022721827871644288,-0.005234413935822145,-0.054814808367567434,0.11698467721283556,-0.010586945574328857,-0.021205218484244382,0.0026172645946308617,-0.00521607422753296
0.0758793,0.01987551316297957,-0.007627012797935798,-0.05569536948580838,0.11425323824152922,-0.016795555724546656,-0.010140213162979571,0.020362381168140077,0.005588558168520467
0.0763448,0.017002483945710203,-0.008199801649361401,-0.050939733048079756,0.11573374087682449,-0.019124554739053064,-0.0014095927139550967,0.027113648705569215,-0.005626293027015986
0.0768103,0.015323631751078825,-0.009189357524631485,-0.04275576015593849,0.11091669757958812,-0.026089939381157872,-0.0008278544304208431,0.02555124505372868,-0.03127647989901815
0.0772759,0.012556243537267937,-0.009237109410455344,-0.04420390190362646,0.10060152167815979,-0.031041281179089313,-0.010346988209106876,0.0042535260545076186,-0.046594274899115024
0.0777414,0.010760413788461935,-0.009536414368589678,-0.047496167284641774,0.08533705797177113,-0.030442671262820645,-0.016333087371793554,-0.020438999253881387,-0.05213146120383138
0.0782069,0.013180097765765444,-0.008916000558558639,-0.04099740288593236,0.06616911210214989,-0.025169504468469113,-0.01727849972072068,-0.024460997253776384,-0.061335694088564714
0.0786724,0.017047227818308287,-0.00816164812112781,-0.02826153684789466,0.050952607132563964,-0.017739568423947333,-0.015321509221048775,-0.004793992101586434,-0.07027626276918053
0.0791379,0.017860393784482738,-0.00761953747701151,-0.02446676233908057,0.043092083536196674,-0.015842181169540285,-0.015728051832476476,0.007403416647711246,-0.06404207110516213
0.0796034,0.017414572094314358,-0.007625757552006793,-0.025517856058051323,0.0290774721626603,-0.01130893604715718,-0.018711567119087863,0.012472149410535253,-0.04224527383494987
0.080069,0.015136193657912536,-0.00851886946870076,-0.027083547452898236,0.014133341179556622,-0.002724503490039032,-0.018985414178944997,0.009346429852660059,-0.03245474471024423
0.0805345,0.010384589365348437,-0.007250154948795667,-0.029296912924784337,-0.0034288835334277397,0.0015911794677571042,-0.020221546604276882,0.0009274533957231179,-0.03517828656062075
0.081,0.007143946086393254,-0.005670073043196626,-0.037700563478401686,-0.014999905592696218,-0.0024521634784016866,-0.020440695929711795,-0.0009373325494995909,-0.02645060478239747
0.0814655,0.010924671372591864,-0.006341663221322179,-0.036474460238069224,-0.019952075812470545,-0.011818745063087307,-0.021491974818052893,0.006538762226904527,-0.0037546181582348726
0.081931,0.016641154697514732,-0.00700985488336607,-0.027543345674187945,-0.018271888650272464,-0.019826052790909002,-0.02035789748774791,0.016624881395792414,0.0006271372565075188
0.0823966,0.019749712863745113,-0.00550107201028609,-0.02387207806927683,-0.019818355526983085,-0.024943328442158647,-0.018619594393454,0.020853699095110527,-0.029841643115682707
0.0828621,0.0213169,-0.002686289032981441,-0.027334048938748752,-0.03664486666866559,-0.025416818985865095,-0.0182956,0.01669167511779086,-0.05717761010046433
0.0833276,0.021250054027254,-0.0006858071983981812,-0.031527568852105274,-0.05472870042805491,-0.026221647412924348,-0.018371560427556194,0.008823077120640727,-0.05385676432003634
0.0837931,0.022682765648711082,0.0008276171756444589,-0.031028934351288916,-0.07291614789928859,-0.026320448095609718,-0.019985682824355543,-0.0023152024800887224,-0.04295776622248912
0.0842586,0.02393603386104149,0.00020098306947925434,-0.02977566613895851,-0.08576214707567528,-0.02459725096988315,-0.020612316930520746,-0.009521494700988575,-0.03324493757692844
0.0847241,0.021938606332846,-0.0005692566199147317,-0.030298980427324537,-0.0949926783677239,-0.02376885555160339,-0.019760979359013196,-0.015210223845920828,-0.012976393513109908
0.0851897,0.010545439387714111,-0.0030176612150390964,-0.03315719628192082,-0.10221170911542447,-0.021390827509120237,-0.019194821948928128,-0.0036690162332795677,0.006262519633055483
0.0856552,0.0022531059323820744,-0.002243061568629242,-0.03847820771241949,-0.1071034558977006,-0.018254892287580503,-0.01645937995965927,0.021815059657865107,-0.0017146870088320103
0.0861207,-0.005662618817370516,-0.0026019740280968434,-0.04087027791570947,-0.11388951430906527,-0.016743511042145266,-0.016470274783016773,0.030370939765273497,-0.017461223841370693
0.0865862,-0.0018010992449878868,-0.00317866881751313,-0.039101945878342086,-0.12020186448094813,-0.017631154121657912,-0.01661536095170336,0.014018425484959591,-0.025416644412763624
0.0870517,0.012222239399322295,-0.005660976567173178,-0.03506694704809187,-0.12717371084393675,-0.01628317734843072,-0.017725845120700332,-0.007526094096183739,-0.026674447048091868
0.0875172,0.024796720548182754,-0.00897579189827675,-0.033234668956457276,-0.130669486951578,-0.012253,-0.01950009129631427,-0.009079857111960259,-0.025787291310527486
0.0879828,0.026444631639559808,-0.011848862320203164,-0.03449818744006772,-0.1326677089455974,-0.007779162799661391,-0.022748687440067722,-0.007413080440914244,-0.026239318600169304
0.0884483,0.022767299390120642,-0.013546092589175088,-0.03506393086305836,-0.1330919743812182,-0.0049504456847081855,-0.023314430863058365,-0.015050616651287898,-0.027653677157645908
0.0889138,0.020604098836575553,-0.01456748169111408,-0.033513335492665774,-0.13319807633822284,-0.003447189294217473,-0.02385395267644563,-0.018452514933567726,-0.02870389352200267
0.0893793,0.021860757026583855,-0.01581912443996451,-0.03252147556003549,-0.13459304294410723,-0.001679367413380655,-0.02546994073327418,-0.008527282280461387,-0.027863867413380657
0.0898448,0.0272487537927238,-0.016999310774869474,-0.03152558689668572,-0.13666515793112383,-0.0026932804298408983,-0.02444290137946667,0.01204924206887619,-0.026852927586095237
0.0903103,0.031930503415259916,-0.018789432531223373,-0.02987320467696709,-0.13556356978464473,-0.006961975515772738,-0.02251512212312827,0.013150830215355274,-0.028229912769194093
0.0907759,0.03754488571300668,-0.01969794326431944,-0.025992151429594657,-0.13320211061217183,-0.014537311427804008,-0.020254847097129287,-0.004406768163484569,-0.03232931142780401
0.0912414,0.04194579404671686,-0.022749441234504387,-0.019633645715049573,-0.12943069393709747,-0.021212874227966114,-0.017732935171601853,-0.02153900791218447,-0.03655097662534503
0.0917069,0.0424659,-0.024084565971729692,-0.018340201042405465,-0.12693982372791898,-0.022846288758327792,-0.01687063402827031,-0.026307698957594536,-0.03717686597172969
0.0921724,0.039083723504619194,-0.025260511771467493,-0.011964177690020353,-0.12177844114266254,-0.024546771861760297,-0.012619982323640862,-0.010084679704467008,-0.042964870628804955
0.0926379,0.032233154462086536,-0.02436419316931298,0.0034647574851352247,-0.1164499658465649,-0.02385634301230012,-0.007674968123460572,0.021196809788427667,-0.054917982282269955
0.0931034,0.026953552682232765,-0.0229953,0.02759156928055449,-0.10694838640310617,-0.020528587803721274,-0.005211645850419568,0.061176498904112364,-0.06510634048595404
0.093569,0.026251983903798418,-0.022877619734323798,0.04398747739746772,-0.09783008037334205,-0.01904546130126614,0.0004946304353013545,0.07868709987608141,-0.06103857397467723
0.0940345,0.027768885794071305,-0.022119244099578092,0.042976209470619135,-0.09441701346503269,-0.019551095264690434,0.009090332503123643,0.054669561923818104,-0.05092589470619131
0.0945,0.030008587856538167,-0.01753691795244569,0.028760638352085484,-0.09328770194364194,-0.01852915097182097,0.023185005338046773,-0.041794774262313435,-0.027315828628539235
0.0949655,0.030460721043447332,-0.014550342484483095,0.01483157777550146,-0.09287506470898163,-0.008361443727163282,0.023874560521723667,-0.12396817304463285,-0.015037080322490811
0.095431,0.028050372000799816,-0.011839035310678998,-0.003541291101944512,-0.10361554254774971,-0.0050962439271915305,0.0063689003559510545,-0.1179605897668651,0.0033003468932100272
0.0958966,0.028077874360519308,-0.01105071955291111,-0.006656526999883928,-0.10886344591513966,-0.012134166343091987,-0.010412294551085794,-0.05087290289099143,0.008872320275658969
0.0963621,0.02688348743634514,-0.01126445338199895,-0.0037706295683004663,-0.11304861856833537,-0.025001816566775196,-0.02480114693944803,0.008134554843176933,-0.0007902881956625327
0.0968276,0.02414943880574296,-0.012157660310123036,-0.0012940746123462062,-0.11676834135605434,-0.03199373558895041,-0.036059735806603245,0.037203812085126825,-0.007154046674381036
0.0972931,0.020284433605697053,-0.011698084959039953,-0.0032402568510388747,-0.12088694753426595,-0.028884861191906978,-0.0418976618269437,0.05264080995180965,0.0020779900481903493
0.0977586,0.017508685444094594,-0.010950234259181107,-0.002803357176023617,-0.13095559745462199,-0.01841028243438596,-0.04420977173192902,0.05984296062175574,0.010655397658480168
0.0982241,0.016253125568957964,-0.009250547967671956,-0.007559515461830753,-0.14939396858933088,-0.012183813673006522,-0.04304946412315487,0.046305897322648226,0.00841290267735177
0.0986897,0.016260408862985385,-0.008277080969009141,-0.032121388702819616,-0.16321203418340433,-0.015945541807766115,-0.03558428728835083,0.026625653104946495,0.004804784781190033
0.0991552,0.016194147403075235,-0.008647552596924764,-0.07538171344355415,-0.1636566951353652,-0.013441995464579942,-0.02068611623997806,0.01868823668616144,-0.0015638415507962346
0.0996207,0.015621958478080249,-0.009219741521919752,-0.09640952860223945,-0.15707652249792287,-0.0014260280396852204,-0.013247660215043231,0.021263086848638882,-0.010718864350716022
0.1000862,0.014932234096269812,-0.008870536385079248,-0.09565649329112826,-0.13768155682773384,0.007064720206782831,-0.011739852092558387,0.00866513646432063,-0.02436356361492075
0.1005517,0.014636603038972226,-0.007429613265433129,-0.0760077803359332,-0.11256517729696097,-0.0016032114125544873,-0.011313312771695984,-0.02165668488168823,-0.025051720824589015
0.1010172,0.01531600282027892,-0.005545668292824157,-0.056051749544107875,-0.09309061181359438,-0.012618455334364594,-0.01248947317052457,-0.03511772515367567,-0.01608792195138899
0.1014828,0.017254709107368538,-0.004765900839475836,-0.03462689586605365,-0.0822259039314041,-0.02063379330125633,-0.016150408221522892,-0.0314138945921865,-0.010845399409436235
0.1019483,0.018318508725413903,-0.0045398308812085505,-0.016610046212837154,-0.07008786983613116,-0.02188071016009333,-0.02037852617624171,-0.020442841540690246,-0.02055033820476296
0.1024138,0.01948756160591318,-0.0028325732756687124,-0.01375669109188957,-0.060372374748651834,-0.018779803951358896,-0.023150003512504926,0.0032324665626647154,-0.03526922672433129
0.1028793,0.02021170043886732,-0.0010599313181458693,-0.010586015390349215,-0.05486059561132678,-0.014716296489061424,-0.026484152413770272,0.01506052382740845,-0.04435132119420451
0.1033448,0.01856760512221956,0.0011682307452522533,0.005983524860127208,-0.05019203525445923,-0.01349006087749192,-0.029449567497376927,0.0004208632478753259,-0.05104822761196336
0.1038103,0.013766438177614151,0.004088791061411913,0.015638709736806086,-0.04247156664030165,-0.022953117078958172,-0.024307260074488128,-0.043889295980302195,-0.06387580407018505
0.1042759,0.011417733029691771,0.0062104,0.011599720115750776,-0.03628770720180979,-0.03340996605938354,-0.018829219204826088,-0.07577249191019658,-0.06659768321870822
0.1047414,0.013611267884694491,0.005896264481869572,0.012274555263821483,-0.03043789511306635,-0.033242580201006844,-0.016691155515080037,-0.06246384808570134,-0.030419642193733467
0.1052069,0.017721452946851415,0.0056051693597807435,0.020893681793180945,-0.02515117905997221,-0.01732782196409509,-0.020107440682947793,-0.010811703587779452,0.018652022391380446
0.1056724,0.015776475255565855,0.0011722505111317091,0.02245121905301913,-0.023445433658791457,0.008367439376231814,-0.025273215732137106,0.018786829185519317,0.008090852809750314
0.1061379,0.016824698085213835,0.001594665559808372,0.02362038176128264,-0.026128973708167642,0.01620991625589957,-0.023832547361909987,0.01177890002721265,-0.03919296368584119
0.1066034,0.012985366253190293,-0.0009817116624129426,0.020450918039111355,-0.02877345583120647,0.01017440388747098,-0.015490096994876308,-0.010124088416494271,-0.055091939477882476
0.107069,0.011081307793237018,-0.0015106,0.0033992715076325685,-0.02919040828545746,0.0002562294768083148,-0.003447663507853053,-0.016893289253440334,-0.003926534920259641
0.1075345,0.0146029,-0.0017141188714505456,-0.03987430372706351,-0.02777279912726736,-0.004007114019088053,0.004612915160820404,-0.0056045988582676485,0.05104739086614119
0.108,0.01991751240691897,-0.003952528173236876,-0.07693673891821769,-0.02835948589562026,-0.002042247310794582,0.0016368174519378058,0.01083482114472874,0.040819352034262284
0.1084655,0.027965938797095247,-0.007828979212576543,-0.07732027915131115,-0.03721161007417183,-0.0011149792125765422,-0.014137477594190494,0.016911763521635995,-0.009533694444496664
0.108931,0.03238739486056882,-0.0095674,-0.05656239769835046,-0.04084707901504625,-0.00381947344733813,-0.02627537481230137,0.010609427702962686,-0.029263568201099693
0.1093966,0.03295040017646298,-0.010991735423204672,-0.04651295773189207,-0.03651107350508128,-0.008122574989119778,-0.03247966592789174,-0.0037663552061622248,-0.024126180040579467
0.1098621,0.03048062092355286,-0.012859087549674604,-0.05389592811258135,-0.022538117711622303,-0.011405538375659368,-0.033517272912101825,-0.023929902049366354,-0.014506526690501353
0.1103276,0.023221211070147487,-0.014167816973893832,-0.06484809121981798,-0.008149949815663702,-0.012767005903746343,-0.029083824798933042,-0.033679688929852514,-0.007702040069331619
0.1107931,0.013348517634539477,-0.015728066726714576,-0.06575193023917736,0.0024955955913651307,-0.015554738978412827,-0.022969061720888168,-0.023412502592985066,-0.001422185657746587
0.1112586,0.005443278365659706,-0.016594393242192463,-0.05713597023454372,0.01013266487963045,-0.019103240546845226,-0.012527035120369552,-0.0014682945377431239,-0.0034842878514979897
0.1117241,0.0002637012350580318,-0.01632177964544997,-0.04786710794529889,0.014903362218871247,-0.020738922127300195,-0.007756337781128754,0.015161053656043342,-0.007028264609150426
0.1121897,-0.00657454195119959,-0.017016792272091304,-0.03518866439040328,0.021052300641783425,-0.020267137073200613,-0.0005547847242196443,0.03285858878039816,-0.01889287673897585
0.1126552,-0.007282083741311446,-0.018517222990847678,-0.02995888834491807,0.022551966843990533,-0.019367283741311445,0.005659420862295179,0.03542898129344277,-0.033600456758304045
0.1131207,-0.00807908662763805,-0.019181431631989487,-0.028896217829815933,0.021223707838518815,-0.02016428662763805,0.003002744574539836,0.03144396686180975,-0.04847776483132803
0.1135862,-0.012531321452885743,-0.020677076214241485,-0.02753721892879258,0.012616937358513982,-0.023216333499690392,-0.014424265473429962,0.022004808407938753,-0.0706645
0.1140517,-0.013494336931284434,-0.02080230538474697,-0.026160784360806332,0.0030929786835498783,-0.025174316422391037,-0.028760627484394462,0.00922101967697731,-0.07071790161511346
0.1145172,-0.007477758183572903,-0.020308564390276573,-0.02448768235075494,-0.004607352936299482,-0.027210082353613864,-0.03541646470436881,-0.005110246735313662,-0.03396114706084159
0.1149828,0.0023809663222179615,-0.020856735723023025,-0.02328755035985443,-0.0009884031924727059,-0.031947319154836236,-0.030424242681584297,-0.01797231205018196,0.00886494063634331
0.1154483,0.013284289488930474,-0.02371337896424121,-0.020830427412326102,0.008361724830641749,-0.034246570865949164,-0.02676602172681153,-0.03832399706507666,0.016370054655745328
0.1159138,0.02625266698745151,-0.024235367310806832,-0.0223511804604099,0.016562096135159004,-0.03301857117564783,-0.02187873521433921,-0.0587750234044311,-0.0028876442297310558
0.1163793,0.03335611341333136,-0.023387196239471306,-0.026805941664550904,0.021398239485551286,-0.02701112837696001,-0.018311122311691234,-0.04833210012574046,-0.002374258712670492
0.1168448,0.0395862910571919,-0.023703189343090375,-0.03451854701443762,0.024421438071629525,-0.014878333604246011,-0.01109926877310067,-0.0013518749626267798,0.01695521087531099
0.1173103,0.04275665387382933,-0.025166160121262948,-0.03985820774765865,0.027997093752566378,-0.008157180810743988,-0.006343842432231962,0.03159571366138483,0.014459692638196357
0.1177759,0.04225487608754807,-0.024368292017185107,-0.036521355485492145,0.025799577426329764,-0.007146253489505682,-0.0043797581259318215,0.01410351761501749,-0.01603747906296591
0.1182414,0.03693641670098498,-0.024805610217620226,-0.03695519537109967,0.027378533401969957,-0.0117494,-0.00499637350360031,-0.0058747,-0.05161018343975019
0.1187069,0.03141247576017137,-0.025607628867350383,-0.03649657113264962,0.029639063362295603,-0.02176801398471204,-0.005166664433675191,-0.002734567989817356,-0.0548194087704271
0.1191724,0.024417191352721093,-0.0257791583316889,-0.03494371461963811,0.033036250822975746,-0.03412561885398104,-0.0028342266508848066,-0.027596661317868504,-0.03148181621079084
0.1196379,0.021239006104543993,-0.025590546987940867,-0.02941878114643797,0.032972039078912586,-0.03768976315154299,-0.005334935530285632,-0.08185665836517038,-0.01820523770712406
0.1201034,0.019727974972005024,-0.02638812998880201,-0.021234299700119415,0.03259196493841105,-0.026361669787238185,-0.014401150167969853,-0.0817694698232973,-0.016142764938411054
0.120569,0.019117374677703657,-0.025764546530432066,-0.014394899628612245,0.025965437911382703,-0.004168317823189311,-0.026157126838745853,-0.018980941088405347,-0.010993846530432066
0.1210345,0.019420385442081526,-0.026395095865143006,-0.014993977935799752,0.025001435909716634,0.007773846246859113,-0.03260887932571504,0.032247094389308714,-0.013066773209348561
0.1215,0.019101315809007403,-0.0270237,-0.0182597227183121,0.027498982214906993,0.007124704435538948,-0.03165643777364308,0.039300140247408834,-0.0176242
0.1219655,0.01959930920917576,-0.027242127627527278,-0.02369996432966837,0.031160111811042467,0.008700546045878796,-0.028835589489890887,0.03655887740972453,-0.014387894828186244
0.122431,0.02107123324184316,-0.0270237,-0.03250397719667871,0.03446961901173015,0.015610697057758449,-0.035596362919673566,0.047028409816750674,-0.0176242
0.1228966,0.0219341087197938,-0.02529661048569606,-0.031182151324426692,0.03662894867557331,0.015631675220737783,-0.049882921523523284,0.04497826738389511,-0.029557048068687756
0.1233621,0.022594701118845147,-0.023354749314138598,-0.010639494165246562,0.03941293739175407,0.006365856906685669,-0.05849247578266879,0.018859423484556888,-0.04072082745418217
0.1238276,0.023785859659660298,-0.022755843336756305,0.01672128783724839,0.04145764832135293,-0.00021132928851384596,-0.060425166993314475,0.0060740967453950315,-0.045340445972295376
0.1242931,0.025289428033841654,-0.022510386963101033,0.03601841593316167,0.04213067302466973,-0.01049806004891696,-0.05925286994496842,0.010031172027304544,-0.04776262999388538
0.1247586,0.024831624669132614,-0.0226596,0.0219802402154839,0.04079948967677415,-0.015109074417419936,-0.053960197845161005,0.016298079640545374,-0.04715351032322585
0.1252241,0.024403074831299,-0.02312592701248392,-0.009053983958281471,0.03810433786297349,-0.017401245954324497,-0.03939809306455628,0.009504967775579458,-0.045298539139156595
0.1256897,0.02451257329124088,-0.023028178208214976,-0.02146228000725521,0.036192803998548954,-0.018914398000725523,-0.025265572491837886,0.0011942634951027326,-0.04648104950018138
0.1261552,0.02437718378215326,-0.02131340632706615,-0.0017381269895249338,0.032099379277211765,-0.019700513524927195,-0.021538446781188825,-0.0001817630492623153,-0.05031112704985439
0.1266207,0.023402270114281608,-0.02035731340952107,0.02723551072508459,0.026384832462171492,-0.019506138595523997,-0.025217647795552755,-0.0018225432952394646,-0.05304190306667625
0.1270862,0.022613709932203473,-0.02103427179263845,0.03650404825931488,0.024222535008874856,-0.017806928044227857,-0.029983811217691142,-0.009836812152498738,-0.049098216475856646
0.1275517,0.023173086964335888,-0.02094164035843196,0.022739276236464417,0.02664844035843196,-0.01836482642668795,-0.02267970535139207,-0.02332877807879889,-0.045784122842368345
0.1280172,0.022906838022560324,-0.019449019562998663,-0.002247024898484618,0.025316849419257225,-0.01915489663164045,-0.0008896146052247188,-0.03221788679600843,-0.0510891682565309
0.1284828,0.020884651740379425,-0.021045565506413715,-0.03002169288148116,0.02643053797434514,-0.013398265663414847,0.021795203480758852,-0.019783786198710237,-0.06323781689753541
0.1289483,0.019992848621139647,-0.02164010091924024,-0.04220966884442485,0.024052396323039054,-0.0053720375902568075,0.020011597242279293,0.0005790074148003182,-0.06130562108164701
0.1294138,0.01964362572902921,-0.021607305850930746,-0.045664272035078564,0.018552905761516737,-0.0030485132575290993,-0.002309171514984896,0.03134599001624377,-0.038983470048731296
0.1298793,0.020962323749163486,-0.02026587271739175,-0.04447875506254189,0.0063729183147167336,-0.00146855890869567,-0.018861539168227442,0.05215655651036828,-0.02620516244214043
0.1303448,0.019331637861970067,-0.0207612729486434,-0.03852771720211485,-0.002784614803978574,-0.0027880076698016537,-0.01720203035063269,0.03964684259801071,-0.04692049338980244
0.1308103,0.019576053188610474,-0.02177214809225237,-0.029560080686778862,-0.0071923427053692725,-0.005586238363010551,-0.012499254732905045,-0.010442847828820639,-0.07441953273978898
0.1312759,0.018942100278979447,-0.021311155928589304,-0.02670630119111921,0.0011108485569080802,-0.0165616564865482,-0.005001986897688712,-0.0711345868976887,-0.07312995121812595
0.1317414,0.018370339440881154,-0.02013222920830966,-0.030796486326428438,0.007358331069476194,-0.0231054186988391,0.007889579998226431,-0.10151138027955943,-0.04620661050947056
0.1322069,0.01712062994326264,-0.0200578344609951,-0.03505953266386673,0.0058115041284099445,-0.020582422137552518,0.023813948341727727,-0.08581276694681075,-0.02226120293187553
0.1326724,0.016846211737114276,-0.021206668261263578,-0.03346941395494352,0.007311604735299652,-0.01872194035137653,0.022645388513841156,-0.04119588538936699,-0.0044306916383153195
0.1331379,0.018957774626083043,-0.019241089306705057,-0.030853444653352526,0.008321201259236683,-0.018461146122206226,0.00645138008226381,0.002928843822799447,-0.00819694360373286
0.1336034,0.02016375676028566,-0.01715338914073416,-0.030451240112477546,0.01101640593544499,-0.02158504457036708,-0.01455222794778212,0.02747066776645422,-0.027111124673642604
0.134069,0.020964144093417198,-0.015644109781007068,-0.031041868081777148,0.008611463655431332,-0.02527016051394299,-0.028412267877519205,0.03788349740155477,-0.04626301657829659
0.1345345,0.020058365047894555,-0.015302388349298184,-0.026591776881274475,0.005791795143683658,-0.02811370485631634,-0.03762293787035266,0.038717023301403634,-0.04543165339719274
0.135,0.0186313,-0.014369929450570095,-0.017065070681368227,0.004686037236011549,-0.028711741230798133,-0.046857411648289715,0.01655366139641431,-0.04267977420814645
0.1354655,0.0186313,-0.013105105481727452,-0.014029493156145881,0.0027887636055367146,-0.02694098767441843,-0.05065188355481765,0.001628813918492841,-0.047486029935326766
0.135931,0.019320062389512806,-0.012062013715359105,-0.016009329786798913,-4.053525440648987e-05,-0.022946172717087734,-0.05073676327341034,-0.0017015862846408943,-0.04104783067069644
0.1363966,0.0188826548592742,-0.009667545415340165,-0.01960511888786807,-0.0006543873452036213,-0.019772148626202506,-0.04523396854329692,-0.0034239903674129703,-0.011314102747594982
0.1368621,0.018661634109282052,-0.007247834109282051,-0.022438415999182705,0.001390748429947661,-0.021169104006363248,-0.04097530400636325,-0.002383636193928408,0.014655735381669883
0.1373276,0.017201641475586955,-0.005839956590234782,-0.024743286819530436,0.004285924740642964,-0.022309399686117903,-0.038755828295117395,0.015708587447294628,0.01359534629157928
0.1377931,0.015727245857307233,-0.005250198342922893,-0.025922803314154214,0.0029589247641549224,-0.019213212807766777,-0.038460949171461443,0.023080477698620656,-0.0035075550403929168
0.1382586,0.017441655920571914,-0.005404994272356313,-0.02477976611914213,0.0013369567418587236,-0.013740055099285105,-0.037978032238284255,0.011879011019857022,-0.026647025324861275
0.1387241,0.018588079791477682,-0.004401916073125462,-0.023060130312783474,0.00506283432230247,-0.012307025260652896,-0.03453876062556695,0.011592405052130578,-0.036391628227560306
0.1391897,0.0186313,-0.002054618179312987,-0.022379450411307785,0.012593495064306588,-0.011945075205653893,-0.029636311550726532,0.005423104113077844,-0.03983824794346107
0.1396552,0.01862312777333833,0.00023626606879770425,-0.023855753753069774,0.017794725185441555,-0.011551453078931982,-0.027449840763204048,-0.04656548343441822,-0.039629565394659914
0.1401207,0.0169528,0.001065759056791374,-0.030491498425615264,0.02113762803486351,-0.004499333067205803,-0.030111859527684578,-0.09541987968654526,-0.03814090992128076
0.1405862,0.0169528,0.0014495570455324309,-0.035609313115600276,0.022161114746844877,0.00010662392776507161,-0.03164720393468008,-0.09375655179929232,-0.038396800655780015
0.1410517,0.016932927474372226,0.0026412010251110085,-0.04002017778752229,0.019800920620683365,0.0019300559738554583,-0.032397032935672185,-0.056054187685011185,-0.03667626345384444
0.1415172,0.018051436930364952,0.0018875350976236918,-0.04560341497310862,0.011504905211599754,-0.004084477239588399,-0.03330053601399432,-0.019174851903473577,-0.03379708625813531
0.1419828,0.016422400653096667,0.001047303299449195,-0.059405197605312224,0.002591501122460304,-0.008944749057796793,-0.03230089956460222,0.004860901523892224,-0.03365875235724598
0.1424483,0.015395472327393498,0.002732227672606502,-0.078674203784548,2.1568053564913594e-05,-0.008540110628004539,-0.03254259859619763,0.01663957819228886,-0.04040230293244768
0.1429138,0.017444184533818033,0.004237211819667581,-0.08408892074532054,0.0009509455772176908,-0.006025623344845662,-0.030461519403841775,0.043177107584174194,-0.04648943881102763
0.1433793,0.01799012524457014,0.002072811506861451,-0.06563722232302414,-0.0024605081443297297,-0.003607994240257813,-0.0185139810521305,0.07764595465063003,-0.04353571860252012
0.1438448,0.017264539990005136,-8.706736393920269e-08,-0.046636920619681416,-0.009016319770118185,-0.006977899900051385,-0.007696440339825293,0.08831326679750268,-0.03710624378355351
0.1443103,0.0172885,-0.0028566599564616353,-0.03705725708740876,-0.01148285344207849,-0.016395014951094907,-0.006600983732406999,0.05824755863996354,-0.036428433699602095
0.1447759,0.017690830426600596,-0.00302320422093158,-0.03745345943119921,-0.012163310142200198,-0.02474107407266604,-0.022190725788166433,-0.011682139285966339,-0.032585215785133764
0.1452414,0.017635631534003923,-0.001149193378019228,-0.0352390691151479,-0.01156017069809337,-0.03073639553580541,-0.03927458998919496,-0.101677385173093,-0.013235827144120447
0.1457069,0.019379766141323824,-0.0018463,-0.034004042768493434,-0.01126901754671227,-0.032425726456529524,-0.04318014866296946,-0.18715004626766482,0.004728880945617114
0.1461724,0.020172826785320994,-0.0016153389545747843,-0.03294132384426156,-0.011781480364985582,-0.03237982299880309,-0.03666485062958255,-0.21446315059382418,0.002699584961203561
0.1466379,0.021769173877051618,-0.0015379907653685473,-0.03222354459221129,-0.012170827703894358,-0.02869518918442257,-0.029290775206953185,-0.17902629683810803,-0.015172408410343006
0.1471034,0.023077096421794268,-0.0032180465002982286,-0.03182248283314052,-0.012346570246520328,-0.01280393733487585,-0.018048142917148704,-0.11150773891890205,-0.0349847904145367
0.147569,0.022768756618475668,-0.002868098119225699,-0.032409598119225703,-0.013424270825231087,0.00540690582780066,-0.007325756953665568,-0.03993802143042834,-0.04182012725822899
0.1480345,0.02390260982895419,-0.002122906624935213,-0.031753089256033214,-0.013920110624399705,0.021144435992230693,-0.007033661479628764,0.015478711322515043,-0.036881554059248034
0.1485,0.023381728864623693,-0.00035136918103538664,-0.03180547536643893,-0.013103947801366462,0.01964619853424431,-0.026818837766321692,0.06687810471964785,-0.02958440244292615
0.1489655,0.019717377552605515,-0.00037063974979512115,-0.03206463018571446,-0.011607950716070924,0.005725068139695604,-0.044106301402195146,0.10268303630933791,-0.02492194611586666
0.149431,0.02187271092677719,0.001216751234792904,-0.03276198530938074,-0.010868348765207096,-0.0021924659254121664,-0.04142318585023236,0.12644192080512043,-0.016670702342690222
0.1498966,0.02193477499159722,-0.00024292540271587644,-0.032232124810964345,-0.009471324778198882,-0.003202650246445687,-0.006050650147867412,0.13377882533690305,-0.012205512964327299
0.1503621,0.02516920859000264,0.0024270336083633483,-0.03204734549872617,-0.008842073368266715,-0.003921984415049637,0.0367844278880304,0.12084122828208557,-0.00882904261091101
0.1508276,0.024662732923688143,0.0031669658473762858,-0.030609467271357108,-0.009729764813485968,-0.008058593855322146,0.05467458137092118,0.09473519696085607,-0.012120195084257716
0.1512931,0.02387434697924366,0.003065625397753635,-0.031128786574675216,-0.01001775843677042,-0.01424331422520002,0.05023457554024021,0.06068816157249123,-0.019887022234510724
0.1517586,0.02355755311884502,0.003541911785586054,-0.03295007333388111,-0.00934792877508075,-0.016387596774458602,0.03345863827971125,0.03964283187002753,-0.03204091286076652
0.1522241,0.02246214421119614,0.004146832376330189,-0.0337377,-0.006126482551744297,-0.014652267623669812,0.00502559253302633,0.028825627207338635,-0.05228999598293593
0.1526897,0.022854737698741544,0.0025203794295985413,-0.032243787806535126,-0.00351694562429825,-0.015158292969627188,-0.01281188062991225,0.018663796557938622,-0.06390138645997136
0.1531552,0.0196384,0.0016922642218999847,-0.03409540604762455,-0.001736269761877234,-0.015477963714252682,-0.025631059794032136,0.006447076063325439,-0.07088456047624554
0.1536207,0.019767323643752513,-0.0005550694575010056,-0.0344348847287505,-9.045349463283808e-05,-0.013389522169995978,-0.040320977673953186,0.005899284572699668,-0.07360894433999196
0.1540862,0.021208999771999647,-0.0011317399087998595,-0.03472321995439993,0.0007744662915720263,-0.011082840364800563,-0.051998511367383274,0.015558471686583765,-0.06899558072960112
0.1545517,0.021504914308493574,0.0007527597430994628,-0.03338677681255645,4.0941733361266964e-05,-0.009613069562330644,-0.06007985732635753,0.026629601380481708,-0.0427912756803172
0.1550172,0.022310159919407182,0.0015140365552383942,-0.03155913450845147,-0.005871803481769924,-0.011776884254759474,-0.057376475708232205,0.02922930766251276,-0.019277670179675365
0.1554828,0.02156834254195163,0.0016532202526820619,-0.031824608949658044,-0.01412590957951142,-0.013184885713756634,-0.04757518947385674,0.021868914746345655,-0.0011884819309328234
0.1559483,0.019482240937820843,0.0010519413393487436,-0.03443449423319361,-0.020796752851682813,-0.014344270299866851,-0.03926015285168282,0.012768240937820842,0.01337956158641419
0.1564138,0.0199741,0.0011749,-0.03435334965573202,-0.01744116863133891,-0.015708116221463085,-0.03390375309841178,0.01449139931146405,0.019514155507991147
0.1568793,0.02027744655229524,0.0011749,-0.033499060343114284,-0.009385308097667749,-0.01592951845734397,-0.018841455852221217,0.01884975173213335,0.009660317221961865
0.1573448,0.019722728226518237,-0.0011099341611141395,-0.03165443273253156,-0.005740577180697748,-0.014173235436139549,0.011643798384506044,0.014605667454379816,-0.007039207209621312
0.1578103,0.020219631361720815,-0.0016909372765583723,-0.031471027812818284,-0.00607307100421421,-0.012108730178753302,0.03693789827417218,0.00808727100421421,-0.016191231361720817
0.1582759,0.019246613339982007,-0.0017344866600179933,-0.03096503667068641,-0.008672373320035988,-0.012887215546690657,0.048148083684496426,0.0017216659524339553,-0.022348776295557555
0.1587414,0.01842965086028272,-0.002700192497074101,-0.03045730375146295,-0.010603784994148203,-0.014075690621342627,0.056125845603787236,-0.001348387025045709,-0.024257032102967976
0.1592069,0.017005072785579445,-0.004483563862063146,-0.02849962726810527,-0.013590494068884039,-0.016858780689684272,0.05714788662080023,-0.007161204965389204,-0.02135453867431617
0.1596724,0.015492849246686542,-0.00581523789072232,-0.02947677195861499,-0.016209732561265754,-0.01855607261027276,0.029170803013253827,-0.011437334900165151,-0.022511031706296612
0.1601379,0.014687989316875838,-0.005781180886125437,-0.029870652568146906,-0.018025354820520666,-0.016229036143583467,-0.014197484180582028,-0.011141172287166934,-0.0242988271076876
0.1606034,0.013719528653048317,-0.006856593332064037,-0.02899918977550455,-0.017435206506497103,-0.01579487227645127,-0.059462671346951684,-0.007819613942493794,-0.03050398419850703
0.161069,0.01694228524587086,-0.007567380424284572,-0.029052080424284574,-0.014860848794603428,-0.014429551494766855,-0.0813501783028617,-0.006485997970645083,-0.03600638004284635
0.1615345,0.017437183714566415,-0.007935364525869884,-0.02688430919060756,-0.007105985137912279,-0.01767066452586988,-0.0810340283793041,-0.00907836844873799,-0.041933890809392436
0.162,0.018766130013278582,-0.008486876992910937,-0.024189791001777632,-0.0016547959477852157,-0.01696018303364623,-0.06355160206018194,-0.01037087994688567,-0.04277600501415667
0.1624655,0.019950652224457084,-0.008665818482313625,-0.0231359866532575,-0.007163173306515001,-0.0149386,-0.036141926693484996,-0.012338736277970292,-0.03150450821117137
0.162931,0.021627736331014835,-0.008119409590379222,-0.02190509299946496,-0.014633507664704863,-0.014994071333690025,-0.0024038853347600996,-0.016336871333690026,-0.022196313370317806
0.1633966,0.0238808552423157,-0.008686702629077885,-0.021214305555275606,-0.01873315760595388,-0.012244770485903597,0.038229576306618905,-0.018967,-0.02584395467975616
0.1638621,0.02234154179464564,-0.00762374616393736,-0.01995584723039552,-0.0164237037704698,-0.01594448855740492,0.06581149742717404,-0.01993208392574184,-0.03662880647448144
0.1643276,0.0223860885335052,-0.007383319624286696,-0.019174274530358373,-0.009613333179003397,-0.01632691565749828,0.04983006119985673,-0.02514605932129022,-0.04173595469641629
0.1647931,0.022905030898064876,-0.005977947640774049,-0.015590247627112502,-0.0004453926805330821,-0.016100474682838182,0.008417934726742526,-0.034099357077677854,-0.0431373
0.1652586,0.02014690594684481,-0.00400007563312426,-0.015151341503616479,0.0011516383844195224,-0.016324600991741087,-0.018142676624865347,-0.03491433853199493,-0.037890699008258914
0.1657241,0.014912663480763477,-0.0008046205497181235,-0.014990473038473043,-0.002320328102594783,-0.015937054493587826,-0.01869898930122261,-0.029148819408650297,-0.02852929244712334
0.1661897,0.014073162613660197,0.0003146305815097336,-0.016669474772679604,-0.0067976660604789465,-0.015657220871220068,-0.010024147007822042,-0.021873228585331715,-0.02293270335801132
0.1666552,0.017514063702627553,-0.0005978520377402192,-0.020999550581569947,-0.0112459,-0.015316303207006809,-0.005601841982482978,-0.01658567900875851,-0.024744623176314845
0.1671207,0.021233322966777258,-0.0008088106148595406,-0.02229351061485954,-0.012230206263666525,-0.01561,-0.010117233406221468,-0.022858539845303325,-0.040747004482149754
0.1675862,0.021790989667081085,-0.0020000329502015777,-0.022377460125208297,-0.013121703271603329,-0.017711347704119088,-0.015692611379626492,-0.029954012944442998,-0.057813180654320666
0.1680517,0.020984902367784993,-0.0028534,-0.022318346999762453,-0.020567750276515105,-0.01761679526443001,-0.022924956114964982,-0.03170869052886002,-0.054256026045634946
0.1685172,0.020744968521120902,-0.0029404412147638276,-0.02274663610474326,-0.02667556017607685,-0.016057595827477976,-0.029050322196336503,-0.027632925915516398,-0.03238246017607685
0.1689828,0.019180677234554095,-0.001530937127574317,-0.02300547159284995,-0.024755429358470384,-0.015253962872425683,-0.0356551829755729,-0.025879302662298688,-0.008631898189706996
0.1694483,0.017095234598751285,-0.0019843467151776507,-0.02321841868607106,-0.014836938395005156,-0.01496620934303553,-0.03662095328482235,-0.02559304717872772,0.005640024696402794
0.1699138,0.015346789039443707,-0.0039329890394437066,-0.023681524043816998,-0.0053770191108607115,-0.015920599312452537,-0.03572679931245253,-0.015504856785260273,0.004296885681869971
0.1703793,0.015839476786844647,-0.005146732687371473,-0.022418489644210997,-0.0005772694963247528,-0.014607536245261513,-0.03211113106736701,-0.0028487637547384855,-0.021832492709480105
0.1708448,0.01715402242447019,-0.0042163282365615395,-0.02137033867280269,0.005941982793650384,-0.014764327872515198,-0.030863633818728458,0.007149767273410572,-0.04547489368974039
0.1713103,0.019640289529481936,-0.004494809947720215,-0.02189556934501512,0.007386300289026382,-0.015554359397294907,-0.02784255992009276,0.016400228274767087,-0.05158911966166896
0.1717759,0.02172677335899674,-0.00749136636432138,-0.02348885784459462,0.00661170258401877,-0.01675403318216069,-0.022935411265966547,0.035427627699970626,-0.03336302176426263
0.1722414,0.02335785347171889,-0.005995598668783012,-0.02143773915732331,0.004451332561840247,-0.015583139505278027,-0.022176214393960877,0.0429693785343791,-0.013918076775642095
0.1727069,0.024152638604586982,-0.006606362558257201,-0.02108135161075312,0.0038605,-0.014717915813760946,-0.024604197459431498,0.03515328617145855,0.007568899785119862
0.1731724,0.0240024,-0.005200658443866442,-0.0209812,0.005694522272850681,-0.01518421113642534,-0.024458218484766214,0.031136814696681746,0.026013450158647224
0.1736379,0.023419252466795052,-0.003140227089355793,-0.02156434753320495,0.00529155246679505,-0.017752633588392915,-0.018506711523406744,0.03596472779884455,0.02273843282321417
0.1741034,0.02577794221785566,-0.003305116147035737,-0.022516153693102236,0.003688136594787462,-0.020163952370750027,-0.011093422933056847,0.031841678229896066,-0.009108142006181777
0.174569,0.029897929573667298,-0.005365258012880515,-0.020729267381250895,0.0019124414198924424,-0.019427114503220128,-0.012377414503220129,0.017194597402718424,-0.03867737105327315
0.1750345,0.033421417760179845,-0.006464015312769187,-0.022103487111296054,-0.0031948403918355783,-0.017327335520359685,-0.02040565476003394,0.010637166927050969,-0.054033722631655734
0.1755,0.03564262907228583,-0.00719232153483135,-0.022220809903213987,-0.010670896770038808,-0.017236664254461367,-0.03198119991249183,-0.002647042894646359,-0.0653771959933453
0.1759655,0.03290377816820454,-0.00399948697196591,-0.022882749504685603,-0.03017474609343371,-0.018867237794416673,-0.04223499577572728,-0.03421238697196591,-0.07451187687851894
0.176431,0.030088160577971396,-0.004850335768811441,-0.01999999634678284,-0.06000609374256738,-0.020636867884405722,-0.051658231797115185,-0.056976686595372604,-0.07749019253432612
0.1768966,0.02792058754115572,-0.006385037470603058,-0.020581074988241223,-0.07821188570974659,-0.01882457503527633,-0.05307934997648244,-0.05939322496472367,-0.06252380464759547
0.1773621,0.022770061187052267,-0.007415239726032043,-0.02136973995440978,-0.07542868812782912,-0.016603307305925234,-0.04973164109587183,-0.0581379337899466,-0.03717290045635801
0.1778276,0.016053882169060958,-0.008998434346706375,-0.02551017608882271,-0.05192528382127556,-0.012104925226349,-0.04148703096954436,-0.05088945488072165,-0.027689352177645416
0.1782931,0.01052895877422641,-0.0099151899489261,-0.0330058502553695,-0.028880321028651953,-0.010226710051073899,-0.03858298902242195,-0.033580530663960696,-0.03616336789879616
0.1787586,0.007560379107015442,-0.010339842219296744,-0.036596357640095126,-0.01881709077743492,-0.009646904898250418,-0.03629686354560893,-0.01342243198946828,-0.026150215561406513
0.1792241,0.01160141253151684,-0.010961264266214332,-0.038464877070730534,-0.02660383906146481,-0.009669528532428662,-0.03902852133107166,-0.010005228532428662,0.004456719055591601
0.1796897,0.018087502045429495,-0.01160123153375375,-0.036680473864985,-0.0337769630675075,-0.0109494630675075,-0.04210075269936937,-0.01100050582807813,0.015429341737855885
0.1801552,0.021756546498485237,-0.012185255997133708,-0.0343020334871833,-0.03462322798065254,-0.012117511994267418,-0.04100454799498399,-0.003209056015048029,0.003843563999283427
0.1806207,0.01899083637824218,-0.012810995046633522,-0.03127439504663352,-0.027633882663217323,-0.01360767241182564,-0.02531234234696804,0.008693026471509224,-0.009767522391454914
0.1810862,0.014507299432564834,-0.012324693306082225,-0.030621897446541754,-0.016185799432564835,-0.01539710187071887,0.003051203457720155,0.00990419801397692,-0.015414392570233687
0.1815517,0.015474925703446005,-0.010792015020091385,-0.03074818283275351,-0.004871571482769976,-0.018132704294310208,0.02472549070232411,0.003218907150520784,-0.0227331843132797
0.1820172,0.01739625267165577,-0.010968445156310128,-0.03247644321883418,0.0018142660315473963,-0.015604175484368987,0.014179832265534808,-0.0009673393438822825,-0.03124801162485569
0.1824828,0.013919358655352602,-0.012277275457999594,-0.03198221721400692,-0.0007504109919902343,-0.009834430037995525,-0.01327426955064455,-0.002521856411994303,-0.038324107642655134
0.1829483,0.010756956943046632,-0.013176699338317341,-0.03202584172271313,-0.006710774159303028,-0.004800883445426262,-0.02731258345630118,-0.0016106748318606057,-0.04082287550441818
0.1834138,0.014383320571905505,-0.011878628772771238,-0.0316331358856189,-0.011471810285952753,-0.0043091618725052995,-0.02196245700153344,-0.0025628820571905503,-0.037152976798998434
0.1838793,0.020954479198528497,-0.01160421750697539,-0.03270345737455324,-0.014185772123659736,-0.0041962,-0.014647615885102674,-0.004804267207290905,-0.04528805677518428
0.1843448,0.023391879455779346,-0.013404967068482156,-0.031172559228117232,-0.016762594530611862,-0.005624272376416922,-0.010454040771882769,-0.0059396841977329235,-0.07025303679093169
0.1848103,0.023850244027081614,-0.013639274060138904,-0.0305920740601389,-0.024577207330763975,-0.0075749370300694525,-0.004911074060138904,-0.004158161816162348,-0.08737464112326565
0.1852759,0.018471728089195734,-0.015532151364860188,-0.03143633805993859,-0.029606506025667265,-0.007749758908111849,-0.0070809420017949425,-0.003634630516686927,-0.09331071751077528
0.1857414,0.012252601343455455,-0.014351091778621289,-0.032919495634938706,-0.03187042080781872,-0.009399616442757424,-0.013848006877923256,-0.004049395634938708,-0.08547670185219933
0.1862069,-0.00030120932249049176,-0.013768434185827665,-0.03183808492296166,-0.023079716087497988,-0.012963724863337175,-0.02265816719550976,-0.006688053006582168,-0.057992404373210425
0.1866724,-0.00895641114651619,-0.010866557939036871,-0.03086580506720844,-0.019218748475921768,-0.015683847634221225,-0.017491564018344622,-0.009824206921008294,-0.02281748615798341
0.1871379,-0.02108137785058743,-0.009502600033292745,-0.031928889571344904,-0.02325592085731019,-0.016365168217169407,-0.004793136897911374,-0.009204395149998244,0.0238720951167055
0.1876034,-0.029998529141588806,-0.009030746597748508,-0.03261908883145709,-0.023621395635960073,-0.015464168934834328,-0.008762419896622763,-0.006367513817050967,0.04754954724346935
0.188069,-0.03387018442777343,-0.009409280081298179,-0.032686438524075524,-0.0177217302865949,-0.014070621187153498,-0.03031895803218391,-0.004807583114445314,0.036091588815022585
0.1885345,-0.028858749761646627,-0.010842699715350498,-0.031883692825184454,-0.008023908612707565,-0.013383429283205718,-0.055539142586831076,-0.003845185650368895,-0.00420348612707564
0.189,-0.021206623752076405,-0.012082453378694544,-0.032281202252463025,-0.00286418648522182,-0.01342721665447823,-0.05902879774753697,-0.003061194267627832,-0.024776719729528995
0.1894655,-0.014196289252261822,-0.013499721719638109,-0.03301826085981906,-0.0015586391401809457,-0.013212060859819054,-0.04457789306909172,-0.0013190174205428373,-0.029397045588823854
0.189931,-0.003931198627678608,-0.013877202216671432,-0.03258001103868291,0.00012407769560399877,-0.013416605805664257,-0.023866936631130566,0.0008888561908837834,-0.030994889533962695
0.1903966,0.011273138915244429,-0.017348988181115514,-0.03166593630849869,0.010228059946267663,-0.013108698861512091,-0.003002134744088164,0.0002917074042127964,-0.028041798148946803
0.1908621,0.03173144749410288,-0.01884568954574095,-0.030546049923940107,0.017645418643645047,-0.011933915757448465,0.015285107954784126,-0.0030627893936211654,-0.0216774736361727
0.1913276,0.055960130669312366,-0.01875447780779814,-0.0290379,0.0243381,-0.011219314817687025,0.030264781943367364,-0.0037179967610543904,-0.01898502549980482
0.1917931,0.07171164951557302,-0.016885899452201748,-0.0290379,0.02394091611237405,-0.013740234415941105,0.027315420329051335,-0.005239408603985277,-0.023717472079705527
0.1922586,0.0809457367189205,-0.014756621093693165,-0.029128889453153416,0.020418026367116458,-0.0149386,0.007054182691827756,-0.005470764686233622,-0.03018698785295676
0.1927241,0.08564283342950824,-0.013661809181007978,-0.02981492098219437,0.019653528518536394,-0.01467454754451408,-0.013656178683228881,-0.005352362946583106,-0.03307567639243545
0.1931897,0.08993762234041712,-0.01360732617496555,-0.0310521,0.02239767191488913,-0.012905957021277718,-0.023261840203263193,-0.005918502761201299,-0.0337031201016316
0.1936552,0.09851257931429774,-0.014321863350268957,-0.0310521,0.026970982300958797,-0.0117626294247603,-0.018974446861362838,-0.00863394837545014,-0.031559423430681424
0.1941207,0.10637387508510814,-0.014258783003404326,-0.03005762549489351,0.028622238532341093,-0.009940976484680536,-0.013220558571259745,-0.016150936552767045,-0.02611339546085026
0.1945862,0.10367850685074725,-0.013250129118149545,-0.029754420685074726,0.025796406850747255,-0.009612520685074726,-0.022826563770384705,-0.023255216998982604,-0.021367417520419596
0.1950517,0.08689522151413483,-0.012165568605653928,-0.030798551560846623,0.019057892095830996,-0.010431149067561358,-0.04528601039745427,-0.023757594700281232,-0.02033949011978875
0.1955172,0.06922669520859347,-0.009471430593418578,-0.030523703788621376,0.018822274197987956,-0.010719032878977065,-0.05733065447015577,-0.014890615296709288,-0.02472025561293502
0.1959828,0.05392141948504311,-0.008352363063156152,-0.032002418295754925,0.028414080732259008,-0.008952781704245079,-0.06589794630202343,-0.007746945739387304,-0.04386869783872573
0.1964483,0.044245477695849,-0.010596061612473345,-0.03010769635817502,0.030554347471410215,-0.007625166983492456,-0.05570091523361943,-0.005393780345838825,-0.059355400849756226
0.1969138,0.02957953339281773,-0.01269444259211249,-0.02875298065823737,0.02778537950547741,-0.012202227745203813,-0.03482095838219428,-0.0053105013623468075,-0.05971625486164709
0.1973793,0.02683502484214372,-0.012253,-0.028474827038703195,0.0076722486116770836,-0.011690724198577506,-0.012928912282070897,-0.00577540021452207,-0.05608675826814436
0.1978448,0.03227342667405562,-0.012321762433982406,-0.028580732864286692,-0.01566515872760041,-0.011076444845797957,0.011462444301023314,-0.005414316365651531,-0.0472567981939092
0.1983103,0.033918521185430185,-0.013857877418636928,-0.029985869311731805,-0.030388336947277824,-0.009670781778145282,0.03356622867444336,-0.0045208372275307275,-0.032800793460737464
0.1987759,0.02611715333684601,-0.012834661668640333,-0.029450367763991018,-0.030751000578341334,-0.010666940311389813,0.048151623492540915,-0.005687124482555988,-0.0115816
0.1992414,0.01700514275685196,-0.012814870389543737,-0.030357353235112794,-0.03299625970533838,-0.010395023140230676,0.04913310647022559,-0.009333932351127935,0.010283033412546988
0.1997069,0.014662510423527857,-0.013889770927825302,-0.03070447791529443,-0.04795998765495412,-0.009920984902763556,0.02538226789874389,-0.011186289576472143,0.023249430586715403
0.2001724,0.0227231548885816,-0.01528141864458001,-0.029723537289160024,-0.06777133560244021,-0.008553181355419989,-0.007242416316298819,-0.011088679027138795,0.018218420734896882
0.2006379,0.033005912335807394,-0.015597812631402775,-0.030356325262805548,-0.07346642736524993,-0.008236787368597226,-0.008349842394692462,-0.011563317131886913,-0.0001323362517953743
0.2011034,0.030073101553158586,-0.01369572879330837,-0.03085224241338326,-0.05562527677138523,-0.009045893189962554,0.028594459139775326,-0.011961025686991197,-0.02363711020594298
0.201569,0.005732892745749818,-0.011468739970964573,-0.029129064823607706,-0.044028653849250254,-0.00889744306085716,0.05572741141860778,-0.018573448299679766,-0.03911902607228528
0.2020345,-0.023313185491953183,-0.00982598895294861,-0.026829076373979834,-0.0439261185824742,-0.00986279246457719,0.03847838991748763,-0.019161623626020165,-0.049206285436740466
0.2025,-0.04809818826039467,-0.007590853041578679,-0.026370933483884026,-0.07066291131289595,-0.009492888260394669,-1.608522039186046e-05,-0.011512670861189627,-0.0558200826039467
0.2029655,-0.053597416166665184,-0.0052033,-0.027322272760306885,-0.08910716168727896,-0.009216848219298168,-0.0185867446578945,0.0016619344706199986,-0.05723070904385785
0.203431,-0.047771446471314406,-0.0052033,-0.02655574347063121,-0.08174813341257683,-0.008910218235332336,-0.01766685470599701,0.025578981879476975,-0.05017821941264375
0.2038966,-0.043710125363627596,-0.00884529498898777,-0.02481807852014996,-0.0545105963208895,-0.010478475927244933,-0.011242337948687852,0.03240275076828439,-0.03834107684981255
0.2043621,-0.045897560391361086,-0.011320660391361089,-0.024328754951079865,-0.04101095941295837,-0.011075664433707479,-0.010558556349014701,0.024472882840092094,-0.03514591534244096
0.2048276,-0.05065037901493538,-0.016073479014935377,-0.02373465262313308,-0.03388173147759693,-0.010927183095266206,-0.02021267493460455,0.011699771276327044,-0.03930463163806845
0.2052931,-0.057359557798608365,-0.023179736697912547,-0.02334329577986084,-0.030485212297452817,-0.010592941838426963,-0.03314250679397373,-0.0006227438548509522,-0.03690411724352133
0.2057586,-0.059906756452221425,-0.028202510886944643,-0.023688170254630627,-0.03347020886331143,-0.011228253419839108,-0.04481358418009259,-0.013704820765140178,-0.03268555645835643
0.2062241,-0.05579877882364589,-0.029229505294088527,-0.023816582796304338,-0.034882364413915,-0.012126911766870732,-0.0498201436741383,-0.020380284411575425,-0.037435367350616165
0.2066897,-0.04204334996019312,-0.027566036163437127,-0.022914639907921086,-0.031927043592459584,-0.01226913297957036,-0.04222081273546707,-0.01592488056684977,-0.04749323591310126
0.2071552,-0.027539437492235457,-0.025097285105061356,-0.021371762421929914,-0.02297782100584741,-0.01257772686186733,-0.031111432972776097,-0.005895625354945035,-0.04733898493469962
0.2076207,-0.010290810866326418,-0.02115750189063302,-0.02157439194019065,-0.01344558251838339,-0.0126592556424666,-0.023954258950111697,-0.0003394698164381143,-0.04666296225775679
0.2080862,0.013502380949214795,-0.01945154972414876,-0.024246224022862337,-0.008126845017953247,-0.011943542541884298,-0.02432502872905785,-0.002247721260972531,-0.055274897258049425
0.2085517,0.0432343428588275,-0.016578389562391438,-0.023877092614870823,-0.004183508515240338,-0.014476056011061342,-0.024251496830971754,-0.00595977278672639,-0.06358275951794369
0.2090172,0.08166988405558541,-0.01522996009221238,-0.023008016926840413,0.0013839826120976802,-0.015743019723362856,-0.02737211787911523,-0.010124799538938094,-0.06319357652783988
0.2094828,0.09969756486390016,-0.014777687626534572,-0.023074446537545385,0.006073033151803383,-0.01617459097297007,-0.032786101012276574,-0.010897722412771932,-0.05043181871647396
0.2099483,0.10293957967143993,-0.01335995027380005,-0.02167257005476001,0.006859981505389863,-0.01630137005476001,-0.04259810852147974,-0.01189732994523999,-0.02934077810346063
0.2104138,0.09391751751242673,-0.011094913083486086,-0.022366534370330666,0.011485613313531077,-0.015450191124312616,-0.04490805654174304,-0.013869225724688274,-0.015144587146558907
0.2108793,0.0771618075218489,-0.008786176125272644,-0.02133886477494547,0.009507734050981523,-0.01769009432483641,-0.037502522700654344,-0.014712723874727355,-0.009159577299345651
0.2113448,0.05438091998342095,-0.007287747805796223,-0.021877388793394157,0.003186125249510019,-0.018462705266089067,-0.033372411409859644,-0.01651321566655066,-0.013486378261216025
0.2118103,0.03126311654463447,-0.006120856125039138,-0.018813598535613645,-0.004397584187558708,-0.01779686617853788,-0.03940946041959533,-0.00679867769642298,-0.017991816414268367
0.2122759,0.012601583897391622,-0.004569959171174193,-0.0184166043854619,-0.0072799589298413285,-0.01833365917117419,-0.04698750685777681,0.013374958697266428,-0.0023342366846967715
0.2127414,0.0005638413739855806,-0.0042429008092218735,-0.018333501836617885,-0.005149831226974826,-0.018967,-0.04708099735416025,0.02142586391769393,0.005376562672123788
0.2132069,-0.009683445820845755,-0.007176864033114429,-0.01892929305554563,0.0022197069444543694,-0.018051784198686575,-0.042005359041963536,0.015647702909505817,-0.015385591600792723
0.2136724,-0.01940012854107395,-0.013305583572946303,-0.020877296514869838,0.00777623921459319,-0.015872047843483277,-0.04013546786331992,0.0052097749440562155,-0.03522341211402025
0.2141379,-0.031018705992212636,-0.017385650061880815,-0.01623061959565511,0.0036402630465151367,-0.014792874907178778,-0.04391448602527264,0.0003577893769526647,-0.033861799009906955
0.2146034,-0.0379129298601232,-0.018057787961956284,-0.0149386,-0.010238627573506352,-0.013917516005434815,-0.048347586145311615,-0.0005314679891303668,-0.02431022030692768
0.215069,-0.03966061374707096,-0.02229449079971009,-0.012835764967016152,-0.0232236604202351,-0.013454035365983557,-0.04556936308284682,-0.0012221548780054809,-0.015803935365983558
0.2155345,-0.038096700473194155,-0.024959408342231804,-0.015305001967259412,-0.03052613242253891,-0.012352374898821782,-0.028786228488020083,-0.00025990590177823916,-0.009912390636897086
0.216,-0.02645611181529786,-0.0261977110313852,-0.016984569170468256,-0.026932649372321708,-0.011093430009688569,-0.021829454147658717,-2.280555924967368e-05,-0.0025833667827997522
0.2164655,-0.009570950026598456,-0.019775585286294573,-0.01817649117177674,-0.019342402942741085,-0.010951802945491577,-0.026821647086607864,-0.0003663147137054285,-0.0002959970572589143
0.216931,0.01306440067052752,-0.00962686258381594,-0.01877129181402114,-0.012465401366115143,-0.01371472516763188,-0.030912099329472482,-0.0007116190433557898,-0.01465370679480361
0.2173966,0.0258679471808962,-0.00368460939701267,-0.019028934984505964,-0.011045233927162038,-0.015037701879402534,-0.014564505638207603,-0.0008392,-0.03289963484713707
0.2178621,0.027098734051846853,-0.002380536856314762,-0.020561761531041906,-0.012078706775037007,-0.013847770786083145,0.005989930704481719,-0.0027351842140786904,-0.039830316531203745
0.2183276,0.025074904533351445,-0.003324252206489249,-0.021592534340744766,-0.011278556739840698,-0.013625832829627618,0.016898073214840978,-0.00322447170372383,-0.03500370316952266
0.2187931,0.021995765202747288,-0.005228473685657124,-0.02076243622778154,-0.010304166915733845,-0.01382211811389077,0.012304569312047695,-0.00020426062870307682,-0.025024619544419594
0.2192586,0.020063246199159498,-0.005253900196357819,-0.020704930799439664,-0.010501868870051402,-0.01374874672602625,-0.0033288463955173154,0.0033509773291080956,-0.017910861598879328
0.2197241,0.01900836427661636,-0.004223776184410907,-0.02161123572338364,-0.011519555638708493,-0.014407423815589092,0.0035847422631569968,0.0036927,-0.013124325283346044
0.2201897,0.0186313,-0.0028825327167606744,-0.0217302857983285,-0.01353753456647865,-0.016184290944131086,0.043295776696222546,0.0013254190365968189,-0.011625299075141012
0.2206552,0.02026297606511801,-0.004164984043412007,-0.02054391734971851,-0.009598615956587992,-0.01820195213023602,0.062482936173648036,-0.0008626119674409946,-0.013849428484931724
0.2211207,0.022375214914657677,-0.0070863333494291456,-0.019874731257760566,0.00021586620661407437,-0.01934750511953815,0.030535899753877892,-0.0005515662066140742,-0.018122876937934594
0.2215862,0.023808793778342163,-0.009386237329947028,-0.018084007567388302,0.007757058003809594,-0.01862196733629635,-0.00870550466624338,-0.0023303155541445947,-0.024778423121532896
0.2220517,0.022862440522161402,-0.007649444179696313,-0.017876217240946655,0.013766529404917975,-0.01822226223629067,-0.02486744298832972,-0.003787169403715432,-0.03145882850583514
0.2225172,0.021229247938775214,-0.007156817803767455,-0.020984570228884194,0.014759925648666228,-0.01888946063390747,-0.02906486986499224,-0.005296273223549488,-0.04074086439246509
0.2229828,0.019599316910575745,-0.0089902139836668,-0.02243210058550888,0.012805089528751026,-0.019455532796669815,-0.048781981625969785,-0.0047733860163332005,-0.04523656530090291
0.2234483,0.02007378116634932,-0.009402193847091938,-0.022751413686368335,0.006714093525930477,-0.018660168485606705,-0.07270508222574007,-0.005140275334602718,-0.04578356371325085
0.2239138,0.02241220010863339,-0.0095674,-0.022041311254278273,-0.0019874027746654846,-0.019267355654297484,-0.07916289046875977,-0.0037457112542782734,-0.04677688874572173
0.2243793,0.024708319806714743,-0.010152748516204211,-0.022280887074825936,-0.015774093098390556,-0.021351419806714744,-0.06597279705247719,-0.003546319279310862,-0.04595187722569368
0.2248448,0.025401636659713962,-0.012673354989570946,-0.02404472749478547,-0.034694199053944774,-0.024394536659713965,-0.05408831751564358,-0.005280902508561113,-0.03622163496536625
0.2253103,0.026584278879278642,-0.014447318318917962,-0.02493170915945898,-0.04770317539630699,-0.025577178879278642,-0.05142737252162306,-0.006907079596887163,-0.039030366200407736
0.2257759,0.027942615956506017,-0.014289246010873497,-0.024382192021746994,-0.05762641169554212,-0.024426284043493986,-0.04052985780252255,-0.00814744224553092,-0.05041136989757906
0.2262414,0.028138987046126853,-0.013151912953873147,-0.024138907772323887,-0.05290686372915519,-0.0256809,-0.03784500562109294,-0.007775150300333427,-0.05190024407857363
0.2267069,0.028656224104159314,-0.011836149689760633,-0.025507410956436053,-0.03648141753029768,-0.029154135060595367,-0.051807282469702315,-0.006858856884100999,-0.04782659579615853
0.2271724,0.0291389401448034,-0.0108287200206862,-0.02660086408205871,-0.027947712497840987,-0.029468996342008395,-0.06527787611446019,-0.0049996000517155,-0.03682656361661921
0.2276379,0.03170242062013583,-0.010312616423420174,-0.026958660219207304,-0.038314472627633045,-0.028099369540202996,-0.04516551761694185,-0.00511718083934313,-0.013279458591256212
0.2281034,0.032159511996491905,-0.007628480898878434,-0.02851583957974878,-0.04939352816582237,-0.025769820968645003,0.0013914883167460827,-0.006992380806330724,0.015018965303797843
0.228569,0.03297128832565724,-0.0073033691455747195,-0.026580047957481714,-0.054217930342673915,-0.023461134939461854,0.04058700862781923,-0.0056014508514232175,0.03158174863682542
0.2290345,0.029280536734085035,-0.004521921430702374,-0.027128396174154336,-0.050044875325349465,-0.02093301402810077,0.05498974183521259,-0.007506668367042518,0.016288073356683197
0.2295,0.020907768759660245,0.0001335820814710847,-0.02826600986537045,-0.03844879830981405,-0.02173588701415631,0.038939950673147754,-0.009011113069835479,-0.016533724663426123
0.2299655,0.014092248358535987,0.00517066055154027,-0.02791348700117643,-0.02580586749236958,-0.02428920731580257,-0.005343429263210278,-0.008487513825785853,-0.05723878292979401
0.230431,0.009052092976262248,6.864758230362961e-05,-0.029831237503248537,-0.005890128120939326,-0.02103474132743082,-0.04743097495744339,-0.005693822611866084,-0.09290509756930948
0.2308966,0.007744761279701409,-0.00513851071905446,-0.029661414435344226,0.01719854140251587,-0.016985662400995305,-0.06973768496039813,-0.007057865600248826,-0.12004271884311306
0.2313621,0.009509286607119704,-0.010726174255879064,-0.029220326905627658,0.030285393778730227,-0.011103911309600985,-0.0673849845238404,-0.005587427827400246,-0.12960052056449084
0.2318276,0.012783278357050384,-0.022183317082421473,-0.027421140718790458,0.030323906744234595,2.7217082421476335e-05,-0.04449666275462651,-0.0023143015402652656,-0.11933197989731564
0.2322931,0.01921252933420557,-0.03523064404213219,-0.027930286651402552,0.017349056072224305,0.01785449322769919,-0.019593314667102783,0.001495377323738747,-0.05638485866841114
0.2327586,0.0236560368911845,-0.03631666891184499,-0.0260166,0.012631352435262002,0.03220315196900926,-0.006897751493474206,0.0025177,0.01491764646136518
0.2332241,0.022707976340056175,-0.02898764885897282,-0.026444247479678634,0.014806560569101493,0.040013893330514055,0.0021301484524717525,0.0034531748808664985,0.0557168634174479
0.2336897,0.020353680532764807,-0.020449532973310834,-0.027699458711735875,0.020334258251728975,0.042931210525495866,0.014173575198391294,0.0038915480362634036,0.04799402589847873
0.2341552,0.019102246445614497,-0.013515300159068622,-0.02641268830999509,0.01947336413800771,0.03667929620701156,0.012297272671298671,0.005526571405847339,-0.008913715560844884
0.2346207,0.02437975510689898,-0.005328417701350966,-0.026328489598821433,0.012608806181982268,0.024868999069190465,-0.009604339247137026,0.006729390322220312,-0.051743993610607074
0.2350862,0.03781325968286961,0.0004301912184988307,-0.027984499120193886,0.003283863071258439,0.00942121183852941,-0.01839206637339796,0.004914759682869611,-0.04002082183119728
0.2355517,0.04738442779331936,0.004567997247070898,-0.026825014811556764,-0.0025560022023432814,-0.0016508508258787306,-0.01137279524989452,0.0016593023803799895,-0.02425629049978904
0.2360172,0.04940638414486294,0.003615265766330547,-0.02760435441431174,-0.010039218378532394,-0.012343745585688263,-0.0025360837853239367,-0.0028353095499089186,-0.032531018378532395
0.2364828,0.05358974766417192,0.001228558224609534,-0.028706571840596766,-0.01682561022883511,-0.015572806841682989,0.002081650165801252,-0.005903238652462106,-0.011440529112304768
0.2369483,0.053895044244112796,-0.0036240728277431114,-0.028684473765470443,-0.01886772717225689,-0.019451607129336957,-0.0033663729066841274,-0.006609918246406286,0.03614078081586638
0.2374138,0.04703561894170479,-0.007196017547594108,-0.029364742146385944,-0.014802069248432458,-0.024130547685706317,-0.012774769861887789,-0.008168523452525483,0.03807043075156755
0.2378793,0.029182145952655877,-0.009457116750104,-0.027713486016937284,-0.005882019900180044,-0.03246119131584139,-0.01720527733277867,-0.011356183249896,0.008643522667221328
0.2383448,0.011101763402318844,-0.008760230024650225,-0.027788606917325855,-0.0018323512969985977,-0.03701100778199159,-0.022125461553662185,-0.012345991353342682,0.003941868126693117
0.2388103,-0.0070531930367385256,-0.008176935275561124,-0.028129209888982785,-0.004382744946473306,-0.041360594389740525,-0.022066164265185127,-0.01252419100641217,0.011023765837904435
0.2392759,-0.023122063199038236,-0.006329793183517752,-0.02802653595773151,-0.015032407659712504,-0.04265351658961931,-0.015584415746389054,-0.012447986605139792,0.0015420506474082833
0.2397414,-0.03707923559846826,-0.003515044499681308,-0.02744139296749505,-0.03329682264244558,-0.03413758494455297,-0.004071187249204595,-0.01058222813001979,-0.00039776571574622163
0.2402069,-0.04079742066594788,-0.0027381413697435517,-0.028917637672626603,-0.040416691088161566,-0.022421683829668672,0.0018438769801001978,-0.007282627398273893,0.017148167269762163
0.2406724,-0.04192871496504357,-0.0056982878346185616,-0.029798500124531172,-0.027516699750937654,-0.01773465896075714,-0.0035757714997320983,-0.0032697841632382254,0.021741796328619663
0.2411379,-0.030742569207616127,-0.011155876795654024,-0.03230590173514534,0.003508426581983828,-0.0139315,-0.01833711105832858,0.0006742880740987462,-0.002220629612042233
0.2416034,-0.0203098,-0.009209526732334878,-0.0332997049005778,0.020448672125841876,-0.00755708834656743,-0.03042076091587854,0.00434090464569302,-0.02082014742226871
0.242069,-0.01521433499072324,0.0002139455747989142,-0.03471791327356686,0.01791995399076451,-0.005337733632165688,-0.04051776457484018,0.0011080672643313755,-0.01809433363216569
0.2425345,-0.009747589917191202,0.006826012565327153,-0.03319880038539013,0.0042967646962786725,-0.011988013188541456,-0.046696999529521076,-0.007053077884820128,-0.010973243289401899
0.243,0.0036456770713701346,0.006579305673181154,-0.03170988356874804,-0.008290675276326554,-0.01467993563533527,-0.04042977928198257,-0.01370304916623743,-0.009311716303733517
0.2434655,0.014108098490366008,-0.0037225926659887917,-0.03240032534867094,-0.028470821681665336,-0.010267056095141256,-0.027098033224210224,-0.009942111001016812,-0.028338243904858743
0.243931,0.02308644675583721,-0.011159585577838246,-0.03214561283027463,-0.05450301474053918,-0.005697235332649091,-0.012607815377294029,-0.0036207790895126622,-0.0504604386756245
0.2443966,0.02757990049204359,-0.010162050661146184,-0.03169943890302762,-0.08849511627642588,-0.010948650169102597,0.00423449916975122,0.0011269345210261226,-0.07784843298550874
0.2448621,0.029549654666523466,-0.009631258133390613,-0.03236297093330469,-0.10326145782078698,-0.024244101509901757,0.011214860532703255,0.002238143510971149,-0.1038703388420895
0.2453276,0.029303727487948066,-0.013011740640064919,-0.03310123625602597,-0.09302036314539625,-0.03734305935993509,-0.0008403203267530722,0.0023018613470908948,-0.11637078405728588
0.2457931,0.02688894510799841,-0.015377147014007156,-0.03405744606100278,-0.07719791662816838,-0.030556875574662017,-0.021445128722304564,0.0006039725539992052,-0.09089568249965208
0.2462586,0.019948985073532734,-0.017375625969930523,-0.03366337790979157,-0.06539307973084021,-0.027601993566103097,-0.055322337254300524,-0.002629433254125057,-0.049950629612027786
0.2467241,0.010446132484300779,-0.0214526678144918,-0.03288662727666516,-0.06367489561036359,-0.029840391726060088,-0.08039542757545774,-0.005297962450099131,-0.020180077490142355
0.2471897,-0.0005229104991050322,-0.028276726051393586,-0.035296817849778526,-0.06537298810014765,-0.04132667664866663,-0.08438027114711177,-0.0035136208476421616,-0.042749545347720526
0.2476552,-0.009789805839605181,-0.027367017980987656,-0.03597682771414774,-0.07006074820362827,-0.04601983002209965,-0.06847864579540587,-0.0030052289488040323,-0.08581750722466719
0.2481207,-0.017917877915101667,-0.021935772393877083,-0.03643205407944759,-0.06548202270285583,-0.04299022270285584,-0.040360652149386944,-0.001828790797959028,-0.11088876975620648
0.2485862,-0.012960579751938928,-0.01642998994396902,-0.03730731635872152,-0.05006585320118731,-0.027125934109959695,-0.031604001575672634,-7.818508095199904e-05,-0.1028216658065684
0.2490517,-0.0025859039369430965,-0.011720742815056256,-0.03610742480290283,-0.03449996368101599,-0.007511733120072571,-0.02946842864159656,0.002829610236516602,-0.07608022937962822
0.2495172,0.0055442639161721085,-0.004200687703739656,-0.038616952019878956,-0.0235519601953842,0.007736363511186162,-0.019338590938544432,-0.00047658446893487975,-0.04714239328739888
0.2499828,0.010216490832110325,0.003817770741220687,-0.037552606043536066,-0.02069591825033908,0.009683796302039832,-0.00996326831020452,-0.0033928438965984934,-0.005412853638094727
0.2504483,0.0146029,0.013483066413545172,-0.038478681563583556,-0.02606693605123837,0.00591754635874245,-0.006552339312813679,-0.006845192954071229,0.06097214363256983
0.2509138,0.01855561211471996,0.017904547804910367,-0.037807096665098065,-0.02736886192508863,0.004690996813203817,0.002568158590186694,-0.007185963381133316,0.07983845006303027
0.2513793,0.02040473975886715,0.01687647891490217,-0.03933103260250498,-0.019388321457123943,0.004815649214145455,-0.0007396055726905206,-0.005529690663115339,0.03257784303264153
0.2518448,0.021118394818695676,0.015795522884323693,-0.037215520164070044,-0.007633481476630403,0.009172634548611384,-0.016421191278091805,-0.0016555841968840536,0.0006674625090091228
0.2523103,0.021648551750553177,0.016397873755455445,-0.03521089031730808,0.0008471976887039393,0.015799615440366864,0.014790541301961585,0.0018936791575442902,0.022493675328215574
0.2527759,0.019348460783160368,0.01770269888119947,-0.03556116343923779,0.0030027166726422625,0.03305327731487874,0.07689449636604595,0.003527020447520211,0.0379534840276819
0.2532414,0.017603470952567694,0.01799074482835798,-0.03571368761964194,0.0034108335373275248,0.03530145741434053,0.06333078727937991,0.0040147330599824916,0.024209703877912648
0.2537069,0.015490706531736636,0.01970340850903168,-0.037419579673413174,-0.0016729048988024776,0.03164289213703493,-0.016465432101486828,-0.0028101186936526725,0.007672493468263364
0.2541724,0.014988416363197102,0.006650153424684466,-0.035723939575763135,-0.004419073816164024,0.0199241836368029,-0.08412045014660383,-0.006927553674751736,-0.008142502514275769
0.2546379,0.011505836693480372,-0.00248523593658224,-0.034498796652965694,-0.006723251533274327,0.0092317,-0.09980994159326707,-0.0091125530077324,-0.018789834641514153
0.2551034,0.00023726676908801948,-0.0007998084729522942,-0.03479900695069532,-0.011087985083771377,-0.005356508980371285,-0.08018262338918092,-0.010098055681994018,-0.03444613635247268
0.255569,-0.012475943341236211,-7.632538409649042e-05,-0.03377220452751469,-0.009647011934060664,-0.019859971680823502,-0.03535914176921232,-0.009149443274982088,-0.051087262824556494
0.2560345,-0.017830763684838415,-0.0012516099706175272,-0.032400967399639345,0.0004732489742871834,-0.02682927111444028,0.017180721604610354,-0.010822818083254544,-0.05870998514079627
0.2565,-0.013058835476044726,0.000292207347347706,-0.03043605578425371,0.010297723434396977,-0.027671376092462695,0.036549052482307526,-0.0002965476663835416,-0.04748191876716406
0.2569655,-0.006437888433324042,0.006335674893310154,-0.029083397686664805,0.021601569663349127,-0.02283021632499303,0.027040607071652265,0.0,-0.02316560381502917
0.257431,-0.002359894352091085,0.010982375581423709,-0.02907267345752701,0.025301120633572555,-0.008287469672523274,0.018869356869949713,-0.0003390386212653745,-0.007483653084945976
0.2578966,-0.006483674862828956,0.009808907183365611,-0.029100825230795137,0.017120699384546294,0.0041962,0.03659100184636111,0.0009228971368342368,0.003231050153863426
0.2583621,-0.008536649891516694,-0.0005574259317155026,-0.028964274992251193,-0.00344325097045954,0.010128362488376789,0.0635745509394643,0.0,0.02478508842009229
0.2588276,0.0018662550808085177,-0.014228704527355855,-0.02802748841542545,-0.01993389152174919,0.008408386151747525,0.07728664971080686,0.0,0.035719370352018505
0.2592931,0.012551315985072418,-0.019316864855260633,-0.02624663230065878,-0.024131585900102566,0.004083449873028463,0.07944907995799833,0.0,0.031140101841240338
0.2597586,0.025400271760706354,-0.018750759486660537,-0.024793259486660536,-0.016416342638660843,-0.001368470949655635,0.07116501640662376,0.0,0.007152258234233887
0.2602241,0.03867196876762676,-0.017111828758770434,-0.02472046813733873,-0.0006123743926697016,-0.004622878126848562,0.04825270252115211,-4.333370597604628e-05,-0.030200696313370447
0.2606897,0.052472345865506,-0.0223596368318636,-0.02502378676766038,0.003135686243111292,-0.0026892162955662003,0.015324602014128405,0.0,-0.050308366557840746
0.2611552,0.06155724207490942,-0.025938453330887488,-0.025161477714082496,-0.0022326205131353314,0.0021284906904135486,-0.0003674094307667068,0.0,-0.04824365842319537
0.2616207,0.06813130674452873,-0.024077875015951482,-0.024365056968759558,-0.0028534,0.009671285485497328,0.0010670817604802186,0.0,-0.054178339242417405
0.2620862,0.0678559960504368,-0.016594254889323038,-0.024202026001674575,0.00012390727206982048,0.011516559654816605,-0.002806713112909728,0.0,-0.08024387088820666
0.2625517,0.06461605266829293,-0.010534306196269758,-0.022501845457649588,0.0010803628223814534,0.011897203098134879,-0.016976583340262294,0.0,-0.09302977724366816
0.2630172,0.05972249397717532,-0.009958593409079449,-0.022645730780393905,0.004534639545523303,0.011609346704539725,-0.03655073235662625,0.0,-0.08640916593908614
0.2634828,0.05280177252328644,-0.011837808243014069,-0.0226596,0.013573787093563305,0.00980816547062016,-0.05327016714300841,0.0,-0.07964442389712212
0.2639483,0.04945266904010398,-0.016137755903572238,-0.021685745346143023,0.01717800454120941,0.005352470515114371,-0.04154297945191008,0.0,-0.07354899182582306
0.2644138,0.04691341430305822,-0.018755728149477194,-0.02077270160440829,0.014223506438299484,-0.0017838079537332496,-0.023100379982205096,-0.00012609597864611521,-0.0497973232814319
0.2648793,0.040235852281158356,-0.018574135355760343,-0.019261648483179745,0.009600786616527118,-0.007331829288479317,-0.011974464644239657,-0.000712059853403694,-0.020080358096208242
0.2653448,0.037615584379343946,-0.018249578299312678,-0.018272589149656338,0.0066304731179267565,-0.007432267936540834,0.005982083968270417,-1.1504282740575109e-05,0.005577351417239434
0.2658103,0.03139743512493737,-0.023203617126174716,-0.017967692506665182,0.0011554049385181394,-0.002455954390617171,0.04533315159160412,0.0,0.009135180734320198
0.2662759,0.030490148249743967,-0.03314263205339034,-0.018623940091661375,0.0011114378378610332,0.0015023244440894856,0.06547274535750862,-0.0007270467587996598,-0.020215987214505172
0.2667414,0.033601844893390596,-0.037714477183922915,-0.021235288682089456,0.006995170037825157,0.004359416328230239,0.0169528,0.0,-0.06467624378869885
0.2672069,0.03853975494303001,-0.026453488891122038,-0.02324190899293999,0.018242142210909116,0.005839061473939412,-0.04875214299536439,0.0,-0.08813150692313704
0.2676724,0.04509864335685131,-0.014181086804436556,-0.023306396229839016,0.020399462298390163,0.004075784821182229,-0.06552193213710229,0.0,-0.09879649055971772
0.2681379,0.0492924977605277,-0.011384945672955886,-0.02495437332873702,0.008754537052232638,-0.004054737052232637,-0.04780580396635373,-0.0014123551904848283,-0.12426839922427174
0.2686034,0.05586551511256914,-0.02658655139501362,-0.022153591724418886,-0.000401438890812173,-0.009568012504201447,-0.03419821016465226,0.0001706145276818378,-0.1494789982453381
0.269069,0.057327352577008286,-0.042504362604880365,-0.02362267102749456,0.0035302892639948145,-0.015929168219956498,-0.012385164021146568,0.0,-0.1362688359913506
0.2695345,0.04815886335787734,-0.049847747437440526,-0.022913633959811896,0.01666139877859591,-0.024450241372603744,-0.0030818122140408868,-0.0008416767933223146,-0.06273861840542864
0.27,0.0380858160900571,-0.04435512374209146,-0.02414078820100368,0.026793060107155778,-0.02409465880066912,-0.03290405457030398,-0.01834332867504182,0.023131355234901074
0.2704655,0.03669001640794666,-0.035285396168909806,-0.022666665457710473,0.03261755267663239,-0.015154187218921915,-0.07912765457710476,-0.02429050459217749,0.03640935270677786
0.270931,0.04029335877242914,-0.044794812098053964,-0.023313886400186296,0.026408865108597586,-0.009833758866421334,-0.08217375334468117,-0.014455219121553864,0.004333438483253094
0.2713966,0.03874960410304402,-0.07402468014111911,-0.023091013631997715,0.01752303006880198,-0.016609835734723837,-0.03527239545600076,0.00011114128063960385,-0.03258769943903869
0.2718621,0.024558890714951154,-0.09224268134679486,-0.023246409786869773,0.007477490840671076,-0.027799295315921856,0.011553123923270405,0.004379633584420257,-0.046209804600970704
0.2723276,0.011097634458571957,-0.08538509735080961,-0.02261147912981304,-0.0006500301284668656,-0.031101131446118827,0.01637888442125059,0.0032367281381024504,-0.06297289698754686
0.2727931,-0.004197406660437534,-0.05319325253686546,-0.022590872671807857,-0.014905090083469326,-0.026832227135911667,-0.008071997880481173,0.006161341785641524,-0.11657203103441759
0.2732586,-0.00671643614738523,-0.027495572763045022,-0.02271091732654901,-0.026751356608848156,-0.016813044810659736,-0.0243381,0.012815748908159705,-0.1338953462301676
0.2737241,-0.0008870000911045722,-0.017224948878247055,-0.023891163580483522,-0.02789765249968816,-0.008111402425715036,-0.023318105494845396,0.014420091253815104,-0.060092926938811686
0.2741897,0.009768311420627989,-0.014756039311951817,-0.025301371337982048,-0.021983207865353765,-0.0060960972154199,-0.024436593408543903,0.018983632926574668,0.060853833742791616
0.2746552,0.01178389563242994,-0.011088075013250615,-0.02664988392573201,-0.01588951409322945,-0.006843683925732012,-0.05180525370523212,0.022311198426646472,0.08613549121185743
0.2751207,0.019184692460217215,0.008279534365413978,-0.027435694869495007,-0.014961489749500905,-0.005884873507339989,-0.08209254033605401,0.015444183414357016,0.020126689738990018
0.2755862,0.028443779570358697,0.0259916696784681,-0.02792858243463404,-0.018053350782605386,-0.0037296922248837234,-0.08301058601497822,0.00837998100249637,0.006080414086662696
0.2760517,0.033970786787083235,0.03417493912184348,-0.028133413212916764,-0.01818076855151007,-0.0028154808808611175,-0.06938747948038859,0.006154108366828318,0.058071894712128695
0.2765172,0.03185221594517393,0.04386626353842468,-0.029079296810965213,-0.0203098,-0.01531828700158984,-0.0535898223232435,0.0038191031890347856,0.09597514762319706
0.2769828,0.028761898939418738,0.049737773793446356,-0.029697360212116254,-0.0203098,-0.03602331888423642,-0.04926337851518623,0.003201039787883747,0.08794041546414676
0.2774483,0.024294164411095148,0.054507064411095145,-0.02935163220554757,-0.014728149952234511,-0.05582171353342913,-0.05036882543883301,0.0032048847112388403,0.03691831018184765
0.2779138,0.024244542685427025,0.05164427477984896,-0.029463678820840965,-0.005261806550013087,-0.05797463209489712,-0.0455876324210557,0.006293402509021079,0.001508281004178663
0.2783793,0.036057539169238824,0.04466865668842327,-0.02833214236174389,0.007133756013878134,-0.04867589138378561,-0.0420596449359547,0.014198484723487783,-0.016232010240592364
0.2788448,0.05603930706558069,0.03557346394843856,-0.027062006580730935,0.014306852455902543,-0.03512283830030952,-0.04347743847219357,0.011678039389413142,-0.024020886258715905
0.2793103,0.07171361930179555,0.03298899303956587,-0.024596493039565875,0.015802148311352293,-0.032567162026377244,-0.04450871033772954,0.005806217092320373,-0.023110141350918167
0.2797759,0.0843107407961504,0.0327306,-0.022459133006374216,0.015006216503187108,-0.045547575669361545,-0.023654922416342636,0.00269801067516562,-0.019237459298767377
0.2802414,0.08165571261006918,0.026759418057173686,-0.0206455,0.014662034453509774,-0.05702962941271579,-0.01306773279267218,0.0037274518834199215,-0.02883256787344549
0.2807069,0.07109596296054631,0.014487361588571359,-0.0206455,0.015232831731862361,-0.05503183893848173,-0.03875344028658201,0.002443200515115753,-0.044672064823762334
0.2811724,0.05989502888314727,-0.015723169383593586,-0.020890482220786814,0.0169528,-0.04734939531466253,-0.06878889696733399,-0.0017033786587614082,-0.06598960460474977
0.2816379,0.054737170976125904,-0.040212452798209994,-0.019698210845958183,0.016880170998829977,-0.04039093289734997,-0.049810613841554725,-0.004567033337531204,-0.08034297964884826
0.2821034,0.05760625443868353,-0.05169664878802562,-0.017927838434605294,0.016920738434605294,-0.03763596086513235,0.002012367345520137,-0.006763038784736471,-0.07748599284631935
0.282569,0.06395651191075585,-0.04866580109347858,-0.017639190367692917,0.016632090367692916,-0.030419759192322905,0.02164026392769355,-0.010226815587685005,-0.06334232355154697
0.2830345,0.06611871662562552,-0.034493158723201245,-0.020245799200088926,0.016941945176882127,0.0003836534270972024,0.011891273665541041,-0.01592887676571334,-0.04605654735194798
0.2835,0.06001006740333025,-0.01677725191069226,-0.021063902686199273,0.020206726211474412,0.030437591404813915,-0.008307210865556584,-0.026006273641805428,-0.03651116740333025
0.2839655,0.043138476382789226,0.0007297407707486179,-0.020860245742767573,0.016518492231362137,0.0352465836338252,-0.025151520779055827,-0.02794658000830721,-0.03371901466752836
0.284431,0.021090569867016445,0.01411984506996912,-0.02032723999304532,0.0027705853568002797,0.02085822958018528,-0.04180669225510808,-0.026728141750321434,-0.02937969612755404
0.2848966,0.0023419802925044144,0.022296850066780657,-0.018136742853874687,-0.021978158195753213,0.014064424318901363,-0.04964842431890136,-0.02183724440574698,-0.021711186411571385
0.2853621,-0.019041160892415775,0.02951136708910878,-0.020013460350479847,-0.04261173992048812,0.01657546560767752,-0.034323218078793516,-0.022698960350479844,-0.0019411702660762178
0.2858276,-0.029293439436091036,0.030508167056739866,-0.02029824822208304,-0.04731069738492096,0.02113207155332866,-0.006983667238926495,-0.02298374822208304,0.010731847603246109
0.2862931,-0.02726371386162063,0.0235443433305257,-0.021845540143582535,-0.03928145256968554,0.019008561142777602,0.02399142905537683,-0.018626584909625862,-0.0062433534882928715
0.2867586,-0.018031530212911016,0.02027360656481548,-0.022923421136719548,-0.03761010608015924,0.023283081947407448,0.030500752703808923,-0.005418698645821644,-0.034302025871796
0.2872241,-0.004612131849964285,-0.006203134387149851,-0.026088829997300934,-0.03297636516321154,0.02986375784679668,0.019358572197623523,0.021879187844097616,-0.05440518024567987
0.2876897,-0.0019157674971336737,-0.029568206625632053,-0.024949475847842996,-0.037280339619607486,0.044376662125243174,0.013644689825884066,0.04182507386732447,-0.06258892225019443
0.2881552,-0.0052294850016772285,-0.05489095352737259,-0.0243381,-0.04599331293305872,0.04689887561154164,-0.0007724547349053333,0.039777104480329534,-0.05415139600392421
0.2886207,-0.015170162119606381,-0.07311052093978358,-0.024398298072377218,-0.05724703443314306,0.03302916390330118,-0.023699316528721634,0.025363651373753092,-0.03771051252954808
0.2890862,-0.0246289764014728,-0.08002548121596896,-0.024895230222554316,-0.06007057318834433,0.01516329695488106,-0.04543573365313485,0.011636812041436944,-0.03427789593674514
0.2895517,-0.03108324492170683,-0.07271281472072756,-0.023403513113879327,-0.052892112097951687,0.004046894419931149,-0.06310944787899982,0.004208562946620766,-0.042088831807827506
0.2900172,-0.0337377,-0.052415935069496516,-0.0212351377130194,-0.03835929259506204,0.0009900471927290946,-0.07504436167510897,0.0030489185123449046,-0.05126509764085269
0.2904828,-0.030475523906835274,-0.03229717589418289,-0.02212526472691528,-0.027315807511172352,0.003453951409956739,-0.07246798334554617,-0.00034691182402218527,-0.05069881162504035
0.2909483,-0.020886523490849754,-0.020164380907752164,-0.023254889904217417,-0.024597686125353613,-0.007097455978164757,-0.05655745211691201,-0.006508043062676808,-0.04426491174542488
0.2914138,-0.009103290957165213,-0.007430222405096353,-0.02416948479640435,-0.024520638913840518,-0.023879422405096353,-0.041672237608692,-0.012222001305148517,-0.036502181914330425
0.2918793,-0.004995144695456781,0.01124410490194139,-0.0243381,-0.0270635600919336,-0.034040618651709854,-0.03134086591362966,-0.013028927614087941,-0.0501133633853503
0.2923448,-0.0074144842682237365,0.024488846397318034,-0.02423851057658317,-0.027653147452169458,-0.03996661268628601,-0.023186529670222358,-0.008467192597327413,-0.06174496013845547
0.2928103,-0.009605172754282106,0.012448161220895475,-0.024884621346623746,-0.02597504962443135,-0.04763929142423581,-0.013977096228162764,-0.00463076087686557,-0.041071024913077764
0.2932759,-0.006545352312532037,-0.016010100465129705,-0.02776784603161342,-0.02208747810600049,-0.057132028933927756,-0.01381403809484026,-0.0016197190474201296,-0.0090229790028454
0.2937414,0.004151592355054721,-0.028730807714382873,-0.030080717553517888,-0.014570731781032372,-0.05380731918180079,-0.02075265266055366,-0.005089026330276828,-0.007721945711163438
0.2942069,0.01758246744862399,-0.03323310018520042,-0.032282300123466945,-0.006623266213954531,-0.05036518593299534,-0.03749917328586056,-0.012511533786045468,-0.02229055375202017
0.2946724,0.028067343379957407,-0.03245633832779629,-0.03365578222960495,-0.004319076655592584,-0.05113256167220371,-0.05293755174097595,-0.01875593336218241,-0.034668703395404656
0.2951379,0.03682241030927927,-0.027716549052132784,-0.0350805,-0.007024473195878347,-0.0497560845360811,-0.059092274226801834,-0.021486145577019302,-0.03424031812429499
0.2956034,0.039343166690037394,-0.012782223102350799,-0.034583948393475596,-0.010358272305980706,-0.047940454414496056,-0.05519035189075709,-0.018231154414496062,-0.018736763192755895
0.296069,0.033143799524772435,0.0032279921035923845,-0.033124353472976244,-0.0110785579456534,-0.044912093340500864,-0.04782225765892924,-0.012809397526183047,0.009135864605152538
0.2965345,0.029425643569652656,0.019141304131105753,-0.03280866535447898,-0.012279021784826328,-0.04132993655298939,-0.032644792788794036,-0.011389015940794903,0.02123099278879403
0.297,0.02994704954627214,0.027614112421415385,-0.03359077431940821,-0.01253972477313607,-0.04172102986521097,-0.02169534493929883,-0.01282284354674151,0.01028154493929883
0.2974655,0.03649546964787046,0.0401165799667028,-0.03483245012847558,-0.013537366581016279,-0.04769004432668151,-0.0135958,-0.01649321896801099,-0.027986687128215806
0.297931,0.045741402612563806,0.04575456263275135,-0.034470508863651245,-0.014217027878066495,-0.05196400713548392,-0.013709107356011207,-0.015075260904584026,-0.06500604575150705
0.2983966,0.05445124152561508,0.038201558474384924,-0.033683226779507934,-0.012761018473147876,-0.04896210349176269,-0.013382521964910573,-0.007553227323286254,-0.0894636
0.2988621,0.06058227013534839,0.022380562003090704,-0.03291165375597692,-0.012690544383111535,-0.04681858249487692,-0.007817235630549996,-0.0007827066963541625,-0.08498644469326345
0.2993276,0.059333276693586116,0.008082461015867506,-0.03202506864399054,-0.012697167790784208,-0.0402010932250833,-0.0030806423764353358,0.002051088136056783,-0.0487300288163407
0.2997931,0.05053533693530196,0.009806151340327248,-0.02863072521093117,-0.013711943870828261,-0.01879344478929317,0.0026211122583434778,-0.00013268605420716862,0.001910169615732116
0.3002586,0.03469564236721001,0.014447340627770085,-0.027228421883310254,-0.013059466222213045,0.009579721564144297,0.0015884321252601329,0.0034347179399246957,0.0429407687661881
0.3007241,0.022144316041561283,0.00322426561912047,-0.026690951396581616,-0.008764097572983862,0.026881489312835957,-0.0045524283108598395,0.01150685345745066,0.07282532794471275
0.3011897,0.018943607413401516,-0.005393584435302269,-0.02456605691597767,-0.005575678642276227,0.02979311172989304,-0.01790993530204603,0.01424253703478842,0.10562042195177751
0.3016552,0.02556233527225772,-0.0037627498783817537,-0.02441381132493965,-0.0009902156603263151,0.013910685393875962,-0.05011103356933605,0.016151198945797723,0.11960201608751052
0.3021207,0.03853982798906315,0.011655211956252593,-0.0236667,0.0011018129338084223,-0.0027954473988856883,-0.08350932588583666,0.01476318059017746,0.08134583289506211
0.3025862,0.038937754212529825,0.019552522556167566,-0.02400300075194844,-0.0017646278198066533,-0.0086157493733763,-0.09197985646837516,0.011330575939935552,0.04125962914986746
0.3030517,0.028900457033122887,0.020808217912515123,-0.022004480303309523,-0.0031304851705474244,-0.0123694664948255,-0.06981840459446471,0.00638509974223825,0.0112005030729841
0.3035172,0.018028627824774164,0.019356726844790256,-0.021615253945723185,-0.0062104,-0.019104455649548328,-0.01464024108383864,-0.0005682582628387537,-0.035599743370467764
0.3039828,0.021113842004491505,0.013795903929720396,-0.02049936002642087,-0.008134235953146931,-0.027219722001164463,0.04818039398173038,-0.008616644002328928,-0.08681449000249529
0.3044483,0.0332913320718536,0.011728675115081296,-0.020413614351515483,-0.0115262686131164,-0.03209038480910855,0.10232410931497646,-0.018184837108392617,-0.12177036783266053
0.3049138,0.03670940239928853,0.018409197543628505,-0.01826744836897765,-0.016577088529062863,-0.03519697801206962,0.15308702242224814,-0.01896988046844111,-0.11432259043695064
0.3053793,0.03407241467060219,0.01923615119763869,-0.02170867087844914,-0.016102622754506087,-0.03170066017961436,0.1400617553890596,-0.013337040040039157,-0.07150488401021875
0.3058448,0.031345868685342344,0.012086234775623475,-0.021016866831348246,-0.014231533168651752,-0.029313835269668218,0.04204255302668722,-0.001844785207249478,-0.0026813356388754833
0.3063103,0.03829998650521481,-0.0033277908374615777,-0.020754707384451173,-0.010160159301552105,-0.03203897173631247,-0.03401226662799345,0.00496511143867057,0.04302826690602081
0.3067759,0.042387225003968826,-0.022121858245477983,-0.020001724999735414,-0.004665824995501996,-0.03609180000317506,-0.040191316618637875,0.006336858385860133,0.06009514162895682
0.3072414,0.04225455450249177,-0.04933741916333541,-0.022205149704345613,-0.0004456601649473323,-0.037941184126428905,-0.006450478135341665,-0.001060437120538832,0.034669769761239644
0.3077069,0.033515670916669064,-0.07196474994905662,-0.02034635102892384,0.0008000704178111279,-0.03422429712847452,-0.004610348075247031,0.00035335587614566266,-0.0339776725509174
0.3081724,0.03064873149100221,-0.08119089620259934,-0.0206455,-0.004318628668870853,-0.02701842498873953,-0.07787595238916775,0.0007221463423896166,-0.11462829602669534
0.3086379,0.030045,-0.08711411046114372,-0.018377037854080146,-0.00933599122092887,-0.0193932764978561,-0.11099391771608143,0.0005170527350920772,-0.14233197213324608
0.3091034,0.027500172648103116,-0.08660483749045073,-0.0203531156952821,-0.011440840526572614,-0.022724653916699124,-0.07055620403866732,0.0025718544322146405,-0.10961641265916021
0.309569,0.02123495844626704,-0.09882927317781162,-0.01886771315942313,-0.011544547747876008,-0.030954375874390934,-0.03569055687414558,0.0034861850329082037,-0.10114057418449587
0.3100345,0.016417859740177183,-0.1075145939631525,-0.01772998024789042,-0.010295526887013707,-0.027434500755603657,-0.024846467807429322,0.003999986556493146,-0.1158626873120968
0.3105,0.012752786488341722,-0.0980538201536723,-0.01577281858661248,-0.0044647222993844365,-0.009723949095070735,0.006761340550143296,0.005064052251943047,-0.11339276205082936
0.3109655,0.013428514399535608,-0.06264471051719166,-0.014441033444363632,0.0072175,0.0078106749500363665,0.024800902455882564,0.006049605358523101,-0.09669469631751058
0.311431,0.01868221500267719,-0.025982135998409466,-0.014249694591201865,0.018785746231748782,0.0014848860955090388,0.0005972267242605414,0.004921712235512631,-0.09280053895977318
