Time,Rectus Femoris right,Rectus Femoris left,Hamstrings right,Hamstrings left,TibilaisÂ Anterior right,TibilaisÂ Anterior left,Gastrocnemius right,Gastrocnemius left
0.0,-0.000684889562556742,0.0017087167458164636,0.0013818362225849602,-0.0016104637201895583,-0.017328439532990594,-0.01433897233087638,0.003910837062838091,0.012088593742566524
0.0004655,-0.0006629804080777584,0.0017689145364187492,0.0014141548365958067,-0.0013894301711661048,-0.01704577533370813,-0.013634035870725873,0.003958002692699849,0.012228055615152679
0.000931,-0.000641111410054522,0.001829147531824754,0.0014464573115004866,-0.001168723088575933,-0.016763470629847056,-0.012929663745282243,0.004005530602153497,0.012367033967366842
0.0013966,-0.0006192844900918848,0.0018894080405275756,0.0014787380831313062,-0.0009483717478902356,-0.016481555063855218,-0.012225948834454941,0.004053418927608368,0.012505505547974074
0.0018621,-0.0005975015319922836,0.0019496883596471126,0.001510991571709638,-0.0007284053378973538,-0.01620005803470904,-0.011522983874374853,0.004101665767281355,0.012643447189661976
0.0023276,-0.0005757643806870562,0.002009980777187668,0.0015432121836255867,-0.0005088529518494458,-0.015919008687856704,-0.010820861429332494,0.004150269181974791,0.012780835816930016
0.0027931,-0.0005540748411804118,0.0020702775742997507,0.001575394313237346,-0.0002897435786584186,-0.015638435905310326,-0.010119673863841298,0.004199227195865054,0.01291764845396193
0.0032586,-0.0005324346775067818,0.002130571027544749,0.0016075323446896191,-7.110609414622427e-05,-0.015358368295894051,-0.0094195133148458,0.004248537797301009,0.013053862232475542
0.0037241,-0.0005108456117022586,0.0021908534111611724,0.001639620653750472,0.00014703074764540466,-0.015078834185654599,-0.008720471664094061,0.0042981989396113935,0.013189454399544389
0.0041897,-0.0004893093227908081,0.002251116999331151,0.0016716536096659863,0.0003646383230807235,-0.01479986160844033,-0.008022640510693136,0.0043482085419202276,0.013324402325385416
0.0046552,-0.00046782744578592746,0.0023113540684459016,0.0017036255770321012,0.000581688147486207,-0.014521478296654582,-0.007326111143865715,0.004398564489969349,0.013458683511107194
0.0051207,-0.00044640157070840097,0.0023715568993688705,0.001735530917683025,0.0007981518836322212,-0.014243711672188698,-0.006630974515925288,0.004449264636947129,0.013592275596413012
0.0055862,-0.0004250332416208012,0.0024317177796952766,0.0017673639925956158,0.001014001350135141,-0.013966588837539998,-0.005937321215486171,0.00450030680432243,0.013725156367253293
0.0060517,-0.0004037239556793641,0.0024918290060067924,0.0017991191638091371,0.0012292085297749577,-0.013690136567119713,-0.005245241440923645,0.004551688782682808,0.013857303763421723
0.0065172,-0.0003824751622038569,0.002551882886120109,0.0018307907963597903,0.0014437455777234626,-0.013414381298755773,-0.004554824974098305,0.004603408332576032,0.013988695886089508
0.0069828,-0.00036128826176603433,0.0026118717413281286,0.001862373260229443,0.001657584829678143,-0.013139349125395158,-0.003866161154357678,0.004655463185353928,0.014119311005272098
0.0074483,-0.0003401646052972547,0.0026717879086325365,0.0018938609323079715,0.0018706988098969842,-0.012865065787010249,-0.003179338852827262,0.004707851044017603,0.01424912756722279
0.0079138,-0.00031910549321580205,0.0027316237429664864,0.001925248198368633,0.002083060239129464,-0.01259155666271336,-0.0024944464470024606,0.004760569584063074,0.014378124201747625
0.0083793,-0.00029811217457442936,0.0027913716194061587,0.0019565294550558813,0.0022946420424391546,-0.012318846763083195,-0.00181157179565224,0.00481361645432634,0.014506279729436054
0.0088448,-0.00027718584622861365,0.00285102393536995,0.0019876991118850415,0.0025054173569135146,-0.012046960722706513,-0.0011308022140447496,0.004866989277826908,0.01463357316880194
0.0093103,-0.0002563276520259913,0.0029105731128040973,0.002018751593253259,0.002715359539256616,-0.011775922792937862,-0.00045222444950453135,0.004920685652608805,0.01475998374332957
0.0097759,-0.00023553868201742545,0.0029700116003535935,0.0020496813404611318,0.0029244421732606985,-0.01150575683487984,0.00022407534268961061,0.004974703152578124,0.014885490888419653
0.0102414,-0.00021481997169014552,0.00302933187551733,0.0020804828137444354,0.0031326390771525504,-0.011236486312586022,0.0008980116230574549,0.005029039328336172,0.015010074258230565
0.0107069,-0.00019417250122338696,0.003088526446786482,0.002111150494315341,0.003339924310810784,-0.010968134286488443,0.00156949949131279,0.00508369170800734,0.015133713732410526
0.0111724,-0.0001735971947669462,0.003147587855765254,0.0021416788864125095,0.003546272182850142,-0.010700723407051218,0.0022384547093938435,0.005138657798060839,0.015256389422716666
0.0116379,-0.00015309491974304723,0.003206508679273203,0.002172062519359442,0.003751657257569044,-0.010434275908651782,0.002904793724121756,0.005193935084125454,0.015378081679517189
0.0121034,-0.000132666486171894,0.0032652815314284135,0.0022022959496304324,0.003956054361756711,-0.010168813603690973,0.0035684336894807327,0.005249521031796476,0.015498771098172987
0.012569,-0.00011231264602126219,0.003323899065710875,0.002232373762923479,0.004159438591356436,-0.009904357876933037,0.004229292488514024,0.005305413087434029,0.015618438525295182
0.0130345,-9.203409258046817e-05,0.003382353977005441,0.0022622905762394716,0.004361785317981791,-0.009640929680076482,0.004887288754830276,0.005361608678952031,0.01573706506487533
0.0135,-7.183145985904005e-05,0.0034406390036237785,0.0022920410399669745,0.004563070195282879,-0.00937854952655649,0.005542341893715052,0.005418105216597083,0.015854632084285235
0.0139655,-5.170532201040588e-05,0.0034987469293047413,0.0023216198399718937,0.004763269165160052,-0.009117237486579539,0.006194372102842531,0.0054749000937166165,0.01597112122014381
0.014431,-3.1656192780905277e-05,0.0035566705851925932,0.0023510216996913205,0.0049623584638228595,-0.008857013182390737,0.006843300392582503,0.005531990687515663,0.016086514384048484
0.0148966,-1.1684524984419782e-05,0.003614402851792514,0.0023802413822308225,0.0051603146276922975,-0.008597895783774243,0.0074890486058979515,0.005589374359801638,0.01620079376816893
0.0153621,8.209289997094378e-06,0.0036719366609028075,0.002409273692464444,0.005357114499144755,-0.008339904003787096,0.008131539437828628,0.005647048457716616,0.016313941850700852
0.0158276,2.8024922686899905e-05,0.0037292649975232306,0.002438113479136667,0.005552735232096302,-0.008083056094726641,0.008770696454556219,0.005705010314456601,0.01642594140117757
0.0162931,4.776210596033649e-05,0.0037863809017388613,0.0024667556369655673,0.005747154297426202,-0.007827369844331678,0.009406444112046811,0.005763257249977398,0.016536775485637208
0.0167586,6.742063546498872e-05,0.003843277470578924,0.0024951951087463864,0.005940349488238683,-0.007572862572217357,0.010038707774266598,0.005821786571686729,0.016646427471643275
0.0172241,8.700037001391595e-05,0.003899947859850018,0.00252342688745474,0.006132298924962128,-0.0073195511265437795,0.010667413730966984,0.005880595575122246,0.016754881033156532
0.0176897,0.00010650123195170539,0.003956385285943181,0.002551446018348652,0.00632298106028488,-0.007067451880918154,0.011292489215035645,0.005939681544615088,0.016862120155256073
0.0181552,0.0001259232074931259,0.004012583027614231,0.0025792476010686144,0.006512374683926909,-0.006816580731530315,0.011913862419410493,0.005999041753938624,0.01696812913870771
0.0186207,0.00014526634703418135,0.004068534427736815,0.00260682679173483,0.006700458927246576,-0.006566953094521299,0.01253146251355388,0.006058673466941962,0.01707289260437794
0.0190862,0.00016453076543538784,0.004124232895027569,0.002634178805040814,0.006887213267681731,-0.006318583903584605,0.013145219659484737,0.006118573938167779,0.01717639549749184
0.0195517,0.00018371664227712146,0.004179671905742778,0.002661298916342501,0.007072617533024347,-0.006071487607799662,0.01375506502736672,0.006178740413453993,0.017278623091733503
0.0200172,0.0002028242220868998,0.004234845005345921,0.0026881824637420277,0.007256651905527941,-0.005825678169696961,0.014360930810650917,0.006239170130518707,0.017379560993187698
0.0204828,0.00022185381453847038,0.0042897458101454665,0.0027148248501653468,0.007439296925847077,-0.005581169063554123,0.014962750240772251,0.006299860319527895,0.017479195144121717
0.0209483,0.00024080579462258789,0.004344368008902322,0.002741221545432826,0.007620533496808398,-0.0053379732739221,0.015560457601399206,0.006360808203645204,0.017577511826606884
0.0214138,0.0002596806027893784,0.004398705364406357,0.0027673680883219835,0.007800342887012891,-0.005096103294380538,0.016153988242236877,0.006422010999563315,0.017674497665979647
0.0218793,0.00027847874506220787,0.00445275171502143,0.002793260088621485,0.007978706734269354,-0.004855571126521135,0.0167432785923836,0.006483465918016275,0.017770139634142982
0.0223448,0.0002972007931229951,0.004506500976198358,0.002818893229175526,0.00815560704885936,-0.004616388279157714,0.017328266173241434,0.006545170164272252,0.01786442505270916
0.0228103,0.0003158473843689295,0.0045599471419553,0.0028442632679176842,0.008331026216634322,-0.004378565767761568,0.017908889610980857,0.006607120938606161,0.01795734159598525
0.0232759,0.0003344192219405707,0.004613084286325006,0.002869366039893315,0.008504947001945526,-0.0041421141141205235,0.018485088648560095,0.006669315436751672,0.018048877293802865
0.0237414,0.00035291707472132094,0.0046659065647684655,0.0028941974592695493,0.008677352550408246,-0.003907043346220079,0.019056804157299514,0.006731750850332131,0.018139020534193816
0.0242069,0.0003713417773082801,0.004718408215554466,0.002918753521331914,0.008848226391501304,-0.0036733629983448156,0.019623978148011634,0.0067944243672700315,0.01822776006591329
0.0246724,0.00038969422995451,0.004770583561104668,0.0029430303044666157,0.009017552441003576,-0.0034410821113981666,0.020186553781687253,0.00685733317217471,0.018315085000812265
0.0251379,0.0004079753984827548,0.0048224270093037746,0.0029670239721274723,0.009185315003269157,-0.0032102092334385306,0.020744475379738305,0.0069204744467080154,0.01840098481606089
0.0256034,0.0004261863141706843,0.0048739330547744085,0.0029907307747864837,0.009351498773343098,-0.0029807524204295975,0.021297688433798166,0.0069838453699276725,0.018485449356224575
0.026069,0.00044432807360774324,0.004925096280116286,0.003014147051867008,0.009516088838919762,-0.0027527192372026835,0.021846139615080102,0.007047443118608056,0.01856846883519463
0.0265345,0.0004624018385237089,0.004975911357109249,0.003037269233658483,0.009679070682146053,-0.0025261167586287945,0.0223897767832947,0.00711126486753803,0.018650033837975352
0.027,0.00048040883558907725,0.005026373047879685,0.0030600938432116228,0.009840430181271802,-0.00230095157099807,0.022928548995127092,0.007175307789795466,0.018730135322329367
0.0274655,0.0004983503561874147,0.0050764762060298615,0.003082617498212994,0.010000153612149718,-0.0020772297736042,0.023462406512274762,0.007239569056997996,0.018808764620282966
0.027931,0.0005162277561598294,0.0051262157777296515,0.0031048369128378766,0.010158227649587206,-0.001854956980531349,0.02399130080904675,0.007304045839529515,0.018885913439493075
0.0283966,0.0005340424555217321,0.005175586802770161,0.0031267488995803203,0.010314639368552408,-0.0016341383226410636,0.02451518457952501,0.007368735306741884,0.018961573864477305
0.0288621,0.0005517959381520661,0.005224584415578746,0.0031483503710593203,0.010469376245236747,-0.0014147784497565968,0.02503401174428892,0.007433634627131293,0.019035738357708405
0.0293276,0.0005694897514551876,0.005273203846194952,0.0031696383418000295,0.010622426157976305,-0.0011968815330420154,0.025547737456703953,0.007498740968488675,0.019108399760574313
0.0297931,0.0005871255059955798,0.005321440421206968,0.003190609929988973,0.01077377738803429,-0.000980451267573416,0.02605631810877577,0.007564051498023657,0.019179551294204848
0.0302586,0.0006047048751055824,0.005369289564648181,0.0032112623592022277,0.01092341862024682,-0.0007654908750995276,0.026559711336571302,0.007629563382461574,0.019249186560165943
0.0307241,0.0006222295944663183,0.005416746798853507,0.0032315929601055646,0.011071338943534226,-0.0005520031069889285,0.027057876025208306,0.007695273788113249,0.01931729954102225
0.0311897,0.0006397014616620032,0.005463807745275143,0.003251599172125569,0.01121752785127996,-0.00033999024736105506,0.027550772313415434,0.007761179880917304,0.019383884600768796
0.0316552,0.0006571223357078272,0.005510468125257441,0.0032712785450907836,0.011361975241579161,-0.00012945411639811837,0.028038361597665033,0.007827278826454918,0.019448936485132358
0.0321207,0.0006744941365516108,0.005556723760770591,0.0032906287408419397,0.011504671417358869,7.960392616502441e-05,0.02852060653588154,0.00789356778993699,0.01951245032174326
0.0325862,0.0006918188445494581,0.005602570575102818,0.0033096475348103503,0.011645607086371731,0.0002871829773760622,0.02899747105072854,0.00796004393616382,0.019574421620178247
0.0330517,0.0007090984999156425,0.00564800459351077,0.0033283328175635323,0.011784773361065077,0.0004932825872285648,0.02946892033247795,0.008026704429457635,0.01963484627187509
0.0335172,0.0007263352021469763,0.005693021943827792,0.003346682596317159,0.011922161758327155,0.0006979027546565799,0.029934920841464773,0.00809354643356847,0.01969372054991958
0.0339828,0.000743531109421922,0.0057376188570297465,0.003364694996412423,0.012057764199112404,0.000901043923363642,0.030395440310130573,0.008160567111554171,0.01975104110870548
0.0344483,0.0007606884379747023,0.005781791667758046,0.0033823682627579657,0.012191573007947659,0.0011027069774893568,0.030850447744658976,0.008227763625635404,0.019806804983468047
0.0349138,0.0007778094614446649,0.005825536814799609,0.0033997007612355063,0.012323580912321273,0.0013028932371167451,0.03129991342620607,0.008295133137026563,0.019861009589691656
0.0353793,0.0007948965102011549,0.0058688508415234665,0.0034166909800683407,0.012453781041957258,0.0015016044536235538,0.03174380891172873,0.008362672805743546,0.019913652722392
0.0358448,0.0008119519706441452,0.0059117303962738215,0.0034333375311518723,0.012582166927976536,0.0016988428048807745,0.03218210703441384,0.008430379790389289,0.01996473255527324
0.0363103,0.0008289782844808685,0.00595417223271944,0.0034496391513453347,0.012708732501947451,0.0018946108903016678,0.032614781903711414,0.008498251247917954,0.020014247639760414
0.0367759,0.0008459779479786993,0.0059961732101593045,0.0034655947037238663,0.012833472094827592,0.0020889117257446408,0.03304180890497481,0.008566284333378636,0.020062196903907436
0.0372414,0.0008629535111945391,0.006037730293784492,0.003481203178790096,0.012956380435799114,0.0022817487382733926,0.03346316469871118,0.008634476199639378,0.02010857965118084
0.0377069,0.0008799075771809634,0.006078840554896298,0.0034964636956444227,0.013077452650999716,0.002473125760777786,0.033878827219445275,0.008702823997092251,0.02015339555911939
0.0381724,0.0008968428011693939,0.006119501171080627,0.003511375503113167,0.01319668426215153,0.0026630470264589422,0.03428877567419955,0.008771324873340203,0.02019664467786977
0.0386379,0.000913761889730566,0.006159709426338711,0.003525937980833805,0.013314071185090268,0.0028515171631820924,0.03469299054059401,0.008839975972866312,0.020238327428598525
0.0391034,0.000930667599912561,0.00619946271117421,0.003540150640296506,0.013429609728197036,0.003038541187700723,0.03509145356456928,0.008908774436686018,0.0202784446017808
0.039569,0.0009475627383566726,0.0062387585226368015,0.003554013125841226,0.013543296590735212,0.0032241244997555586,0.035484147757737255,0.0089777174019829,0.020316997355366594
0.0400345,0.0009644501603913736,0.006277594464322335,0.0035675252156096016,0.013655128861094795,0.0034082728760519367,0.03587105739436376,0.009046802001728475,0.02035398721282568
0.0405,0.0009813327691046395,0.006315968246329633,0.003580686822450935,0.01376510401494654,0.0035909924641191475,0.03625216800798829,0.009116025364286523,0.020389416061072512
0.0409655,0.0009982135143948893,0.00635387768517398,0.003593497994781549,0.013873219913308183,0.003772289776055361,0.03662746638768589,0.00918538461300236,0.020423286148272594
0.041431,0.001015095392000802,0.006391320703657345,0.0036059589173968102,0.013979474800524886,0.003952171682161842,0.03699694057397624,0.009254876865777542,0.020455600081531987
0.0418966,0.0010319814425102636,0.006428295330695356,0.003618069912235122,0.01408386730216605,0.0041306454044702625,0.03736057985438511,0.009324499234630431,0.020486360824471753
0.0423621,0.0010488747503487063,0.006464799701101081,0.003629831439093168,0.014186396422840527,0.004307718510167022,0.0377183747586633,0.009394248825243126,0.020515571694689448
0.0428276,0.0010657784427471008,0.00650083205532568,0.00364124409629171,0.014287061543932156,0.004483398904918554,0.03807031705366832,0.009464122736495278,0.02054323636111001
0.0432931,0.0010826956886898615,0.006536390739156039,0.003652308621291205,0.014385862421257502,0.004657694826101654,0.038416399737913956,0.009534118059985355,0.02056935884122853
0.0437586,0.0010996296978429262,0.0065714742033694505,0.0036630258912565676,0.014482799182647551,0.004830614835942863,0.03875661703579264,0.009604231879540022,0.020593943498247485
0.0442241,0.0011165837194622628,0.006606081003345424,0.0036733969235703753,0.014577872325455068,0.005002167814570915,0.03909096439147551,0.009674461270712392,0.020616995038110934
0.0446897,0.001133561041283064,0.006640209798634699,0.0036834228762938907,0.014671082713989198,0.005172362952986255,0.03941943846249483,0.009744803300269958,0.02063851850643819
0.0451552,0.0011505649883898884,0.0066738593524855805,0.0036931050485752913,0.014762431576878822,0.005341209745951595,0.03974203711301323,0.00981525502567303,0.02065851928535939
0.0456207,0.0011675989220680159,0.006707028531327792,0.003702444881004555,0.01485192050436613,0.005508717984807459,0.040058759406784245,0.009885813494544463,0.02067700309025525
0.0460862,0.0011846662386362846,0.0067397163042141476,0.0037114439559145073,0.014939551445531734,0.0056748977502166275,0.04036960559980855,0.009956475744131462,0.02069397596640346
0.0465517,0.0012017703682616779,0.006771921742220471,0.003720103997627558,0.01502532670545253,0.005839759404841403,0.04067457713269054,0.010027238800760254,0.020709444285533823
0.0470172,0.0012189147737559397,0.006803644017804302,0.003728426872647709,0.0151092489422935,0.006003313585957573,0.04097367662270001,0.010098099679284428,0.020723414742294326
0.0474828,0.0012361029493545112,0.006834882404123047,0.0037364145897974587,0.015191321164334522,0.006165571198008926,0.04126690785554383,0.010169055382527829,0.020735894350630224
0.0479483,0.0012533384194781,0.0068656362743123225,0.00374406930029933,0.015271546726933212,0.0063265434051061765,0.04155427577685266,0.010240102900722959,0.020746890440078086
0.0484138,0.0012706247374772133,0.006895905100725282,0.0037513932978018717,0.015349929329424753,0.006486241623474083,0.041835786483387705,0.010311239210945925,0.020756410651976857
0.0488793,0.0012879654843599984,0.006925688454133771,0.0037583890183501643,0.015426473011959648,0.006644677513850543,0.04211144721397281,0.010382461276548972,0.020764462935597926
0.0493448,0.001305364267503728,0.006954986002892156,0.003765059040301032,0.01550118215228018,0.006801862973841375,0.042381266340157035,0.010453766046591621,0.020771055544196244
0.0498103,0.0013228247193502742,0.006983797512064686,0.0037714060841833427,0.015574061462436355,0.006957810130234486,0.042645253356612955,0.01052515045527145,0.020776197030984454
0.0502759,0.0013403504960858997,0.0070121228425172035,0.0037774330125038983,0.015645115985442038,0.007112531331277056,0.04290341887127579,0.010596611421355458,0.020779896245032084
0.0507414,0.0013579452763057014,0.00703996194997404,0.0037831428294995122,0.015714351091871945,0.007266039138919357,0.04315577459522852,0.010668145847612968,0.020782162327091565
0.0512069,0.0013756127596630374,0.007067314884040913,0.003788538680835932,0.015781772476400103,0.007418346321028787,0.043402333332337784,0.010739750620250956,0.02078300470535294
0.0516724,0.001393356665504275,0.007094181787194688,0.0037936238532542874,0.015847386154280364,0.007569465843577669,0.04364310896864552,0.010811422608352755,0.02078243309112904
0.0521379,0.0014111807314892133,0.007120562893740888,0.003798401774165782,0.015911198457769504,0.007719410862808367,0.04387811646152073,0.010883158663321048,0.020780457474472956
0.0526034,0.0014290887121975397,0.007146458528739869,0.0038028760111953777,0.015973216032493385,0.007868194717379231,0.04410737182857643,0.010954955618326115,0.02077708811972968
0.053069,0.001447084377721699,0.0071718691069025805,0.0038070502716752237,0.016033445833756602,0.008015830920494883,0.04433089213635618,0.01102681028776032,0.020772335561023827
0.0535345,0.0014651715122465582,0.0071967951314568296,0.003810928402088607,0.01609189512279593,0.008162333152024406,0.04454869548879489,0.011098719466699887,0.020766210597685377
0.054,0.0014833539126162673,0.007221237192984978,0.003814514387465194,0.01614857146297783,0.008307715250610942,0.04476080101545827,0.011170679930374993,0.02075872428961547
0.0544655,0.0015016353868887154,0.007245195968233952,0.003817812350728342,0.016203482715940222,0.008451991205776218,0.0449672288595654,0.011242688433649218,0.020749887952594404
0.054931,0.0015200197528779866,0.00726867221889851,0.00382082655199527,0.016256637037678677,0.008595175150023483,0.0451680001657988,0.011314741710509427,0.020739713153534133
0.0553966,0.0015385108366852119,0.0072916667903787594,0.0038235613878308625,0.016308042874577114,0.008737281350942292,0.04536313706790609,0.011386836473567086,0.020728211705677773
0.0558621,0.001557112471218221,0.007314180610512934,0.0038260213904559286,0.016357708959383006,0.008878324203318577,0.04555266267609765,0.011458969413572002,0.020715395663748814
0.0563276,0.0015758284947004016,0.007336214688286561,0.0038282112269107226,0.01640564430712714,0.009018318221253421,0.04573660106424442,0.011531137198939488,0.02070127731905272
0.0567931,0.0015946627491691884,0.007357770112519193,0.0038301356981745725,0.016451858210987897,0.009157278030293956,0.04591497725688054,0.011603336475291774,0.02068586919453355
0.0572586,0.0016136190789646327,0.007378848050529958,0.0038317997382424484,0.016496360238099937,0.009295218359579848,0.04608781721601558,0.011675563865014556,0.020669184039788263
0.0577241,0.0016327013292085216,0.007399449746783202,0.0038332084131592974,0.016539160225307308,0.00943215403400882,0.046255147827761064,0.011747815966829507,0.02065123482604116
0.0581897,0.0016519133442745337,0.007419576521515518,0.003834366920012948,0.01658026827486083,0.009568099966424753,0.04641699688877649,0.011820089355383537,0.020632034741081
0.0586552,0.0016712589662499422,0.007439229769345522,0.003835280585886367,0.016619694750059623,0.00970307114983178,0.046573393092539855,0.011892380580855658,0.020611597184163055
0.0591207,0.0016907420333893896,0.0074584109578677065,0.0038359548667700294,0.016657450270836587,0.00983708264963782,0.04672436601544781,0.011964686168582251,0.020589935760878458
0.0595862,0.0017103663785612748,0.007477121626231721,0.0038363953464351295,0.01669354570928754,0.009970149595930894,0.04686994610275063,0.012037002618701553,0.02056706427799302
0.0600517,0.0017301358276872994,0.007495363383708403,0.003836607735268356,0.016727992185143658,0.010102287175791511,0.04701016465432756,0.012109326405818093,0.02054299673825771
0.0605172,0.0017500541981757276,0.0075131379082439085,0.0038365978690689307,0.016760801061186787,0.010233510625644312,0.04714505381030829,0.01218165397868777,0.020517747335192814
0.0609828,0.0017701252973489122,0.0075304469450031865,0.0038363717078085968,0.016791983938607202,0.010363835223652109,0.04727464653654681,0.012253981759924287,0.020491330447847903
0.0614483,0.0017903529208656275,0.007547292304904074,0.0038359353343552205,0.016821552652303368,0.01049327628215532,0.047398976609953895,0.012326306145727457,0.020463760635539518
0.0619138,0.0018107408511387464,0.0075636758631431895,0.0038352949531606792,0.01684951926612338,0.010621849140159737,0.0475180786036949,0.012398623505633964,0.020435052632568538
0.0623793,0.0018312928557487906,0.0075795995577147895,0.003834456888913689,0.016875896068047878,0.010749569155875527,0.04763198787225906,0.012470930182290984,0.02040522134291902
0.0628448,0.0018520126858538738,0.007595065387923704,0.003833427585158258,0.016900695565314292,0.010876451699310227,0.04774074053640692,0.012543222491253012,0.020374281834940257
0.0633103,0.0018729040745965508,0.007610075412893427,0.003832213602878452,0.01692393047948251,0.011002512144918514,0.04784437346800211,0.012615496720802189,0.020342249336013675
0.0637759,0.0018939707355080863,0.007624631750070391,0.003830821619050181,0.016945613741442107,0.01112776586431143,0.047942924274733775,0.01268774913179227,0.020309139227206133
0.0642414,0.001915216360910663,0.007638736573725391,0.0038292584251606934,0.0169657584863615,0.011252228219027731,0.048036431284735726,0.012759975957516361,0.020274967037910954
0.0647069,0.0019366446203180712,0.007652392113453101,0.0038275309256965073,0.016984378048579444,0.011375914553370033,0.048124933531108194,0.012832173403598391,0.02023974844047793
0.0651724,0.0019582591588354287,0.0076656006526705615,0.003825646136600454,0.017001485956439435,0.011498840187308235,0.0482084707363477,0.012904337647908225,0.020203499244833344
0.0656379,0.0019800635955585055,0.007678364527115458,0.0038236111836985405,0.017017095927067613,0.011621020409452787,0.04828708329669061,0.012976464840500284,0.020166235393090953
0.0661034,0.002002061521973242,0.007690686123344974,0.0038214333010972933,0.017031221861095024,0.011742470470100236,0.04836081226637582,0.013048551103575442,0.02012797295415469
0.066569,0.0020242565003560616,0.00770256787723597,0.0038191198295522196,0.01704387783732524,0.011863205574353405,0.04842969934183197,0.013120592531465974,0.020088728118313835
0.0670345,0.0020466520621755975,0.007714012272487207,0.003816678214808013,0.017055078107348746,0.011983240875318525,0.04849378684579449,0.013192585190643384,0.02004851719183132
0.0675,0.002069251706496461,0.007725021839124292,0.0038141160059110947,0.017064837090105908,0.012102591467381624,0.048553117711357376,0.013264525119748983,0.020007356591525874
0.0679655,0.002092058898385708,0.007735599152007978,0.0038114408534950864,0.017073169366400603,0.012221272379566342,0.04860773546596471,0.013336408329647142,0.019965262839348626
0.068431,0.0021150770673226712,0.007745746829346462,0.0038086605080397975,0.017080089673366907,0.012339298568975348,0.04865768421534614,0.013408230803501236,0.019922252556954862
0.0688966,0.002138309605612846,0.007755467531212226,0.0038057828181043093,0.01708561289889123,0.012456684914317433,0.04870300862740055,0.013479988496872172,0.019878342460271436
0.0693621,0.0021617598668065416,0.007764763958064016,0.0038028157285347427,0.017089754075992423,0.012573446209522329,0.048743753916031723,0.013551677337839463,0.01983354935406045
0.0698276,0.0021854311641230128,0.007773638849274406,0.0037997672786472987,0.01709252837716226,0.012689597157445224,0.04877996582493985,0.013623293227144766,0.01978789012647967
0.0702931,0.0022093267688808064,0.007782094981663478,0.0037966456003871293,0.017093951108668844,0.012805152363662878,0.048811690611372166,0.013694832038357838,0.019741381743640107
0.0707586,0.002233449908935056,0.007790135168039004,0.003793458916463568,0.017094037704825548,0.012920126330363178,0.04883897502983659,0.013766289618064857,0.019694041244161204
0.0712241,0.002257803767122461,0.007797762255743542,0.003790215538462245,0.01709280372222817,0.013034533450329858,0.04886186631578185,0.013837661786079083,0.019645885733723986
0.0716897,0.00228239147971468,0.007804979125208764,0.0037869238649345578,0.01709026483396325,0.013148388001023989,0.048880412169247996,0.013908944335673874,0.01959693237962252
0.0721552,0.002307216134880853,0.007811788688517313,0.003783592379464962,0.01708643682379059,0.013261704138763828,0.04889466073849161,0.013980133033838087,0.019547198405314013
0.0726207,0.0023322807711599653,0.007818193887972471,0.0037802296487165136,0.017081335580303243,0.013374495893004486,0.048904660603590916,0.014051223621554086,0.019496701084967843
0.0730862,0.0023575883759437396,0.007824197694675857,0.003776844320455079,0.01707497709106831,0.013486777160718836,0.048910460760036696,0.014122211814098735,0.01944545773801385
0.0735517,0.0023831418839707673,0.007829803107113367,0.0037734451215525938,0.017067377436752216,0.01359856170088098,0.04891211060231558,0.014193093301368004,0.019393485723690526
0.0740172,0.0024089441758325687,0.007835013149749529,0.00377004085596976,0.01705855278523409,0.013709863129053583,0.04890965990749288,0.014263863748225854,0.01934080243559383
0.0744828,0.0024349980764922924,0.007839830871630402,0.003766640402718534,0.017048519385711194,0.013820694912080177,0.04890315881880216,0.014334518794878261,0.019287425296227782
0.0749483,0.002461306353816774,0.007844259344995101,0.003763252713804788,0.017037293562800315,0.013931070362883624,0.04889265782924898,0.01440505405727315,0.019233371751558252
0.0754138,0.002487871717122671,0.007848301663895987,0.0037598868121515297,0.01702489171063914,0.014041002635371749,0.04887820776523618,0.014475465127527148,0.019178659265571562
0.0758793,0.002514696815737406,0.00785196094282754,0.0037565517895030687,0.017011330286991578,0.014150504719451139,0.04885985977021795,0.014545747574380118,0.0191233053148399
0.0763448,0.0025417842375756337,0.00785524031536386,0.003753256804310579,0.016996625807360905,0.014259589436150077,0.048837665288389565,0.014615896943678522,0.01906732738309584
0.0768103,0.002569136507731954,0.00785814293280477,0.0037500110795994864,0.01698079483911465,0.014368269432851416,0.04881167604841962,0.014685908758888852,0.019010742955818505
0.0772759,0.0025967560870905526,0.007860671962830449,0.003746823900819172,0.01696385399562495,0.014476557178636246,0.048781944047231574,0.01475577852164235,0.018953569514834182
0.0777414,0.0026246453709524754,0.007862830588164515,0.003743704613675471,0.016945819930428218,0.014584464959739113,0.04874852153384118,0.014825501712312306,0.018895824532934074
0.0782069,0.0026528066876812108,0.00786462200524543,0.0037406626219464853,0.016926709331407833,0.014692004875115386,0.04871146099325638,0.014895073790625213,0.01883752546851199
0.0786724,0.0026812422973672466,0.007866049422906146,0.003737707385282219,0.01690653891500356,0.014799188832121318,0.048670815130445744,0.01496449019630695,0.01877868976022459
0.0791379,0.0027099543905122515,0.00786711606106188,0.0037348484169885295,0.01688532542045127,0.014906028542307293,0.04862663685438187,0.015033746349765115,0.01871933482167682
0.0796034,0.0027389450867335192,0.007867825149405998,0.0037320952817958704,0.01686308560405653,0.015012535517324678,0.04857897926216514,0.015102837652808496,0.01865947803613508
0.080069,0.002768216433489291,0.007868179926113968,0.003729457593613287,0.01683983623350546,0.015118721064946635,0.048527895623233445,0.0151717594894046,0.018599136751270676
0.0805345,0.0027977704048255812,0.007868183636555453,0.0037269450132680834,0.01681559408221613,0.015224596285203208,0.048473439363663134,0.015240507226476081,0.018538328273936085
0.081,0.002827608900145118,0.007867839532014618,0.0037245672462315636,0.0167903759237338,0.015330172066630936,0.04841566405056593,0.015309076214736768,0.018477069864976638
0.0814655,0.0028577337429990233,0.007867150868418799,0.0037223340403312126,0.01676419852617309,0.015435459082637248,0.04835462337658683,0.015377461789567972,0.018415378734080192
0.081931,0.0028881466799018664,0.007866120905075737,0.0037202551834496674,0.016737078646710174,0.015540467787979816,0.04829037114450765,0.015445659271935648,0.01835327203466737
0.0823966,0.002918849379170711,0.007864752903419599,0.0037183405012107948,0.01670903302612815,0.01564520841536106,0.04822296125196096,0.015513663969348978,0.01829076685882478
0.0828621,0.0029498434297887907,0.007863050125765974,0.0037165998546532307,0.016680078383418544,0.015749690972138082,0.04815244767625903,0.015581471176860767,0.018227880232283573
0.0833276,0.002981130340294407,0.007861015834076132,0.003715043137891701,0.016650231410442008,0.015853925237148334,0.048078884459342254,0.015649076178109962,0.018164629109445544
0.0837931,0.0030127115376956627,0.007858653288730755,0.0037136802757664848,0.016619508766651248,0.015957920757651255,0.0480023256928514,0.015716474246406563,0.01810103036845881
0.0842586,0.003044588366411604,0.00785596574731346,0.003712521221481394,0.016587927073879127,0.016061686846386238,0.04792282550332776,0.01578366064585905,0.018037100806345067
0.0847241,0.003076762087240364,0.00785295646340449,0.0037115759542306393,0.016555502911194942,0.01616523257874715,0.0478404380375449,0.015850630632544375,0.01797285713418021
0.0851897,0.003109233876354856,0.007849628685384996,0.0037108544768149516,0.016522252809831772,0.016268566790073713,0.04775521744797531,0.015917379455720474,0.017908315972330047
0.0856552,0.0031420048243265913,0.007845985655252505,0.0037103668132473064,0.016488193248187705,0.01637169807305992,0.04766721787839501,0.015983902359081238,0.017843493845742783
0.0861207,0.003175075935178152,0.007842030607448163,0.003710123006348605,0.016453340646903656,0.0164746347752796,0.04757649344962878,0.016050194582053753,0.01777840717929976
0.0865862,0.0032084481254648595,0.007837766767696508,0.0037101331153336406,0.01641771136402048,0.016577384996829186,0.04748309824543836,0.0161162513611375,0.017713072293225815
0.0870517,0.0032421222233861556,0.007833197351858579,0.003710407213387681,0.01638132169021782,0.016679956588087543,0.04738708629855554,0.0161820679312852,0.01764750539856056
0.0875172,0.0032760989679271988,0.007828325564799173,0.003710955385233978,0.016344187844137145,0.016782357147592703,0.0472885115768625,0.016247639527324755,0.017581722592691678
0.0879828,0.003310379008031155,0.0078231545992692,0.003711787724692518,0.016306325967791274,0.016884594020035264,0.04718742796972081,0.01631296138542178,0.01751573985495131
0.0884483,0.0033449629018026516,0.00781768763480403,0.0037129143322303,0.016267752122062596,0.01698667429436818,0.04708388927445135,0.016378028744581972,0.01744957304227646
0.0889138,0.003379851115742838,0.007811927836638789,0.0037143453125034202,0.016228482282292067,0.017088604802032663,0.046977949182967216,0.0164428368481926,0.017383237884934465
0.0893793,0.003415044024016494,0.007805878354641544,0.0037160907718912202,0.016188532333961024,0.0171903921152999,0.046869661268561895,0.016507380945602158,0.01731674998231447
0.0898448,0.0034505419077516053,0.007799542322265296,0.003718160816022744,0.01614791806846767,0.01729204254572821,0.046759078972855424,0.016571656293737313,0.017250124798785883
0.0903103,0.0034863449543718165,0.007792922855519661,0.0037205655472957342,0.0161066551790001,0.017393562142735228,0.046646255592900775,0.01663565815875596,0.01718337765962477
0.0907759,0.003522453256962133,0.007786023051963079,0.00372331506238838,0.01606475925650759,0.017494956692284704,0.04653124426845288,0.016699381817735403,0.017116523747008987
0.0912414,0.003558866813668256,0.007778845989716336,0.0037264194497640376,0.0160222457857718,0.017596231715687354,0.046414097969402525,0.01676282256039431,0.017049578096082887
0.0917069,0.003595585527129909,0.007771394726498152,0.003729888787169126,0.01597913014157953,0.017697392468515115,0.04629486948337702,0.01682597569084732,0.016982555591092338
0.0921724,0.0036326092039485006,0.00776367229868351,0.003733733139124418,0.01593542758499853,0.017798443939628195,0.04617361140350934,0.016888836529390962,0.016915470961590705
0.0926379,0.0036699375541894763,0.007755681720385385,0.0037379625544099212,0.015891153259757724,0.01789939085031414,0.04605037611637742,0.016951400414319726,0.016848338778716485
0.0931034,0.0037075701909196953,0.007747425982560458,0.0037425870635435566,0.01584632218873328,0.018000237653538226,0.04592521579011498,0.017013662703771103,0.016781173451543372
0.093569,0.003745506629780188,0.007738908052139436,0.003747616676253831,0.015800949270541743,0.0181009885333044,0.045798182362695165,0.017075618777598396,0.016713989223503554
0.0940345,0.0037837462885946574,0.007730130871182518,0.0037530613789467015,0.015755049276241433,0.018201647404125946,0.045669327530388375,0.017137264039270107,0.01664680016888508
0.0945,0.003822288487014081,0.007721097356060519,0.00375893113216684,0.015708636846143147,0.018302217910605083,0.04553870273639541,0.01719859391779454,0.016579620189404207
0.0949655,0.0038611324461977816,0.0077118103966621375,0.0037652358680535067,0.015661726486731226,0.01840270342712064,0.04540635915965711,0.01725960386966826,0.016512463010853694
0.095431,0.003900277288531338,0.007702272855627778,0.0037719854877912374,0.015614332567695852,0.018503107057622904,0.0452723477038412,0.01732028938084682,0.01644534217982777
0.0958966,0.0039397220373816755,0.007692487567610337,0.003779189859055549,0.015566469319077477,0.01860343163553471,0.04513671898650713,0.01738064596873607,0.016378271060524554
0.0963621,0.003979465616889701,0.007682457338563274,0.0037868588134538465,0.015518150828524126,0.01870367972375772,0.044999523328449045,0.01744066918420232,0.016311262831626545
0.0968276,0.004019506851800818,0.0076721849450562506,0.0037950021439616985,0.015469391038662402,0.018803853614782838,0.044860810743216996,0.017500354613599407,0.016244330483259618
0.0972931,0.004059844467333651,0.007661673133618564,0.0038036296023546247,0.01542020374458288,0.01890395533090355,0.0447206309268161,0.01755969788081065,0.01617748681403093
0.0977586,0.004100477089087304,0.007650924620110559,0.0038127508966355234,0.01537060259144053,0.019003986624531084,0.044579033247583076,0.017618694649303487,0.016110744428145998
0.0982241,0.004141403242987433,0.007639942089123155,0.0038223756884578413,0.015320601072170812,0.01910394897860998,0.044436066736239205,0.01767734062419459,0.016044115732605082
0.0986897,0.004182621355271417,0.007628728193405555,0.003832513590544578,0.01527021252532187,0.019203843607132853,0.044291780076118836,0.01773563155432313,0.015977612934478955
0.0991552,0.004224129752512915,0.0076172855533211846,0.0038431741641032145,0.01521945013300325,0.019303671455752944,0.044146221593572094,0.017793563234329856,0.015911248038263992
0.0996207,0.004265926661686062,0.007605616756331848,0.0038543669162366266,0.015168326918951432,0.01940343320249316,0.043999439248540606,0.017851131506739677,0.015845032843316533
0.1000862,0.004308010210269586,0.007593724356510058,0.0038661012973500593,0.015116855746712364,0.019503129258550234,0.04385148062530492,0.017908332264045385,0.01577897894136631
0.1005517,0.0043503784263911145,0.007581610874079466,0.003878386698554201,0.015065049317941157,0.019602759769192905,0.04370239292340257,0.01796516145079025,0.015713097714108698
0.1010172,0.004393029239011929,0.00756927879498328,0.003891232449064399,0.015012920170818943,0.019702324614753103,0.043552222948715726,0.01802161506564723,0.01564740033087557
0.1014828,0.0044359604781524205,0.007556730570480528,0.00390464781359602,0.014960480678586904,0.019801823411709434,0.043401017104727845,0.018077689163492745,0.015581897746384459
0.1019483,0.004479169875158498,0.00754396861676996,0.003918641989755971,0.014907743048197256,0.01990125551386244,0.04324882138394874,0.01813337985747313,0.015516600698565879
0.1024138,0.004522655063009187,0.007530995314641356,0.003933224105430362,0.014854719319081007,0.020000620013601245,0.04309568135950786,0.018188683321062025,0.01545151970646871
0.1028793,0.004566413576665667,0.007517813009153946,0.0039484032161683285,0.014801421362032073,0.02009991574326119,0.04294164217691585,0.018243595790107217,0.015386665068243634
0.1033448,0.004610442853461942,0.007504424009341641,0.003964188302562065,0.014747860878207304,0.02019914127657189,0.04278674854599497,0.01829811356486548,0.015322046859204675
0.1038103,0.004654740233537388,0.007490830587944796,0.003980588267623194,0.014694049398241782,0.02029829493019515,0.042631044732979004,0.018352233012024325,0.015257674929968929
0.1042759,0.004699302960311354,0.007477034981168191,0.003997611934155673,0.01463999828147867,0.020397374765352024,0.042474574552783716,0.018405950566709968,0.015193558904674567
0.1047414,0.004744128181000008,0.007463039388464963,0.0040152680421255416,0.014585718715312746,0.020496378589538376,0.04231738136144872,0.01845926273448104,0.015129708179277267
0.1052069,0.004789212947175648,0.007448845972346186,0.004033565246027855,0.01453122171464669,0.02059530395832827,0.04215950804875163,0.018512166093307855,0.015066131919925202
0.1056724,0.0048345542153686374,0.007434456858215851,0.0040525121122512026,0.014476518121459035,0.020694148177264587,0.04200099703099576,0.01856465729553716,0.015002839061412896
0.1061379,0.004880148847712158,0.007419874134230937,0.004072117116440222,0.014421618604482628,0.02079290830383626,0.04184189024397259,0.01861673306984228,0.014939838305714317
0.1066034,0.004925993612629933,0.007405099851186307,0.004092388640856535,0.014366533658992332,0.020891581149541396,0.04168222913610077,0.018668390223158627,0.014877138120595677
0.107069,0.004972085185567055,0.007390136022424143,0.004113334971738576,0.014311273606700679,0.020990163282035533,0.041522054661743114,0.01871962564260444,0.014814746738308366
0.1075345,0.005018420149764071,0.007374984623767654,0.004134964296660805,0.014255848595760135,0.02108865102736409,0.041361407274703776,0.01877043629738684,0.014752672154362417
0.108,0.005064994997074472,0.007359647593478818,0.0041572847018928535,0.014200268600870645,0.021187040472277888,0.04120032692190724,0.018820819240693107,0.014690922126380847
0.1084655,0.005111806128825766,0.0073441268322398945,0.0041803041697591374,0.014144543423491024,0.021285327466630585,0.04103885303726076,0.01887077161156728,0.01462950417303514
0.108931,0.005158849856724316,0.007328424203158487,0.004204030575999524,0.014088682692152821,0.021383507625856706,0.0408770245357016,0.01892029063677211,0.01456842557306215
0.1093966,0.005206122403804146,0.007312541531795925,0.004228471687131653,0.014032695862875129,0.021481576333528932,0.040714879807430375,0.018969373632636368,0.014507693364362657
0.1098621,0.005253619905419892,0.0072964806062187516,0.004253635157815507,0.013976592219678813,0.02157952874399335,0.04055245671233124,0.019018018006887467,0.014447314343181918
0.1103276,0.005301338410284079,0.007280243177073023,0.0042795285282209205,0.013920380875198474,0.021677359785081594,0.040389792574579864,0.01906622126046929,0.014387295063372515
0.1107931,0.005349273881548884,0.007263830957681124,0.0043061592213987435,0.01386407077139046,0.021775064160899055,0.04022692417743962,0.019113980989344942,0.014327641835739853
0.1112586,0.00539742219793253,0.00724724562416073,0.004333534540656459,0.01380767068033514,0.02187263635468863,0.04006388775824657,0.01916129488628413,0.014268360727470614
0.1117241,0.005445779154890475,0.00723048881556557,0.004361661666939093,0.013751189205131653,0.021970070631769718,0.03990071900358348,0.019208160742634577,0.014209457561644509
0.1121897,0.005494340465831529,0.0072135621340476104,0.004390547656216252,0.013694634780883308,0.022067361042552146,0.03973745304464338,0.01925457645007687,0.014150937916829507
0.1126552,0.005543101763379039,0.0071964671450403484,0.004420199436876122,0.013638015675771876,0.022164501425624625,0.039574124452782675,0.019300540002361942,0.014092807126760866
0.1131207,0.00559205860067723,0.007179205377462939,0.004450623807127232,0.013581339992218965,0.022261485410917443,0.039410767235263995,0.019346049497030258,0.01403507028010409
0.1135862,0.005641206452742785,0.007161778323944952,0.004481827432408799,0.01352461566813277,0.02235830642293897,0.0392474148311887,0.019391103137111673,0.0139777322203019
0.1140517,0.0056905407178617015,0.007144187441071611,0.004513816842810396,0.01346785047823849,0.022454957684085553,0.03908410010761872,0.01943569923280489,0.013920797545505306
0.1145172,0.005740056719031391,0.007126434149649389,0.00454659843050173,0.01341105203549077,0.022551432218024414,0.038920855355887476,0.01947983620313526,0.013864270608588676
0.1149828,0.0057897497054479954,0.0071085198349918844,0.004580178447173294,0.013354227792566488,0.02264772285314901,0.03875771228809934,0.019523512577589622,0.01380815551724868
0.1154483,0.005839614854038795,0.007090445847225896,0.004614563001488686,0.013297385043436286,0.02274382222610652,0.03859470203381744,0.0195667269977267,0.013752456134186932
0.1159138,0.0058896472710395905,0.0070722135016175955,0.004649758056549482,0.013240530925013143,0.02283972278539686,0.03843185513693926,0.019609478218761384,0.013697176077376026
0.1163793,0.005939841993616852,0.007053824078918713,0.004685769427373563,0.01318367241887628,0.022935416795042594,0.03826920155275991,0.019651765111121204,0.013642318720408705
0.1168448,0.0059901939915344175,0.007035278825732651,0.00472260277838792,0.013126816353068645,0.02303089633832911,0.03810677064522266,0.01969358666197303,0.013587887192929863
0.1173103,0.0060406981688644786,0.007016578954900409,0.004760263620936925,0.013069969403966288,0.023126153321614242,0.03794459118435625,0.019734941976717962,0.013533884381150956
0.1177759,0.006091349365742531,0.0069977256459061886,0.0047987573108071386,0.013013138098217844,0.023221179478206556,0.037782691343898445,0.019775830280452156,0.013480312928446484
0.1182414,0.0061421423601659714,0.006978720045302537,0.004838089045769685,0.01295632881475246,0.02331596637231135,0.037621098699105154,0.019816250919391185,0.013427175236032108
0.1187069,0.006193071869835956,0.006959563267154834,0.004878263863141253,0.012899547786854438,0.023410505403043395,0.03745984022474462,0.019856203362255444,0.013374473463723951
0.1191724,0.006244132554042097,0.006940256393504914,0.004919286637364786,0.012842801104302873,0.023504787808505307,0.037298942293275864,0.019895687201613884,0.01332220953077862
0.1196379,0.006295319015589525,0.006920800474853599,0.0049611620776109835,0.012786094715574438,0.023598804669930296,0.037138430673210855,0.019934702155183445,0.01327038511681357
0.1201034,0.006346625802767836,0.00690119653066185,0.0050038947254016555,0.012729434430107494,0.023692546915888183,0.036978330527659975,0.019973248067081287,0.013219001662807426
0.120569,0.006398047411361328,0.0068814455498702135,0.005047488952256043,0.012672825920625535,0.023786005326553374,0.036818666413060634,0.020011324909027073,0.013168060372180025
0.1210345,0.006449578286699936,0.006861548491436179,0.0050919489573611355,0.01261627472551791,0.023879170538033616,0.03665946227808924,0.0200489327814925,0.013117562211951836
0.1215,0.006501212825750221,0.006841506284889026,0.005137278765267004,0.012559786251275748,0.023972033046758198,0.03650074146275718,0.020086071914795185,0.01306750791398239
0.1219655,0.006552945379245766,0.006821319830901703,0.005183482223608143,0.012503365774980861,0.024064583213924212,0.036342526697691405,0.020122742670133986,0.013017897976287399
0.122431,0.006604770253856275,0.0068009900018792,0.0052305630008517645,0.012447018446845396,0.02415681126999942,0.036184840103600555,0.020158945540562842,0.012968732664434095
0.1228966,0.006656681714394714,0.006780517642562867,0.005278524584073966,0.012390749292799891,0.024248707319280114,0.03602770319092754,0.02019468115190018,0.012920012013014551
0.1233621,0.0067086739860618095,0.006759903570650061,0.0053273702767646525,0.012334563217127328,0.024340261344502432,0.03587113685968931,0.020229950263571026,0.012871735827196685
0.1238276,0.006760741256727229,0.00673914857742846,0.005377103196662075,0.012278465005140684,0.024431463211505362,0.03571516139950476,0.020264753769379234,0.012823903684352702
0.1242931,0.00681287767924675,0.006718253428424406,0.005427726273617802,0.012222459325901379,0.024522302673943765,0.035559796489811286,0.020299092698207483,0.01277651493576483
0.1247586,0.006865077373814741,0.006697218864064586,0.005479242247492923,0.012166550734975938,0.024612769378049563,0.03540506120027055,0.020332968214643147,0.012729568708408233
0.1252241,0.006917334430351202,0.006676045600350395,0.005531653666086242,0.012110743677228086,0.02470285286743925,0.03525097399136367,0.020366381619528372,0.012683063906811128
0.1256897,0.006969642910922635,0.006654734329544338,0.005584962883095161,0.01205504248964342,0.024792542587965757,0.035097552715176374,0.020399334350433212,0.012636999214992145
0.1261552,0.0070219968521959,0.006633285720867868,0.005639172056109976,0.011999451404183644,0.024881827892612726,0.03494481461637435,0.020431827982050742,0.012591373098475075
0.1266207,0.0070743902679242495,0.00661170042121006,0.005694283144642236,0.011943974550667369,0.024970698046429138,0.03479277633336933,0.020463864226513428,0.012546183806381101
0.1270862,0.007126817151464601,0.006589979055846567,0.005750297908187808,0.011888615959674272,0.025059142231502428,0.03464145389967633,0.02049544493363018,0.012501429373598641
0.1275517,0.007179271478325141,0.006568122229168339,0.0058072179043252466,0.011833379565469402,0.0251471495519683,0.034490862745462536,0.020526572091043957,0.012457107623030877
0.1280172,0.00723174720874227,0.006546130525419556,0.005865044486850078,0.011778269208944318,0.025234709039055475,0.03434101769928804,0.020557247824310298,0.01241321616792099
0.1284828,0.00728423829028589,0.00652400450944426,0.005923778803945522,0.011723288640571818,0.02532180965616359,0.034191932990038705,0.020587474396897756,0.01236975241425505
0.1289483,0.007336738660491974,0.006501744727441162,0.0059834217963901926,0.011668441523370935,0.025408440303972383,0.03404362224905135,0.0206172542101116,0.012326713563242468
0.1294138,0.0073892422495213834,0.006479351707726115,0.006043974195803273,0.011613731435879016,0.025494589825580123,0.03389609851243132,0.020646589802942598,0.012284096613873849
0.1298793,0.007441742982843816,0.006456825961501734,0.0061054365229276895,0.011559161875127729,0.025580247011669097,0.03374937422356261,0.020675483851842928,0.012241898365556036
0.1303448,0.007494234783945774,0.006434167983633712,0.006167809085951824,0.011504736259619976,0.025665400605695804,0.0336034612358106,0.020703939170431274,0.012200115420824104
0.1308103,0.007546711577061396,0.006411378253433325,0.006231091978870325,0.011450457932304654,0.025750039309103474,0.03345837081541732,0.020731958709129184,0.012158744188129997
0.1312759,0.007599167289924935,0.006388457235445695,0.0062952850798846565,0.011396330163546258,0.025834151786554488,0.03331411364458919,0.020759545554730682,0.012117780884707554
0.1317414,0.007651595856543665,0.006365405380243382,0.006360388049844045,0.011342356154086302,0.02591772667118027,0.033170699824777196,0.020786702929907076,0.012077221539513702
0.1322069,0.007703991219989923,0.006342223125224887,0.006426400330727526,0.011288539037993527,0.02600075256984636,0.03302813888014923,0.020813434192648795,0.0120370619962456
0.1326724,0.0077563473352109755,0.006318910895417688,0.00649332114416779,0.011234881885599825,0.026083218068430208,0.03288643976125431,0.02083974283564615,0.01199729791643351
0.1331379,0.007808658171855304,0.006295469104285463,0.006561149490017609,0.011181387706418916,0.02616511173710921,0.032745610848878524,0.02086563248561095,0.011957924782609155
0.1336034,0.007860917717113928,0.00627189815453917,0.006629884144959598,0.011128059452044882,0.026246422135656384,0.032605659958092115,0.02089110690254089,0.011918937901549229
0.134069,0.007913119978575325,0.006248198438951736,0.006699523661160247,0.011074900019027634,0.026327137818741114,0.03246659434248751,0.020916169978928763,0.011880332407593714
0.1345345,0.00796525898709244,0.006224370341176115,0.006770066364969163,0.011021912251722435,0.026407247341232242,0.03232842069860781,0.020940825738918374,0.01184210326603854
0.135,0.00801732879966027,0.006200414236566512,0.006841510355664594,0.010969098945110575,0.0264867392635008,0.032191145170565365,0.020965078337409085,0.011804245276602126
0.1354655,0.00806932350230237,0.006176330493002617,0.006913853504246301,0.010916462847588262,0.026565602156719704,0.0320547733548501,0.020988932059110916,0.011766753076965316
0.135931,0.008121237212964648,0.006152119471716781,0.006987093452276891,0.010864006663720676,0.02664382460815764,0.03191931030532679,0.021012391317552198,0.011729621146384142
0.1363966,0.008173064084414691,0.0061277815281241535,0.007061227610772698,0.010811733056958086,0.026721395226464772,0.03178476053842078,0.02103546065404179,0.01169284380937478
0.1368621,0.00822479830714483,0.0061033170126559835,0.007136253159145265,0.010759644652310812,0.02679830264694802,0.03165112803849125,0.021058144736587958,0.011656415239469985
0.1373276,0.008276434112277064,0.006078726271596417,0.007212167044194477,0.010707744038979883,0.026874535536833936,0.031518416263390844,0.02108044835877595,0.011620329463046227
0.1377931,0.00832796577446796,0.0060540096479232645,0.007288965979154381,0.010656033772940188,0.026950082600517414,0.031386628150210594,0.02110237643860615,0.011584580363220624
0.1382586,0.008379387614811561,0.006029167482153342,0.007366646442792772,0.010604516379473005,0.027024932584794326,0.03125576612120892,0.02112393401729456,0.011549161683816726
0.1387241,0.00843069400373833,0.006004200113192989,0.007445204678565693,0.010553194355644908,0.027099074284076256,0.031125832089923602,0.021145126258037324,0.01151406703339807
0.1391897,0.008481879363908195,0.005979107879194431,0.007524636693828066,0.010502070172730077,0.02717249654558547,0.030996827467465512,0.021165958444740833,0.011479289889368412
0.1396552,0.008532938173095769,0.005953891118418595,0.00760493825910171,0.010451146278573062,0.027245188274528064,0.03086875316899304,0.021186435980718888,0.011444823602137381
0.1401207,0.008583864967065808,0.005928550170104989,0.007686104907402028,0.010400425099889173,0.027317138439243296,0.03074160962036582,0.021206564387358438,0.011410661399350371
0.1405862,0.008634654342437039,0.005903085375349217,0.007768131933624646,0.010349909044499717,0.027388336076326965,0.03061539676497647,0.021226349302755198,0.011376796390181297
0.1410517,0.008685300959532464,0.005877497077988683,0.007851014393993303,0.010299600503499493,0.027458770295726628,0.030490114070758762,0.021245796480320375,0.011343221569686817
0.1415172,0.008735799545214237,0.005851785625496992,0.007934747105570312,0.010249501853354213,0.027528430285806444,0.03036576053737053,0.02126491178735972,0.011309929823220604
0.1419828,0.008786144895701266,0.005825951369887538,0.008019324645830946,0.010199615457925797,0.027597305318379277,0.030242334703549346,0.021283701203625896,0.01127691393090606
0.1424483,0.008836331879367606,0.005799994668626761,0.008104741352303088,0.010149943670423722,0.027665384753703733,0.03011983465463882,0.021302170819845152,0.011244166572165802
0.1429138,0.008886355439519726,0.005773915885557458,0.008190991322273508,0.010100488835280906,0.027732658045443705,0.029998258030283064,0.02132032683621921,0.011211680330306173
0.1433793,0.008936210597150692,0.005747715391832565,0.008278068412562014,0.01005125328995283,0.027799114745587904,0.0298776020322867,0.02133817556090323,0.011179447697154935
0.1438448,0.00898589245366923,0.005721393566859712,0.00836596623936474,0.010002239366638766,0.027864744509327057,0.029757863432637435,0.021355723408460668,0.011147461077750205
0.1443103,0.009035396193601665,0.005694950799256879,0.008454678178167729,0.009953449393924058,0.027929537099886347,0.02963903858168813,0.02137297689829574,0.011115712795078576
0.1447759,0.009084717087264549,0.005668387487819397,0.0085441973637319,0.009904885698342438,0.02799348239331084,0.029521123416495085,0.021389942653064438,0.011084195094860411
0.1452414,0.009133850493405822,0.005641704042498495,0.0086345166901505,0.009856550605857379,0.02805657038320166,0.02940411346930893,0.02140662739706512,0.011052900150380154
0.1457069,0.009182791861812289,0.005614900885391574,0.008725628810980018,0.00980844644326159,0.028118791185400626,0.02928800387621452,0.02142303795460971,0.011021820067359479
0.1461724,0.009231536735881231,0.005587978451744305,0.008817526139445609,0.009760575539493875,0.028180135042620846,0.029172789385915984,0.021439181248377095,0.010990946888870996
0.1466379,0.009280080755153986,0.005560937190964638,0.00891020084872196,0.009712940226872682,0.028240592329020736,0.02905846436866297,0.02145506429775021,0.010960272600290193
0.1471034,0.00932841965780946,0.005533777567648763,0.009003644872290589,0.009665542842245934,0.028300153554718804,0.028945022825313894,0.02147069421713837,0.01092978913428319
0.147569,0.009376549283115636,0.005506500062619007,0.009097849904374445,0.009618385728056887,0.028358809370246568,0.028832458396531733,0.021486078214286393,0.010899488375827793
0.1480345,0.009424465573837214,0.005479105173973646,0.00919280740045079,0.009571471233325923,0.028416550570936887,0.028720764372107934,0.021501223588572007,0.010869362167265294
0.1485,0.009472164578597623,0.005451593418148543,0.009288508577843059,0.009524801714548396,0.028473368101244848,0.028609933700409852,0.02151613772929274,0.010839402313380342
0.1489655,0.009519642454193667,0.005423965330990524,0.009384944416392533,0.0094783795365088,0.028529253058998377,0.028499958997947238,0.021530828113943516,0.010809600586506141
0.149431,0.009566895467861072,0.005396221468842326,0.009482105659210443,0.009432207073011617,0.02858419669957539,0.02839083255905329,0.021545302306486037,0.010779948731652169
0.1498966,0.009613919999489318,0.005368362409638937,0.009579982813511119,0.009386286707529353,0.028638190440004468,0.02828254636567614,0.021559567955610898,0.010750438471651528
0.1503621,0.009660712543784263,0.005340388754015115,0.009678566151526713,0.009340620833768385,0.02869122586298556,0.028175092097276692,0.021573632792993475,0.010721061512325053
0.1508276,0.009707269712377245,0.005312301126423794,0.009777845711503936,0.00929521185615337,0.028743294720827327,0.0280684611408288,0.021587504631544383,0.010691809547659279
0.1512931,0.009753588235879622,0.005284100176265122,0.009877811298783198,0.009250062190231053,0.028794388939297682,0.027962644600917744,0.02160119136365533,0.010662674264995523
0.1517586,0.009799664965881827,0.005255786579025789,0.009978452486960457,0.009205174262994414,0.028844500621383985,0.027857633309933,0.021614700959441097,0.010633647350227341
0.1522241,0.009845496876896263,0.005227361037428351,0.010079758619132026,0.00916055051312816,0.02889362205095953,0.02775341783835117,0.021628041464978234,0.010604720493003796
0.1526897,0.00989108106824347,0.005198824282590245,0.010181718809222542,0.00911619339117653,0.02894174569635288,0.02764998850510494,0.021641221000541066,0.0105758853919359
0.1531552,0.009936414765881144,0.005170177075192187,0.010284321943396233,0.009072105359634472,0.028988864213816797,0.027547335388033955,0.02165424775883535,0.010547133759803838
0.1536207,0.009981495324175593,0.0051414202066556725,0.010387556681551566,0.009028288892963149,0.029034970450893333,0.027445448334413394,0.02166713000323001,0.010518457328762554
0.1540862,0.010026320227615276,0.005112554500329285,0.010491411458899258,0.008984746477530843,0.029080057449671716,0.02734431697155607,0.02167987606598707,0.010489847855543468
0.1545517,0.010070887092466079,0.005083580812683538,0.010595874487623601,0.008941480611480427,0.02912411844993554,0.027243930717483707,0.02169249434649002,0.01046129712665015
0.1550172,0.010115193668367896,0.00505450003451396,0.010700933758626924,0.008898493804524753,0.029167146892195833,0.02714427879166333,0.021704993309470507,0.010432796963545826
0.1554828,0.010159237839872116,0.005025313092152121,0.01080657704335696,0.00885578857767145,0.029209136420606602,0.027045350225804624,0.021717381483233184,0.010404339227830614
0.1559483,0.01020301762791958,0.0049960209486843024,0.010912791895716801,0.008813367462878849,0.02925008088575962,0.02694713387471466,0.02172966745787837,0.010375915826406424
0.1564138,0.010246531191258455,0.004966624605177506,0.011019565654057054,0.008771233002644865,0.029289974347355283,0.026849618427206495,0.021741859883522112,0.010347518716627448
0.1568793,0.010289776827801543,0.004937125101912465,0.01112688544324967,0.008729387749530842,0.02932881107674669,0.02675279241705843,0.021753967468513106,0.010319139911434185
0.1573448,0.010332752975922446,0.004907523519623342,0.011234738176842913,0.008687834265622403,0.02936658555935439,0.026656644234020678,0.02176599897764569,0.010290771484468915
0.1578103,0.010375458215690055,0.004877820980743777,0.011343110559296841,0.008646575121929357,0.029403292496949646,0.026561162134866152,0.021777963230368198,0.010262405575170533
0.1582759,0.01041789127004088,0.004848018650658933,0.011451989088298576,0.008605612897726714,0.02943892680980437,0.026466334254481985,0.021789869098985764,0.010234034393846519
0.1587414,0.010460051005888813,0.004818117738963189,0.011561360057156592,0.008564950179838833,0.029473483638706166,0.02637214861699816,0.021801725506856533,0.010205650226719815
0.1592069,0.010501936435172042,0.0047881195007230945,0.011671209557273207,0.008524589561868705,0.0295069583468372,0.02627859314694975,0.021813541426580253,0.010177245440948234
0.1596724,0.010543546715836986,0.004758025237745191,0.01178152348069438,0.008484533643374351,0.029539346521516,0.02618565568046909,0.021825325878177884,0.010148812489614054
0.1601379,0.010584881152759185,0.004727836299848239,0.011892287522735849,0.00844478502899425,0.029570643975801846,0.026093323976504264,0.021837087927260936,0.010120343916681328
0.1606034,0.010625939198601164,0.0046975540861394025,0.012003487184684674,0.00840534632752371,0.02960084674996248,0.026001585728060057,0.021848836683188894,0.01009183236191841
0.161069,0.010666720454607325,0.004667180046293871,0.012115107776575164,0.008366220150944062,0.029629951112806953,0.025910428573457496,0.02186058129721319,0.010063270565783078
0.1615345,0.010707224671335934,0.004636715681837402,0.012227134420038114,0.00832740911340646,0.02965795356288624,0.025819840107607878,0.021872330960605868,0.010034651374267631
0.162,0.010747451749328242,0.004606162547431254,0.01233955205122231,0.008288915830172149,0.029684850829565023,0.025729807893297037,0.02188409490277117,0.01000596774370123
0.1624655,0.010787401739714764,0.004575522252158949,0.012452345423787176,0.008250742916510886,0.029710639873968093,0.02564031947247545,0.021895882389337984,0.009977212745506673
0.162931,0.010827074844758764,0.0045447964608143245,0.012565499111965413,0.008212892986559259,0.029735317889804942,0.025551362377549583,0.02190770272023122,0.009948379570908739
0.1633966,0.010866471418337013,0.004513986895190314,0.012678997513694437,0.008175368652140523,0.02975888230407602,0.025462924142669686,0.021919565227720043,0.009919461535591145
0.1638621,0.010905591966357939,0.004483095335367914,0.0127928248538154,0.0081381725215476,0.029781330777664077,0.02537499231500888,0.021931479274440724,0.009890452084299083
0.1643276,0.010944437147117382,0.004452123621004771,0.012906965187338503,0.008101307198290796,0.029802661205813805,0.02528755446602836,0.021943454251392037,0.009861344795384253
0.1647931,0.010983007771592241,0.004421073652622842,0.013021402402773217,0.008064775279811852,0.029822871718503112,0.02520059820272318,0.021955499575901084,0.00983213338528923
0.1652586,0.011021304803672395,0.00438994739289459,0.013136120225521996,0.008028579356165938,0.029841960680708966,0.025114111178842935,0.02196762468955739,0.009802811712967877
0.1657241,0.011059329360331507,0.004358746867927146,0.013251102221336063,0.00799272200867326,0.029859926692570767,0.025028081106081422,0.021979839056113126,0.009773373784238605
0.1661897,0.01109708271173737,0.004327474168543909,0.013366331799831663,0.00795720580854197,0.029876768589454036,0.02494249576522926,0.021992152159347245,0.009743813756067216
0.1666552,0.011134566281302813,0.004296131451563041,0.013481792218065228,0.007922033315464056,0.029892485441917152,0.024857343017283144,0.022004573500891245,0.009714125940776279
0.1671207,0.011171781645678265,0.004264720941072315,0.013597466584165704,0.007887207076185936,0.029907076555583847,0.024772610814505425,0.022017112598014334,0.00968430481017805
0.1675862,0.011208730534687277,0.004233244929699778,0.013713337861022275,0.007852729623055398,0.029920541470924093,0.024688287211427806,0.02202977898136578,0.009654344999628294
0.1680517,0.011245414831206486,0.004201705779879682,0.01382938887002562,0.007818603472546617,0.029932879962945958,0.024604360375792927,0.02204258219267227,0.009624241311998419
0.1685172,0.01128183657099143,0.004170105925113122,0.013945602294860734,0.007784831123764916,0.029944092040801163,0.024520818599427605,0.022055531782388414,0.00959398872156363
0.1689828,0.011317997942449684,0.004138447871222785,0.01406196068534927,0.007751415056932964,0.029954177947306967,0.02443765030904155,0.022068637307298553,0.009563582377804998
0.1694483,0.011353901286362761,0.0041067341976012,0.014178446461339334,0.0077183577318600234,0.029963138158387147,0.024354844076945343,0.02208190832806801,0.009533017609123791
0.1699138,0.011389549095558145,0.004074967558451839,0.014295041916640536,0.007685661586395849,0.029970973382434745,0.02427238863168141,0.022095354406742276,0.00950228992646674
0.1703793,0.011424944014532777,0.004043150684022399,0.0144117292230021,0.007653329034870786,0.029977684559599264,0.024190272868561808,0.02210898510419265,0.009471395026861316
0.1708448,0.01146008883902937,0.00401128638182957,0.014528490434131803,0.007621362466523561,0.029983272861000814,0.024108485860106662,0.02212280997750761,0.009440328796860251
0.1713103,0.01149498651556688,0.003979377537874552,0.014645307489753505,0.007589764243918254,0.02998773968787367,0.024027016866377187,0.02213683857732943,0.009409087315894708
0.1717759,0.011529640140926408,0.0039474271178485945,0.014762162219700947,0.007558536701351915,0.029991086670641424,0.02394585534519716,0.022151080445136175,0.009377666859535488
0.1722414,0.011564052961593862,0.0039154381683277496,0.014879036348045547,0.007527682143254289,0.029993315667925863,0.023864990962256926,0.022165545110469483,0.00934606390266181
0.1727069,0.011598228373160517,0.003883413817956042,0.014995911497255798,0.007497202842581116,0.029994428765491424,0.02378441360109378,0.02218024208810876,0.009314275122537198
0.1731724,0.01163216991968269,0.003851357278616219,0.015112769192385763,0.007467101039202476,0.02999442827512696,0.02370411337294283,0.022195180875192698,0.009282297401792058
0.1736379,0.011665881293001579,0.003819271846587232,0.015229590865290087,0.007437378938287672,0.029993316733466384,0.02362408062645254,0.022210370948289343,0.009250127831312556
0.1741034,0.011699366332024336,0.0037871609036875644,0.015346357858862819,0.007408038708688113,0.029991096900749595,0.023544305957259308,0.02222582176041637,0.009217763713035428
0.174569,0.01173262902196731,0.0037550279184035092,0.015463051431297184,0.007379082481319655,0.029987771759524953,0.023464780217415496,0.02224154273801365,0.009185202562648327
0.1750345,0.011765673493562287,0.0037228764470014614,0.015579652760363358,0.007350512347545889,0.02998334451329427,0.023385494524665484,0.02225754327787082,0.009152442112195234
0.1755,0.011798504022226564,0.0036907101346232672,0.015696142947701174,0.007322330357563837,0.02997781858510127,0.02330644027156439,0.022273832744012897,0.009119480312586453
0.1759655,0.01183112502719749,0.0036585327163636554,0.01581250302312455,0.007294538518793493,0.029971197616064104,0.023227609134434096,0.022290420464547326,0.0090863153360127
0.176431,0.011863541070632092,0.003626348018328758,0.01592871394893448,0.007267138794272657,0.02996348546385244,0.023148993082151313,0.022307315728476055,0.0090529455782628
0.1768966,0.011895756856672256,0.0035941599586747186,0.016044756624237492,0.007240133101058494,0.02995468620110965,0.023070584384762675,0.022324527782476303,0.00901936966094459
0.1773621,0.011927777230475863,0.0035619725486254125,0.016160611889266617,0.007213523308637203,0.02994480411382053,0.02299237562192205,0.022342065827653686,0.008985586433608616
0.1778276,0.011959607177214195,0.0035297898934682783,0.01627626052970238,0.007187311237343122,0.029933843699625005,0.022914359691145622,0.022359939016271396,0.00895159497577431
0.1782931,0.011991251821035791,0.003497616193527287,0.016391683280991637,0.007161498656788634,0.029921809666078363,0.02283652981588082,0.02237815644845925,0.008917394598858286
0.1787586,0.012022716423996821,0.0034654557451120477,0.016506860832662534,0.007136087284306123,0.029908706928858757,0.022758879553385552,0.022396727168906474,0.008882984848004451
0.1792241,0.012054006384958004,0.0034333129414420515,0.01662177383263426,0.0071110787834032275,0.02989454060992254,0.022681402802414888,0.022415660163542295,0.008848365503815632
0.1796897,0.012085127238447936,0.0034011922735450264,0.016736402891520567,0.007086474762232612,0.02987931603560812,0.02260409381071275,0.02243496435620834,0.008813536583986429
0.1801552,0.012116084653492657,0.003369098331128358,0.016850728586926173,0.007062276772077458,0.029863038734688645,0.022526947182307033,0.022454648605327036,0.008778498344836958
0.1806207,0.012146884432411107,0.003337035803422505,0.016964731467735302,0.007038486305853861,0.029845714436373974,0.022449957884606943,0.02247472170057003,0.008743251282747137
0.1810862,0.012177532509576115,0.0033050094799953215,0.017078392058391612,0.007015104796631302,0.02982734906826205,0.022373121255301495,0.022495192359530573,0.008707796135491136
0.1815517,0.012208034950140455,0.0032730242515361806,0.01719169086316878,0.0069921336161723685,0.02980794875423966,0.02229643300905814,0.02251606922440382,0.008672133883471678
0.1820172,0.012238397948727414,0.0032410851106087902,0.01730460837043107,0.006969574073492909,0.02978751981233264,0.022219889244020387,0.022537360858678714,0.008636265750853793
0.1824828,0.012268627828085212,0.0032091971523715975,0.017417125056883337,0.006947427413443799,0.02976606875250536,0.022143486448103093,0.02255907574384525,0.008600193206597632
0.1829483,0.012298731037704576,0.003177365575264703,0.01752922139181009,0.006925694815315573,0.029743602274409545,0.022067221505084042,0.022581222276120597,0.008563917965389953
0.1834138,0.012328714152398619,0.0031455956816622554,0.017640877841303654,0.0069043773914672065,0.02972012726508231,0.021991091700490167,0.022603808763197314,0.008527441988473832
0.1838793,0.012358583870844094,0.0031138928784893204,0.017752074872481823,0.006883476185980427,0.02969565079659358,0.02191509472727682,0.022626843421016986,0.008490767484376218
0.1843448,0.012388347014083057,0.003082262677802284,0.017862792957695706,0.006862992173340963,0.029670180123642968,0.02183922869129816,0.022650334370572223,0.008453896909532839
0.1848103,0.012418010523983804,0.003050710697331871,0.017973012578729086,0.0068429262571482,0.02964372268110647,0.021763492116566654,0.022674289634739952,0.008416832968810007
0.1852759,0.012447581461659947,0.0030192426609879125,0.018082714230990782,0.006823279268854675,0.02961628608153347,0.02168788395029958,0.022698717135148757,0.008379578615922782
0.1857414,0.012477067005846356,0.0029878643993250377,0.018191878427702087,0.006804051966536854,0.02958787811259456,0.021612403567750096,0.022723624689083118,0.00834213705374897
0.1862069,0.012506474451230655,0.0029565818499684353,0.0183004857040815,0.00678524503369857,0.02955850673448076,0.021537050776820426,0.022749020006427246,0.008304511734538412
0.1866724,0.01253581120673887,0.0029254010579988707,0.018408516621529303,0.006766859078108481,0.029528180077254666,0.02146182582245453,0.02277491068665121,0.008266706360016987
0.1871379,0.01256508479377377,0.0028943281762961004,0.01851595177181454,0.006748894630672853,0.02949690643815426,0.021386729390807473,0.022801304215841995,0.008228724881384767
0.1876034,0.012594302844404407,0.00286336946583984,0.018622771781267075,0.0067313521443449365,0.029464694278850324,0.02131176261318873,0.022828207963781964,0.00819057149920772
0.188069,0.012623473099505343,0.0028325312959674126,0.018728957314977313,0.006714231993072165,0.02943155222265869,0.02123692706977648,0.022855629181076958,0.008152250663202371
0.1885345,0.012652603406843991,0.002801820144587207,0.01883448908100602,0.006697534470782369,0.029397489051708713,0.021162224793099916,0.02288357499633625,0.00811376707191285
0.189,0.012681701719114544,0.002771242598347043,0.018939347834606737,0.006681259790410113,0.029362513704069657,0.021087658271286586,0.022912052413406325,0.008075125672279774
0.1894655,0.012710776091916934,0.0027408053527565425,0.019043514382462996,0.006665408082964232,0.029326635270836846,0.021013230451071643,0.0229410683086604,0.008036331659100464
0.189931,0.01273983468167929,0.0027105152122626004,0.019146969586942616,0.006649979396637578,0.029289862993179632,0.020938944740565926,0.022970629428345508,0.00799739047438011
0.1903966,0.012768885743522295,0.002680379090277088,0.01924969437037109,0.0066349736959599405,0.02925220625935346,0.020864805011779793,0.023000742385988832,0.007958307806573648
0.1908621,0.012797937629063836,0.002650404009155968,0.019351669719326087,0.006620390860995048,0.02921367460167878,0.020790815602899793,0.023031413659865076,0.007919089589718275
0.1913276,0.012826998784162316,0.0026205971001290926,0.019452876688954925,0.006606230686582531,0.029174277693489643,0.020716981320315398,0.023062649590526303,0.007879742002456735
0.1917931,0.012856077746596887,0.0025909656031800525,0.019553296407316775,0.006592492881625667,0.02913402534605516,0.020643307440393374,0.023094456378395786,0.007840271466951643
0.1922586,0.012885183143682881,0.0025615168668755633,0.019652910079751177,0.006579177068425719,0.029092927505476963,0.020569799710997903,0.02312684008142713,0.00780068464769131
0.1927241,0.012914323689820545,0.0025322583481439897,0.019751698993274378,0.006566282782063603,0.029050994249565594,0.02049646435275482,0.023159806612829775,0.007760988450187691
0.1931897,0.01294350818397522,0.0025031976120026777,0.019849644521004822,0.006553809469829591,0.029008235784698796,0.020423308060058692,0.023193361738861787,0.007721190019567407
0.1936552,0.012972745507086984,0.0024743423312338624,0.019946728126618962,0.0065417564907017355,0.028964662442664362,0.02035033800182182,0.023227511076690754,0.007681296739056862
0.1941207,0.01300204461940776,0.002445700286008965,0.020042931368838463,0.006530123114873633,0.02892028467749026,0.020277561821964652,0.02326226009232333,0.007641316228362617
0.1945862,0.013031414557763915,0.002417279363461122,0.02013823590594977,0.006518908523332152,0.02887511306226451,0.02020498763964736,0.02329761409860385,0.007601256341948192
0.1950517,0.013060864432742294,0.0023890875572058125,0.02023262350035688,0.00650811180748567,0.02882915828594725,0.02013262404924243,0.023333578253282476,0.007561125167208449
0.1955172,0.01309040342579768,0.0023611329668094517,0.020326076023168098,0.006497731968843375,0.028782431150177284,0.0200604801200482,0.02337015755715315,0.0075209310225426255
0.1959828,0.013120040786279735,0.0023334237972057956,0.020418575458817506,0.0064877679187461445,0.028734942566075308,0.01998856539574323,0.023407356852261516,0.0074806824553271065
0.1964483,0.013149785828377636,0.0023059683580600263,0.020510103909721952,0.006478218478149457,0.028686703551045703,0.019916889893581525,0.0234451808201831,0.00744038823978895
0.1969138,0.01317964792798085,0.0022787750630803624,0.020600643600974338,0.006469082377458795,0.02863772522557868,0.01984546410332867,0.023483633980371836,0.007400057374781188
0.1973793,0.013209636519454792,0.0022518524292770765,0.020690176885074053,0.006460358256417946,0.028588018810054232,0.019774298985939073,0.023522720688578795,0.007359699081460868
0.1978448,0.01323976109233039,0.002225209076168802,0.0207786862466955,0.006452044664050555,0.02853759562154922,0.019703405971974595,0.02356244513534114,0.0073193228008708545
0.1983103,0.013270031187906746,0.0021988537249360324,0.020866154307495645,0.006444140058655255,0.02848646707064872,0.01963279695976481,0.023602811344541026,0.007278938191426377
0.1987759,0.013300456395766226,0.0021727951975217376,0.020952563830961616,0.006436642807854668,0.028434644658262443,0.01956248431330923,0.023643823172034145,0.007238555126307392
0.1992414,0.013331046350201462,0.0021470424156790346,0.021037897727299297,0.0064295511886984765,0.028382139972446926,0.019492480859921908,0.02368548430434754,0.00719818369075776
0.1997069,0.013361810726553888,0.002121604399965871,0.021122139058363947,0.006422863387820815,0.028328964685233934,0.019422799887618965,0.023727798257446385,0.007157834179292253
0.2001724,0.013392759237463655,0.002096490268686732,0.02120527104263372,0.0064165775016520885,0.0282751305494652,0.019353455142249718,0.023770768375569254,0.007117517092812389
0.2006379,0.013423901629030979,0.0020717092367814167,0.02128727706022688,0.006410691536685398,0.028220649395633658,0.019284460824372147,0.023814397830131635,0.007077243135631995
0.2011034,0.013455247676889218,0.0020472706146609982,0.021368140657963372,0.0064052034097976905,0.02816553312873094,0.019215831585873477,0.023858689618697384,0.007037023212413391
0.201569,0.01348680718219013,0.002023183806991086,0.021447845554471236,0.006400110948625705,0.02810979372510117,0.0191475825263365,0.023903646564018034,0.006996868425015069
0.2020345,0.013518589967501797,0.001999458311422546,0.02152637564533818,0.0063954118919967735,0.028053443229301023,0.019079729189152204,0.02394927131313972,0.006956790069251646
0.2025,0.01355060587261996,0.0019761037172698302,0.021603715008308422,0.006391103890414499,0.02799649375096636,0.019012287557379184,0.023995566336577605,0.006916799631566898
0.2029655,0.013582864750293494,0.0019531297041370855,0.021679847908524758,0.006387184506599316,0.027938957461686273,0.018945274049350033,0.024042533927557716,0.006876908785620689
0.203431,0.013615376461865048,0.0019305460404922274,0.02175475880381553,0.006383651216083908,0.02788084659188566,0.01887870551402493,0.024090176201325995,0.006837129388790603
0.2038966,0.013648150872828032,0.00190836258218918,0.021828432350026187,0.006380501407863449,0.02782217342771792,0.018812599226092373,0.02413849509452453,0.0067974734785891085
0.2043621,0.013681197848301418,0.0018865892709385103,0.02190085340639467,0.006377732385100642,0.027762950307969634,0.018746972880816955,0.024187492364635212,0.0067579532689971
0.2048276,0.013714527248424003,0.0018652361327267028,0.02197200704096994,0.006375341365885468,0.027703189620979538,0.01868184458863396,0.02423716958949128,0.006718581146714691
0.2052931,0.013748148923669943,0.0018443132761843397,0.02204187853607257,0.006373325484049548,0.027642903801574234,0.018617232869490644,0.024287528166857423,0.006679369667330171
0.2057586,0.013782072710087486,0.0018238308909034665,0.022110453393796192,0.006371681790034957,0.027582105328023382,0.01855315664693412,0.024338569314079034,0.006640331551408105
0.2062241,0.013816308424462813,0.0018037992457044533,0.02217771734154857,0.006370407251817311,0.027520806719017306,0.018489635241946186,0.024390294067801348,0.006601479680497561
0.2066897,0.01385086585941099,0.0017842286868526842,0.022243656337630674,0.006369498755882869,0.027459020530669925,0.01842668836652589,0.024442703283758836,0.006562827093061506
0.2071552,0.013885754778396117,0.001765129636225439,0.022308256576852176,0.006368953108259423,0.02739675935354991,0.018364336117021037,0.02449579763663531,0.006524386980328395
0.2076207,0.013920984910682934,0.0017465125894293462,0.022371504496181454,0.006368767035600625,0.027334035809742745,0.018302598967210433,0.024549577619995006,0.006486172682066978
0.2080862,0.013956565946222424,0.0017283881138687972,0.022433386780428152,0.006368937186323416,0.027270862549946512,0.018241497761139088,0.024604043546284704,0.006448197682285335
0.2085517,0.013992507530474213,0.001710766846765718,0.022493890367956043,0.006369460131798146,0.02720725225060398,0.018181053705709292,0.024659195546907153,0.0064104756048551405
0.2090172,0.014028819259168802,0.0016936594931310912,0.022553002456423926,0.006370332367590938,0.02714321761107346,0.01812128836303104,0.024715033572366044,0.006373020209062173
0.2094828,0.014065510673012819,0.0016770768236886125,0.022610710508552036,0.006371550314757802,0.027078771350840834,0.018062223642535884,0.02477155739248278,0.0063358453850840555
0.2099483,0.014102591252340646,0.0016610296727508683,0.022667002257911312,0.006373110321189981,0.027013926206774775,0.018003881792858653,0.024828766596685356,0.0062989651493961865
0.2104138,0.014140070411715807,0.0016455289360484274,0.022721865714732704,0.006375008663009955,0.026948694930427154,0.017946285393491707,0.024886660594369614,0.006262393640106823
0.2108793,0.014177957494485518,0.0016305855685122517,0.022775289171733597,0.0063772415460175026,0.026883090285380433,0.01788945734621676,0.024945238615332845,0.006226145112222234
0.2113448,0.014216261767291799,0.0016162105820098588,0.02282726120995827,0.006379805107185157,0.026817125044643716,0.01783342086631938,0.025004499710279786,0.006190233932842868
0.2118103,0.01425499241454241,0.001602415043035706,0.022877770704629135,0.00638269541620238,0.026750811988099137,0.017778199473591494,0.025064442751400757,0.006154674576291506
0.2122759,0.014294158532844926,0.001589210070356309,0.022926806831005377,0.006385908477067673,0.026684163900000384,0.01772381698312735,0.025125066433021717,0.006119481619174388
0.2127414,0.014333769125407044,0.001576606832610652,0.02297435907024566,0.006389440229727862,0.026617193566525102,0.017670297495918474,0.025186369272325648,0.006084669735376483
0.2132069,0.014373833096406293,0.0015646165458664794,0.023020417215271177,0.00639328655176369,0.02654991377338305,0.017617665389253405,0.025248349610144705,0.0060502536909922385
0.2136724,0.01441435924533223,0.0015532504711330845,0.0230649713766255,0.006397443260120851,0.02648233730348177,0.01756594530692805,0.02531100561182237,0.006016248339193377
0.2141379,0.014455356261304246,0.0015425199118312084,0.02310801198832738,0.006401906112885559,0.026414476934651435,0.017515162149272696,0.02537433526814458,0.005982668615035495
0.2146034,0.014496832717368227,0.0015324362112206723,0.02314952981371257,0.006406670811103733,0.02634634543743045,0.017465341063001957,0.025438336396338784,0.005949529530205437
0.215069,0.014538797064775332,0.0015230107497863593,0.02318951595126054,0.006411733000642811,0.026277955572913344,0.017416507430894037,0.025503006641139535,0.005916846167711503
0.2155345,0.01458125762724624,0.0015142549425831502,0.023227961840401774,0.006417088274095192,0.02620932009066238,0.017368686861306135,0.025568343475919224,0.0058846336765187475
0.216,0.014624222595224258,0.001506180236540414,0.023264859267301242,0.006422732172722282,0.02614045172668429,0.017321905177533056,0.025634344203882324,0.005852907266131827
0.2164655,0.014667700020120706,0.001498798107726648,0.02330020037061332,0.006428660188438053,0.026071363201473293,0.017276188407016384,0.025701005959321364,0.0058216822011279935
0.216931,0.014711697808556058,0.0014921200585748466,0.02333397764720341,0.006434867765831084,0.026002067218121535,0.017231562770411706,0.025768325708932654,0.005790973795642988
0.2173966,0.01475622371660034,0.001486157615069171,0.0233661839578313,0.006441350304224003,0.025932576460497906,0.017188054670521462,0.025836300253189597,0.005760797407812607
0.2178621,0.014801285344016217,0.0014809223238934897,0.023396812532791335,0.0064481031597692666,0.025862903591496046,0.017145690681100802,0.02590492622777122,0.005731168434172687
0.2183276,0.014846890128508273,0.001476425749542342,0.023425856977504236,0.006455121647580241,0.025793061251352417,0.017104497535543748,0.02597420010504327,0.005702102304020258
0.2187931,0.01489304533998195,0.001472679471394882,0.023453311278055344,0.006462401043896475,0.025723062056035327,0.017064502115456848,0.02604411819558908,0.005673614473738547
0.2192586,0.014939758074815597,0.0014696950807523456,0.023479169806673972,0.006469936588282094,0.02565291859570602,0.017025731439127407,0.026114676649787227,0.005645720421088491
0.2197241,0.014987035250149083,0.001467484177839584,0.023503427327148274,0.006477723485856128,0.025582643433253047,0.01698821264989323,0.026185871459432596,0.005618435639469389
0.2201897,0.015034883598192305,0.0014660583687712103,0.02352607900016994,0.006485756909553646,0.02551224910290137,0.016951973004420792,0.026257698459397637,0.005591775632151317
0.2206552,0.015083309660557013,0.0014654292624829035,0.023547120388602884,0.006494032002416437,0.025441748108897638,0.016917039860898656,0.02633015332933016,0.005565755906481935
0.2211207,0.015132319782615165,0.0014656084676284249,0.023566547462670007,0.0065025438799120325,0.025371152924273176,0.01688344066715286,0.026403231595383977,0.005540391968070302
0.2215862,0.015181920107887032,0.0014666075894429066,0.023584356605051815,0.006511287632279772,0.025300475989685843,0.016851202948690965,0.0264769286319786,0.005515699314950292
0.2220517,0.015232116572462156,0.0014684382265729916,0.02360054461589082,0.0065202583269026405,0.025229729712341966,0.016820354296681245,0.02655123966358388,0.005491693431726206
0.2225172,0.015282914899456245,0.0014711119678744106,0.02361510871769531,0.006529451010703545,0.025158926464999308,0.016790922355873525,0.026626159766525583,0.0054683897837031325
0.2229828,0.015334320593507197,0.0014746403891775966,0.023628046560136135,0.006538860712564673,0.025088078585051743,0.01676293481246801,0.02670168387080767,0.005445803811004599
0.2234483,0.015386338935313434,0.0014790350500219391,0.023639356224729777,0.006548482445768518,0.025017198373696228,0.016736419381938497,0.026777806761947093,0.005423950922680059
0.2239138,0.015438974976217991,0.001484307490359291,0.023649036229401215,0.006558311210459149,0.02494629809518235,0.016711403796816283,0.026854523082817112,0.005402846490804715
0.2243793,0.01549223353284189,0.0014904692272273362,0.023657085532919786,0.006568341996122205,0.024875389976144704,0.01668791579444089,0.02693182733549544,0.005382505844574212
0.2248448,0.015546119181770438,0.0014975317513934423,0.02366350353920106,0.006578569784082113,0.02480448620501798,0.016665983104683764,0.027009713883114076,0.005362944264396724
0.2253103,0.015600636254296182,0.0015055065239696166,0.02366829010146776,0.00658898955001497,0.02473359893153467,0.01664563343765096,0.027088176951707815,0.005344176975984922
0.2257759,0.015655788831222133,0.0015144049729992125,0.023671445526262602,0.006599596266475533,0.024662740266305164,0.0166268944713706,0.027167210632058635,0.005326219144450331
0.2262414,0.015711580737728825,0.001524238490016038,0.023672970577305868,0.006610384905436711,0.024591922280479815,0.016609793839470897,0.027246808881533306,0.0053090858684025095
0.2267069,0.015768015538308686,0.001535018426576541,0.023672866479190303,0.006621350440839967,0.024521157005492508,0.016594359118854346,0.027326965525911386,0.005292792174055505
0.2271724,0.015825096531771065,0.0015467560907657563,0.023671134920905827,0.006632487851155013,0.024450456432885,0.01658061781737356,0.02740767426120088,0.005277353009343995
0.2276379,0.015882826746321216,0.001559462743677715,0.023667778059186552,0.006643792121947235,0.024379832514211296,0.016568597361514215,0.027488928655438758,0.005262783238051468
0.2281034,0.01594120893471644,0.001573149595871024,0.023662798521672523,0.0066552582484512585,0.02430929716102099,0.016558325084090303,0.02757072215047363,0.005249097633952793
0.228569,0.016000245569502566,0.001587827803800323,0.023656199409878634,0.0066668812381491015,0.02423886224492055,0.01654982821195685,0.027653048063727783,0.00523631087497344
0.2290345,0.01605993883833381,0.0016035084662243393,0.02364798430196344,0.006678656113351351,0.0241685395977113,0.016543133853745156,0.02773589958993602,0.005224437537367631
0.2295,0.016120290639379035,0.0016202026205912644,0.02363815725529102,0.006690577913779769,0.02409834101160278,0.016538268987625407,0.027819269802858725,0.0052134920899176256
0.2299655,0.016181302576817297,0.0016379212394022125,0.023626722808779754,0.006702641699149722,0.024028278239500024,0.016535260449101436,0.027903151656966912,0.005203488888156341
0.230431,0.016242975956425477,0.001656675226553556,0.023613685985032558,0.006714842551750755,0.02395836299536327,0.01653413491884229,0.027987537989097196,0.0051944421686154416
0.2308966,0.016305311781260663,0.001676475413658957,0.023599052292243898,0.006727175579023631,0.023888606954638302,0.016534918910555096,0.02807242152007487,0.005186366043101047
0.2313621,0.016368310747439906,0.0016973325563519562,0.02358282772587952,0.006739635916132079,0.023819021754755493,0.01653763875890368,0.028157794856303348,0.005179274492999132
0.2318276,0.016431973240019878,0.0017192573305699873,0.02356501877012526,0.006752218728527405,0.023749618995695543,0.016542320607477193,0.028243650491318578,0.005173181363612716
0.2322931,0.016496299328978926,0.001742260328820712,0.023545632399101526,0.0067649192145041535,0.02368041024061967,0.01654899039681298,0.028329980807306917,0.005168100358532864
0.2327586,0.016561288765303887,0.0017663520564315633,0.023524676077840263,0.006777732607744908,0.023611407016561833,0.0165576738524777,0.02841677807658505,0.005164045034045531
0.2332241,0.016626940977184014,0.0017915429277833939,0.02350215776302127,0.0067906541798523345,0.02354262081518062,0.01656839647321069,0.028504034463040548,0.005161028793576254
0.2336897,0.016693255066314323,0.0018178432625291418,0.02347808590346516,0.006803679242866534,0.023474063093568268,0.01658118351913334,0.028591742023531312,0.005159064882174674
0.2341552,0.016760229804310432,0.0018452632817984262,0.023452469440380545,0.006816803151765816,0.023405745275114492,0.01659606000002825,0.028679892709242136,0.005158166381040857
0.2346207,0.016827863629237057,0.0018738131043889996,0.023425317807363736,0.006830021306948967,0.023337678750422884,0.01661305066369168,0.02876847836699641,0.005158346202095335
0.2350862,0.01689615464225211,0.0019035027429459912,0.02339664093014983,0.006843329156697114,0.023269874878277596,0.016632179984362797,0.02885749074052087,0.005159617082594785
0.2355517,0.01696510060436835,0.00193434210012988,0.023366449226114677,0.006856722199613281,0.02320234498665827,0.016653472151233233,0.028946921471661127,0.005161991579795267
0.2360172,0.01703469893333439,0.0019663409647741447,0.02333475360352813,0.006870195987037657,0.023135100373801048,0.016676951057040274,0.029036762101545568,0.005165482065664887
0.2364828,0.0171049467006367,0.001999509008033546,0.02330156546055958,0.006883746125436639,0.02306815230930362,0.01670264028674704,0.02912700407169523,0.005170100721647801
0.2369483,0.017175840628624244,0.0020338557795239968,0.02326689668403759,0.006897368278763634,0.023001512035272138,0.016730563106312962,0.02921763872507721,0.005175859533481425
0.2374138,0.017247377087757206,0.0020693907034549847,0.02323075964796607,0.006911058170789699,0.02293519076750807,0.016760742451557675,0.02930865730709925,0.005182770286068716
0.2378793,0.017319552093981252,0.0021061230747555,0.023193167211799825,0.006924811587402145,0.022869199696732716,0.01679320091712146,0.02940005096654314,0.005190844558407362
0.2383448,0.017392361306228604,0.0021440620551944067,0.023154132718482663,0.0069386243788694246,0.02280354998984712,0.016827960745525148,0.029491810756434627,0.005200093718577693
0.2388103,0.017465800024047143,0.0021832166694961915,0.02311366999225139,0.00695249246207084,0.022738252791225048,0.01686504381633238,0.0295839276348475,0.005210528918791076
0.2392759,0.017539863185358658,0.002223595801453009,0.023071793336209085,0.006966411822689779,0.02267331922403666,0.016904471635417046,0.029676392465639384,0.005222161090500541
0.2397414,0.017614545364347336,0.0022652081900339407,0.02302851752967104,0.0069803785173694136,0.02260876039160047,0.016946265324338728,0.029769196019117018,0.005235000939575344
0.2402069,0.017689840769479423,0.0023080624254923758,0.022983857825286596,0.006994388675829923,0.022544587378761177,0.01699044560982897,0.029862328972628718,0.005249058941541127
0.2406724,0.017765743241655092,0.0023521669454724305,0.02293782994594019,0.007008438502946404,0.022480811253291218,0.01703703281339126,0.02995578191108209,0.005264345336887325
0.2411379,0.017842246252493393,0.00239753003111532,0.02289045008143485,0.00702252428078669,0.0224174430673136,0.017086046841017725,0.030049545327385286,0.005280870126443375
0.2416034,0.017919342902751163,0.002444159803166597,0.02284173488496143,0.007036642370608345,0.02235449385874379,0.017137507173025354,0.030143609622810312,0.005298643066825316
0.242069,0.01799702592087676,0.002492064218085173,0.022791701469356947,0.007050789214814066,0.022291974652748202,0.017191432854014723,0.030237965107277328,0.00531767366595427
0.2425345,0.018075287661699475,0.002541251064155046,0.022740367403155423,0.007064961338864791,0.022229896463216867,0.01724784248295392,0.030332601999559183,0.005337971178648341
0.243,0.018154120105255467,0.002591727957600658,0.02268775070643477,0.007079155353149797,0.022168270294247613,0.01730675420339043,0.030427510427405685,0.005359544602289389
0.2434655,0.018233514855751053,0.0026435023387068324,0.022633869846463164,0.007093367954813137,0.022107107141638983,0.017368185693793597,0.030522680427587615,0.0053824026725661535
0.243931,0.018313463140664253,0.002696581467944216,0.02257874373314832,0.007107595929535864,0.022046417994388945,0.017432154158030146,0.030618101945860683,0.005406553859295148
0.2443966,0.018393955809985305,0.0027509724221011778,0.022522391714293013,0.0071218361532735044,0.021986213836196488,0.017498676315975147,0.03071376483685021,0.005432006362320754
0.2448621,0.01847498333559691,0.0028066820904230874,0.022464833570660165,0.007136085593948347,0.021926505646963024,0.01756776839426069,0.030809658863857503,0.00545876810749589
0.2453276,0.018556535810794892,0.0028637171707598884,0.022406089510850744,0.007150341313096057,0.021867304404290567,0.017639446117164354,0.030905773698589368,0.005486846742744642
0.2457931,0.018638602949949873,0.0029220841657228635,0.022346180165997667,0.007164600467466181,0.021808621084973664,0.017713724697639377,0.031002098920812658,0.005516249634208192
0.2462586,0.01872117408831053,0.0029817893788514644,0.022285126584279065,0.007178860310576038,0.021750466666481977,0.017790618828488366,0.03109862401793639,0.005546983862475392
0.2467241,0.01880423818194912,0.0030428389107910827,0.022222950225254105,0.007193118194217521,0.021692852128430314,0.0178701426736822,0.031195338384524807,0.0055790562188992735
0.2471897,0.018887783807849952,0.0031052386554826115,0.02215967295402461,0.007207371569916277,0.021635788454032846,0.017952309859825585,0.0312922313217454,0.0056124732020007605
0.2476552,0.01897179916414154,0.0031689942963646772,0.022095317035225798,0.007221617990342778,0.021579286631538287,0.018037133467770656,0.031389292036756423,0.005647241013960814
0.2481207,0.01905627207047342,0.003234111302589426,0.022029905126849457,0.007235855110674729,0.02152335765564255,0.01812462602437979,0.031486509642038786,0.005683365557202174
0.2485862,0.019141189968538738,0.003300594925252767,0.021963460273902956,0.0072500806899103275,0.021468012528875587,0.018214799494438775,0.03158387315467728,0.0057208524310618245
0.2490517,0.01922653992274401,0.003368450193639989,0.021896005901907406,0.007264292592131813,0.021413262262958803,0.018307665272721187,0.03168137149559617,0.00575970692855527
0.2495172,0.019312308621027743,0.003437681911487679,0.021827565810238567,0.007278488787718737,0.021359117880129654,0.018403234176204736,0.03177899348875397,0.005799934033233656
0.2499828,0.019398482375829803,0.0035082946532628612,0.021758164165314103,0.007292667354510365,0.021305590414429962,0.018501516436440192,0.03187672786030274,0.005841538416134755
0.2504483,0.019485047125213498,0.003580292760460255,0.021687825493630766,0.007306826478916548,0.021252690912954612,0.018602521692073316,0.03197456323771677,0.005884524432828743
0.2509138,0.019571988434142387,0.0036536803379185506,0.021616574674655404,0.007320964456976396,0.0212004304370573,0.01870625898152005,0.03207248814889601,0.005928896120559712
0.2513793,0.019659291495913875,0.0037284612501565927,0.021544436933573614,0.007335079695364037,0.0211488200635099,0.018812736735795078,0.032170491021249276,0.005974657195483816
0.2518448,0.01974694113375146,0.0038046391177303865,0.021471437833899838,0.0073491707123407,0.021097870885612147,0.01892196277149369,0.03226856018076236,0.006021811050004934
0.2523103,0.0198349218025575,0.0038822173136118664,0.021397603269952884,0.007363236138652335,0.02104759401424813,0.01903394428392676,0.032366683851056094,0.006070360750208697
0.2527759,0.01992321759082829,0.003961198959590387,0.021322959459200753,0.007377274718371933,0.020998000578886254,0.019148687840408428,0.03246485015243937,0.006120309033395686
0.2532414,0.02001181222273302,0.004041586922697928,0.02124753293447873,0.00739128530968568,0.020949101728519274,0.019266199373695923,0.03256304710096222,0.006171658305714643
0.2537069,0.020100689060358258,0.00412338381165903,0.021171350536084668,0.007405266885622049,0.020900908632540946,0.01938648417558091,0.0326612626074741,0.006224410639896389
0.2541724,0.02018983110611926,0.00420659197336648,0.021094439403755424,0.007419218534722862,0.020853432481555797,0.01950954689063136,0.032759484476692635,0.0062785677730892225
0.2546379,0.020279221005339444,0.004291213489383787,0.0210168269685285,0.0074331394616553356,0.02080668448811833,0.019635391510082974,0.03285770040628807,0.0063341311047964925
0.2551034,0.020368841048999164,0.004377250172475488,0.020938540944492913,0.007447028987764089,0.020760675887397946,0.019764021365878993,0.032955897985988594,0.006391101694917028
0.255569,0.02045867317665493,0.004464703563166301,0.020859609320433483,0.0074608865515620295,0.020715417937765653,0.019895439124856987,0.03305406469671168,0.006449480261889069
0.2560345,0.020548698979530156,0.004553574926330146,0.020780060351372604,0.007474711709159044,0.020670921921298595,0.02002964678308112,0.03315218790972629,0.006509267180938322
0.2565,0.020638899703778472,0.004643865247809997,0.020699922550013784,0.007488504134627403,0.0206271991441985,0.02016664566031828,0.03325025488585064,0.0065704624824307455
0.2569655,0.02072925625392057,0.004735575231069554,0.02061922467809109,0.0075022636203027826,0.0205842609371204,0.0203064363946564,0.03334825277469007,0.0066330658503306154
0.257431,0.020819749196455403,0.004828705293877653,0.02053799573762875,0.00751599007701985,0.020542118655408302,0.020449018937263325,0.03344616861391898,0.006697076620764395
0.2578966,0.02091035876364653,0.004923255565026404,0.0204562649621151,0.007529683534281411,0.020500783679235173,0.0205943925472849,0.033543989328610926,0.006762493780690938
0.2583621,0.02100106485748426,0.005019225881083984,0.020374061807595,0.007543344140360147,0.020460267413644904,0.02074255578688123,0.03364170173062037,0.006829315966678523
0.2588276,0.021091847053824213,0.005116615783183053,0.02029141594368479,0.007556972162331956,0.020420581288494496,0.02089350651640057,0.03373929251801974,0.0068975414637892
0.2592931,0.02118268460670273,0.005215424513845724,0.020208357244513756,0.0075705679860400615,0.020381736758294897,0.02104724188969069,0.03383674827459488,0.006967168204570916
0.2597586,0.021273556452829516,0.00531565101384603,0.02012491577959603,0.007584132115989086,0.020343745301949195,0.02120375834954789,0.033934055469402175,0.007038193768157859
0.2602241,0.021364441216257662,0.005417293919110835,0.020041121804636637,0.007597665175168488,0.020306618422387318,0.0213630516233042,0.03403120045639024,0.00711061537947938
0.2606897,0.021455317213231146,0.00552035155766017,0.019957005752275343,0.007611167904804872,0.020270367646096656,0.021525116718553637,0.0341281694740892,0.007184429908577849
0.2611552,0.0215461624572096,0.005624821946587998,0.019872598222771817,0.007624641164042934,0.020235004522548544,0.02168994791901901,0.03422494864537007,0.00725963387003576
0.2616207,0.021636954664070143,0.005730702789084504,0.01978792997463545,0.007638085929554927,0.02020054062352079,0.0218575387805613,0.034321523977276745,0.007336223422512354
0.2620862,0.021727671257485856,0.005837991471501064,0.019703031915203097,0.007651503295078706,0.020166987542316536,0.022027882127333958,0.03441788136093272,0.007414194368390011
0.2625517,0.0218182893744804,0.005946685060459161,0.019617935091167975,0.007664894470884577,0.020134356892880057,0.02220097004808477,0.03451400657152446,0.007493542153530635
0.2630172,0.021908785871158087,0.0060567803000046005,0.019532670679063068,0.007678260783171203,0.0201026603088102,0.02237679389260816,0.03460988526836325,0.007574261867142227
0.2634828,0.021999137328608778,0.0061682736088084986,0.019447269975702248,0.007691603673390914,0.020071909442272533,0.022555344268351048,0.03470550299502692,0.007656348241755758
0.2639483,0.02208932005898684,0.006281161077416602,0.01936176438858263,0.007704924697504774,0.02004211596281159,0.022736611037175378,0.03480084517958283,0.007739795653312463
0.2644138,0.02217931011176324,0.006395438465548573,0.019276185426251508,0.007718225525167781,0.020013291556065106,0.022920583312280526,0.03489589713489321,0.007824598121361605
0.2648793,0.022269083280149822,0.006511101199448988,0.01919056468864132,0.007731507938844668,0.019985447922382438,0.023107249455288782,0.034990644059003866,0.007910749309368827
0.2653448,0.022358615107694695,0.006628144369291889,0.01910493385737607,0.0077447738328568745,0.019958596775349665,0.0232965970734969,0.03508507103561721,0.007998242525135264
0.2658103,0.022447880895047498,0.006746562726640762,0.019019324686052514,0.0077580252123614505,0.01993274984022418,0.023488613017296753,0.03517916303465056,0.008087070721327702
0.2662759,0.022536855706893157,0.006866350681965935,0.018933768990499505,0.0077712641922628055,0.019907918852281693,0.023683283377768267,0.03527290491288058,0.00817722649612014
0.2667414,0.022625514379052674,0.006987502302221399,0.01884829863901862,0.007784492996058408,0.01988411555507876,0.02388059348444808,0.035366281414674586,0.008268702093947181
0.2672069,0.022713831525749156,0.007110011308483111,0.0187629455426092,0.007797713954619669,0.019861351698634015,0.024080527903277856,0.03545927717280933,0.008361489406369672
0.2676724,0.02280178154703732,0.007233871073650818,0.018677741645180945,0.007810929504909328,0.01983963903753112,0.02428307043473656,0.035551876709377414,0.008455579973053035
0.2681379,0.022889338636394495,0.0073590746202154495,0.01859271891375703,0.007824142188636713,0.01981898932894647,0.02448820411216124,0.035644064436781496,0.008550964982858693
0.2686034,0.02297647678847115,0.00748561461809409,0.018507909328670843,0.007837354650852247,0.01979941433060452,0.02469591120026105,0.03573582465881599,0.008647635275049024
0.269069,0.023063169806998848,0.007613483382534567,0.018423344873759424,0.007850569638482557,0.019780925798663487,0.024906173193829248,0.03582714157183584,0.00874558134060619
0.2695345,0.02314939131285348,0.007742672872091673,0.018339057526556676,0.007863789998807562,0.019763535485534,0.025118970816658162,0.035917999266011955,0.008844793323665136
0.27,0.023235114752271534,0.007873174686677057,0.018255079248489577,0.00787701867788087,0.019747255137633205,0.02533428402066195,0.036008381726672846,0.008945261023061028
0.2704655,0.02332031340521705,0.00800498006568486,0.018171441975080485,0.007890258718894825,0.019732096493076615,0.02555209198521224,0.03609827283573243,0.009046973893991289
0.270931,0.023404960393896678,0.008138079886195124,0.018088177606158728,0.007903513260491513,0.01971807127931013,0.025772373116691595,0.03618765637320399,0.009149921049792412
0.2713966,0.02348902869142022,0.008272464661257098,0.0180053179960845,0.007916785535021044,0.019705191210684585,0.025995105048269695,0.03627651601880075,0.00925409126383162
0.2718621,0.023572491130603654,0.008408124538254586,0.017922894943988077,0.007930078866748434,0.019693467985975193,0.026220264639907096,0.036364835353623406,0.009359472971513455
0.2723276,0.023655320412911685,0.008545049297355448,0.017840940184027262,0.007943396670010457,0.01968291328584836,0.026447827978591198,0.036452597861934985,0.009466054272401386
0.2727931,0.02373748911753652,0.008683228350047463,0.01775948537566577,0.007956742447323839,0.019673538770278214,0.026677770378809102,0.03653978693302336,0.009573822932454481
0.2732586,0.023818969710609674,0.008822650737762741,0.017678562093975232,0.007970119787446169,0.019665356075915335,0.02691006638326185,0.036626385863151804,0.00968276638637917
0.2737241,0.023899734554543334,0.008963305130592883,0.01759820181996326,0.007983532363390939,0.019658376813409813,0.027144689763824434,0.036712377857597976,0.009792871740096087
0.2741897,0.02397975591749784,0.009105179826097081,0.01751843593093005,0.00799698393039816,0.019652612564690884,0.027381613522755716,0.03679774603278169,0.00990412577332193
0.2746552,0.02405900598297178,0.009248262748205378,0.01743929569085575,0.008010478323862012,0.019648074880205074,0.027620809894162136,0.03688247341848192,0.010016514942266271
0.2751207,0.024137456859511176,0.009392541446219262,0.017360812240820894,0.008024019457217,0.01964477527611483,0.027862250345719087,0.036966542960143255,0.01013002538244313
0.2755862,0.02421508059053399,0.00953800309391178,0.01728301658946211,0.00803761131978419,0.01964272523145935,0.028105905580653474,0.03704993752127215,0.010244642911597171
0.2760517,0.02429184916426633,0.009684634488729329,0.017205939603465326,0.008051257974579016,0.019641936185279447,0.028351745539990838,0.03713263988592328,0.010360353032744248
0.2765172,0.02436773452378661,0.00983242205109725,0.01712961199809861,0.008064963556082348,0.019642419533708017,0.028599739405070233,0.037214632761276366,0.010477140937326022
0.2769828,0.024442708577173983,0.009981351823831324,0.017054064327786778,0.00807873226797654,0.019644186627027868,0.028849855600329828,0.03729589878030395,0.010594991508478263
0.2774483,0.02451674320775747,0.010131409471657282,0.016979326976729794,0.008092568380848306,0.019647248766698475,0.029102061796366104,0.03737642050453113,0.010713889324412394
0.2779138,0.024589810284462228,0.010282580280840392,0.016905430149566927,0.008106476229860425,0.01965161720235333,0.029356324913269276,0.03745618042688865,0.010833818661909777
0.2783793,0.024661881672249458,0.010434849158927173,0.016832403862088507,0.008120460212394372,0.01965730312876944,0.029612611124237402,0.037535160974661155,0.010954763499928187
0.2788448,0.0247329292426464,0.010588200634601223,0.016760277931997095,0.008134524785665941,0.01966431768281044,0.029870885859471435,0.037613344512533266,0.011076707523319783
0.2793103,0.024802924884362768,0.010742618857655104,0.016689081969719764,0.008148674464315976,0.01967267194034477,0.030131113810353317,0.03769071334573589,0.011199634126659912
0.2797759,0.02487184051398983,0.010898087599080163,0.016618845369273258,0.008162913817978268,0.019682376913140072,0.03039325893390898,0.037767249723295655,0.011323526418185889
0.2802414,0.024939648086778406,0.01105459025127607,0.016549597299183663,0.008177247468826632,0.019693443545735007,0.030657284457557853,0.03784293584139001,0.01144836722384491
0.2807069,0.025006319607491945,0.011212109828381809,0.016481366693462438,0.008191680089103192,0.019705882712289447,0.03092315288415031,0.037917753846810585,0.011574139091450157
0.2811724,0.02507182714133075,0.011370628966729726,0.016414182242640452,0.008206216398629741,0.01971970521341388,0.031190825997294225,0.03799168584053728,0.011700824294944075
0.2816379,0.0251361428249234,0.011530129925424178,0.01634807238486172,0.00822086116230415,0.01973492177297878,0.031460264866971524,0.03806471388142518,0.01182840483876772
0.2821034,0.025199238877381264,0.011690594587046218,0.016283065297038445,0.008235619187583627,0.019751543034904527,0.03173142985544543,0.03813681999000648,0.01195686246233499
0.282569,0.025261087611411926,0.01185200445848568,0.01621918888606889,0.008250495321956665,0.01976957955993239,0.03200428062345878,0.038207986152409085,0.012086178644610538
0.2830345,0.02532166144448715,0.012014340671901968,0.016156470780119496,0.008265494450405437,0.019789041822376896,0.032278776136723655,0.03827819432439348,0.012216334608789974
0.2835,0.025380932910060845,0.012177583985814798,0.01609493831997257,0.008280621492860372,0.01980994020685985,0.03255487467270225,0.038347426435509015,0.012347311327080966
0.2839655,0.025438874668832313,0.012341714786326029,0.016034618550440874,0.008295881401648547,0.019832285005026217,0.03283253382767879,0.03841566439337055,0.01247908952558369
0.284431,0.025495459520050084,0.01250671308847375,0.015975538211850323,0.008311279158937538,0.019856086412241993,0.033111710524122116,0.038482890088056124,0.012611649689269049
0.2848966,0.025550660412851447,0.012672558537719661,0.015917723731591997,0.008326819774176285,0.019881354524274242,0.03339236101833841,0.038549085396626125,0.01274497206705303
0.2853621,0.02560445045763272,0.012839230411570764,0.01586120121574466,0.00834250828153452,0.019908099333953422,0.03367444090841338,0.03861423218776429,0.012879036676965498
0.2858276,0.02565680293744544,0.013006707621336353,0.015805996440768952,0.008358349737342194,0.019936330727818242,0.03395790514244316,0.03867831232654076,0.013013823311411751
0.2862931,0.025707691319413542,0.01317496871402118,0.01575213484527451,0.00837434921753034,0.019966058482743278,0.034242708027053384,0.03874130767929704,0.013149311542525199
0.2867586,0.025757089266166773,0.013343991874355653,0.015699641521861287,0.00839051181507475,0.019997292262549673,0.03452880323620594,0.038803200118652695,0.013285480727609681
0.2872241,0.025804970647285447,0.013513754926963883,0.015648541209036533,0.00840684263744382,0.020030041614599238,0.03481614382029291,0.03886397152863332,0.013422310014670097
0.2876897,0.02585130955075164,0.013684235338670246,0.015598858283208955,0.008423346804051851,0.02006431596637232,0.035104682215517255,0.038923603809918994,0.013559778348030101
0.2881552,0.025896080294401817,0.013855410220945129,0.01555061675076174,0.008440029443719113,0.020100124622029925,0.03539437025355958,0.03898207888521226,0.013697864474035804
0.2886207,0.025939257437375813,0.014027256332490407,0.015503840240206287,0.008456895692139907,0.020137476758960885,0.03568515917153019,0.03903937870472457,0.013836546946844335
0.2890862,0.025980815791556835,0.014199750081965112,0.015458551994418515,0.008473950689359936,0.020176381424315163,0.03597699962220565,0.03909548525177953,0.013975804134296154
0.2895517,0.02602073043299705,0.014372867530851733,0.015414774862959736,0.008491199577264205,0.020216847531524553,0.03626984168454882,0.039150380548531434,0.014115614223869961
0.2900172,0.02605897671332312,0.014546584396463549,0.015372531294483955,0.00850864749707671,0.02025888385681224,0.03656363487451106,0.039204046661797096,0.014255955228719126
0.2904828,0.026095530271115882,0.014720876055093396,0.01533184332923355,0.008526299586873166,0.02030249903569267,0.0368583281561155,0.03925646570899898,0.014396804993788457
0.2909483,0.026130367043258346,0.014895717545304315,0.015292732591625087,0.008544160979107913,0.020347701559463104,0.037153869952819565,0.03930761986421723,0.014538141202010194
0.2914138,0.02616346327624586,0.015071083571362534,0.015255220282926977,0.008562236798156207,0.02039449977168824,0.037450208159155125,0.03935749136434815,0.014679941380577984
0.2918793,0.026194795537452367,0.01524694850681327,0.015219327174030602,0.008580532157872939,0.02044290186467902,0.03774729015264413,0.039406062515366755,0.014822182907297607
0.2923448,0.02622434072634633,0.01542328639819977,0.01518507359831649,0.008599052159168875,0.02049291587596673,0.03804506280598758,0.03945331569869043,0.014964843017013115
0.2928103,0.026252076085649795,0.015600070968925957,0.015152479444616992,0.008617801887605405,0.020544549684773396,0.03834347249952548,0.039499233377641066,0.015107898808106967
0.2932759,0.026277979212433862,0.015777275623262962,0.015121564150276828,0.008636786411008802,0.02059781100847926,0.03864246513396522,0.039543798104002624,0.015251327249072685
0.2937414,0.026302028069143644,0.015954873450499646,0.015092346694312829,0.00865601077710492,0.020652707399088234,0.038941986143375566,0.03958699252467111,0.015395105185158535
0.2942069,0.02632420099454553,0.016132837229237244,0.015064845590674144,0.008675480011175178,0.020709246239692065,0.03924198050844327,0.03962879938839398,0.015539209345080603
0.2946724,0.026344476714589476,0.016311139431828086,0.015039078881604037,0.008695199113734653,0.020767434740933927,0.03954239276998896,0.039669201552595866,0.01568361634780351
0.2951379,0.026362834353178762,0.016489752228958224,0.015015064131104526,0.008715173058233107,0.020827279937472288,0.03984316704273868,0.03970818199028719,0.01582830270938699
0.2956034,0.026379253442839753,0.016668647494373842,0.014992818418504979,0.008735406788779649,0.020888788684445787,0.04014424702934724,0.0397457237970523,0.01597324484989647
0.296069,0.026393713935284037,0.0168477968097512,0.014972358332135866,0.008755905217891756,0.02095196765393973,0.040445576034669146,0.03978181019811313,0.016118419100375602
0.2965345,0.026406196211855373,0.01702717146970976,0.01495369996310893,0.008776673224269376,0.02101682333145491,0.04074709698027251,0.0398164245554643,0.01626380170987859
0.297,0.026416681093853825,0.017206742486968282,0.01493685889920508,0.008797715650594718,0.02108336201237922,0.041048752419191176,0.03984955037507544,0.016409368852560162
0.2974655,0.02642514985272948,0.017386480597643337,0.014921850218871399,0.008819037301358355,0.021151589798462652,0.04135048455090989,0.039881171314156104,0.016555096634820778
0.297931,0.02643158422013829,0.017566356266689877,0.014908688485328853,0.008840642940712152,0.02122151259429598,0.04165223523657699,0.03991127118847864,0.016700961102504748
0.2983966,0.026435966397852794,0.017746339693483274,0.014897387740792314,0.008862537290349479,0.021293136103793648,0.04195394601443893,0.03993983397975423,0.016846938248148823
0.2988621,0.026438279067520738,0.017926400817542296,0.014887961500804752,0.008884725027413151,0.021366465826681186,0.04225555811549074,0.03996684384305734,0.01699300401827886
0.2993276,0.026438505400264982,0.01810650932439251,0.014880422748687538,0.008907210782431422,0.02144150705498751,0.0425570124793365,0.03999228511429394,0.017139134320752192
0.2997931,0.026436629066118322,0.018286634651569676,0.014874783930108978,0.008929999137282346,0.02151826486954245,0.042858249770253584,0.04001614231770929,0.017285305032143355
0.3002586,0.026432634243286877,0.018466745994762643,0.014871056947773301,0.008953094623186695,0.021596744136479766,0.04315921039345471,0.04003840017343113,0.017431492005170916
0.3007241,0.02642650562723568,0.0186468123140954,0.014869253156232456,0.008976501718729631,0.021676949503745907,0.04345983451154121,0.04005904360504454,0.01757767107616327
0.3011897,0.02641822843959002,0.01882680234054782,0.014869383356823184,0.009000224847911232,0.021758885397614777,0.043760062061141025,0.04007805774719449,0.017723818072561265
0.3016552,0.026407788436845943,0.019006684582514647,0.014871457792731834,0.009024268378225992,0.021842556019208845,0.044059832769724486,0.040095427953212234,0.01786990882045559
0.3021207,0.026395171918883346,0.019186427332502313,0.014875486144189438,0.009048636618771335,0.021927965341027027,0.04435908617259068,0.040111139802761285,0.01801591915215678
0.3025862,0.026380365737274876,0.019365998673963172,0.014881477523799506,0.009073333818385161,0.022015117103479757,0.04465776163001695,0.04012517910949879,0.018161824913795657
0.3030517,0.026363357303383895,0.019545366488266828,0.014889440472001,0.009098364163812421,0.02210401481143189,0.044955798344563896,0.04013753192874826,0.01830760197295189
0.3035172,0.0263441345962448,0.019724498461808338,0.014899382952668851,0.0091237317779006,0.022194661730754035,0.0452531353785278,0.04014818456517977,0.01845322622630819
0.3039828,0.026322686170218934,0.019903362093253073,0.01491131234885439,0.009149440717823944,0.022287060884882998,0.04554971167153255,0.04015712358049367,0.018598673607327726
0.3044483,0.026299001162419497,0.020081924700918092,0.014925235458667882,0.009175494973336253,0.02238121505139188,0.04584546605825256,0.04016433580110428,0.01874392009395195
0.3049138,0.026273069299898894,0.02026015343028977,0.014941158491305317,0.009201898465051891,0.02247712675857041,0.046140337286258305,0.04016980832581976,0.018888941716316214
0.3053793,0.026244880906592116,0.02043801526167736,0.014959087063221464,0.009228655042754715,0.022574798282016098,0.04643426403397603,0.040173528533514635,0.01903371456448015
0.3058448,0.026214426910009712,0.020615477018002103,0.014979026194451111,0.0092557684837345,0.022674231641236733,0.04672718492875254,0.04017548409079154,0.01917821479616987
0.3063103,0.026181698847673907,0.020792505372721252,0.01500098030508033,0.009283242491150416,0.022775428596264986,0.04701903856501649,0.04017566295962896,0.019322418644528803
0.3067759,0.02614668887329144,0.02096906685788635,0.015024953211869483,0.009311080692421087,0.022878390644285772,0.047309763522527075,0.040174053405011886,0.019466302425873955
0.3072414,0.026109389762656605,0.02114512787233483,0.015050948125029646,0.009339286637640736,0.022983119016277417,0.047599298384701,0.04017064400254266,0.019609842547454116
0.3077069,0.026069794919277828,0.021320654690014013,0.015078967645153998,0.009367863798020869,0.023089614673667495,0.047887581757008975,0.04016542364602922,0.019753015515206595
0.3081724,0.026027898379721408,0.0214956134684363,0.015109013760305736,0.009396815564356871,0.023197878305004447,0.048174552285432895,0.04015838155504792,0.019895797941508916
0.3086379,0.025983694818666154,0.021669970257264304,0.015141087843264022,0.009426145245518927,0.023307910322645887,0.04846014867497545,0.04014950728247796,0.020038166552921823
0.3091034,0.025937179553663356,0.021843691007024647,0.015175190648929691,0.009455856066966539,0.02341971085946466,0.0487443097082142,0.04013879072200448,0.020180098197919938
0.309569,0.025888348549597352,0.02201674157794903,0.015211322311892513,0.009485951169285996,0.02353327976557363,0.049026974263892895,0.04012622211558699,0.02032156985460651
0.3100345,0.025837198422843037,0.02218908774894129,0.015249482344162084,0.009516433606750118,0.023648616605070324,0.04930808133554305,0.040111792060890064,0.020462558638408828
0.3105,0.02578372644511783,0.02236069522666913,0.015289669633064659,0.009547306345899731,0.023765720652802563,0.04958757005012938,0.040095491518672734,0.02060304180975116
0.3109655,0.025727930547026573,0.02253152965477924,0.015331882439308307,0.009578572264146401,0.023884590891156243,0.04986537968671373,0.04007731182013309,0.020742996781702404
0.311431,0.02566980932129841,0.02270155662323453,0.015376118395218945,0.009610234148396152,0.024005226006866373,0.050141449695132824,0.040057244674204434,0.020882401127595766
0.3118966,0.025609362025715256,0.022870741677772217,0.01542237450314985,0.009642294693693909,0.024127624387852327,0.050415719714686114,0.04003528217479906,0.02102123258861811
0.3123621,0.02554658858573174,0.023039050329481253,0.01547064713406723,0.009674756501888593,0.024251784120078234,0.05068812959283022,0.04001141680799611,0.02115946908136684
0.3128276,0.02548148959678686,0.023206448064497658,0.015520932026314516,0.009707622080318836,0.024377702984439323,0.050958619403876665,0.039985641459169316,0.02129708870537249
0.3132931,0.02541406632630805,0.02337290035381605,0.015573224284558018,0.009740893840519434,0.02450537845367518,0.05122712946768971,0.039957949420050924,0.021434069750585233
0.3137586,0.025344320715408736,0.02353837266321551,0.01562751837891656,0.009774574096948761,0.024634807689311117,0.0514936003683811,0.03992833439572738,0.021570390704823743
0.3142241,0.02527225538028109,0.023702830463297752,0.015683808144277677,0.009808665065737429,0.02476598753862913,0.05175797297299846,0.039896790511562565,0.02170603026118452
0.3146897,0.025197873613285886,0.02386623923963554,0.015742086779802943,0.009843168863458629,0.024898914531670018,0.052020188450204126,0.03986331232004382,0.02184096732540986
