Time,Rectus Femoris right,Rectus Femoris left,Hamstrings right,Hamstrings left,TibilaisÂ Anterior right,TibilaisÂ Anterior left,Gastrocnemius right,Gastrocnemius left
0.0,0.04479671271610002,0.016980165252424895,-0.017668920457101625,0.0005584252768953952,0.0004597670623065823,-0.016879777329761952,0.023972821194334495,-0.009137439666938679
0.0005192,0.04527118069075496,0.017178086640873853,-0.017069741649865973,0.0006577287516829364,0.0009627263967861801,-0.015560235917942752,0.02451400380885125,-0.008410744787587006
0.0010385,0.04574413198458376,0.017375624399276757,-0.016470647583806217,0.0007571456115853338,0.0014644079085628185,-0.014244158692849087,0.025056227700009974,-0.007684589236802619
0.0015577,0.046215468924371644,0.01757274465199908,-0.01587169530312695,0.0008566636874536668,0.001964737657522896,-0.012931743568244357,0.025599412545781488,-0.006959078924834855
0.0020769,0.04668509379034436,0.01776941350411309,-0.01527294145058541,0.000956270776065135,0.0024636420495562474,-0.011623187794442609,0.026143477436844118,-0.006234319840810712
0.0025962,0.04715290884886149,0.01796559705158154,-0.01467444224818256,0.0010559546433672757,0.0029610478632748436,-0.010318687896149517,0.02668834089662657,-0.005510418022984698
0.0031154,0.047618816385330734,0.018161261391487597,-0.014076253478163518,0.0011557030277213746,0.0034568822766533106,-0.009018439610540283,0.027233920901637603,-0.00478747952900888
0.0036346,0.048082718737323366,0.018356372632305825,-0.013478430464344082,0.0012555036431425694,0.003951072893574111,-0.007722637825609584,0.027780134902074448,-0.004065610406243504
0.0041538,0.048544518327870954,0.018550896904209108,-0.012881028053779565,0.001355344182534269,0.004443547770260657,-0.006431476518828383,0.02832689984270181,-0.0033449166621278836
0.0046731,0.049004117698924377,0.01874480036940626,-0.0122841005987915,0.0014552123209146536,0.004934235441581949,-0.00514514869614207,0.02887413218399341,-0.002625504234630359
0.0051923,0.04946141954495656,0.018938049232505052,-0.011687701939367296,0.001555095718633167,0.005423064947212804,-0.0038638463313438462,0.029421747923528075,-0.0019074789627950002
0.0057115,0.049916326746691046,0.019130609750895367,-0.011091885385947301,0.0016549820245750598,0.005909965857634336,-0.002587760305856378,0.029969662617632363,-0.0011909465574014495
0.0062308,0.05036874240493933,0.019322448245147207,-0.010496703702613162,0.0017548588793521497,0.006394868299960105,-0.001317080348953679,0.030517791403261805,-0.0004760125717529993
0.00675,0.05081856987453043,0.01951353110941808,-0.00990220909069068,0.0018547139184780458,0.006877702983574002,-5.1994978454021944e-05,0.031066049020112566,0.00023721762739320988
0.0072692,0.0512657127983166,0.019703824821864332,-0.009308453172779615,0.0019545347755261346,0.0073584012255665235,0.001207308558086364,0.031614349832955406,0.0009486388887410246
0.0077885,0.05171007514123981,0.019893295955050835,-0.008715486977221977,0.0020543090852686704,0.007836894975956566,0.002460644341649853,0.03216260785418369,0.0016581463052031
0.0083077,0.052151561224443456,0.02008191118635329,-0.008123360923019409,0.0021540244867953337,0.008313116842686305,0.003707827839475891,0.03271073676656701,0.0023656352424703056
0.0088269,0.05259007575941401,0.020269637308347358,-0.007532124805209258,0.002253668626609657,0.008787000116377182,0.00494867596219361,0.03325864994620183,0.003071001367391853
0.0093462,0.053025523882137014,0.020456441239178603,-0.0069418277807079265,0.0023532291617017645,0.009258478794835445,0.0061830071203416645,0.033806260485650885,0.003774140676155848
0.0098654,0.05345781118725145,0.020642290032907327,-0.0063525183546291756,0.002452693762595935,0.009727487607296042,0.007410641280249501,0.034353481217262255,0.0044749495222605054
0.0103846,0.053886843762186366,0.020827150889822288,-0.0057642443670843126,0.0025520501163715636,0.010193962038393968,0.008631400019255654,0.0349002247366596,0.005173324644266778
0.0109038,0.05431252822126305,0.021010991166717306,-0.005177052980470522,0.002651285929656214,0.010657838351852347,0.009845106580240043,0.0354464034263943,0.0058691631933235405
0.0114231,0.054734771739745794,0.02119377838712492,-0.004590990667253059,0.0027503889315895497,0.011119053613876584,0.011051585925448483,0.03599192947975034,0.006562362760456798
0.0119423,0.05515348208782386,0.021375480251501273,-0.004006103198246551,0.00284934687675705,0.011577545716243972,0.012250664789588729,0.03653671492469274,0.007252821403614661
0.0124615,0.05556856766450687,0.02155606464735667,-0.0034224356314002226,0.0029481475480925335,0.012033253399078101,0.013442171732178418,0.03708067164795013,0.007940437674460137
0.0129808,0.055979937531415426,0.021735499659326297,-0.002840032301091399,0.003046778759748574,0.012486116273297484,0.014625937189126172,0.037623711419222175,0.00862511064490412
0.0135,0.05638750144644856,0.02191375357917579,-0.0022589368079312323,0.0031452283599340274,0.012936074842727786,0.015801793523528,0.03816574591550218,0.009306739933371319
0.0140192,0.056791169897309146,0.022090794915736577,-0.0016791920090861562,0.003243484233717953,0.013383070525867152,0.016969575075661724,0.03870668674550512,0.009985225730792078
0.0145385,0.05719085413486851,0.022266592404765896,-0.0011008400091181174,0.0033415343057993404,0.013827045677294108,0.018129118212162537,0.03924644547419099,0.01066046882631331
0.0150577,0.057586466206351224,0.022441115018726594,-0.0005239221513461985,0.003439366543242166,0.014267943608707586,0.019280261374363287,0.03978493364737309,0.011332370632721984
0.0155769,0.0579779189883216,0.022614331976481914,5.1520990268149865e-05,0.0035369689581754254,0.014705708609588685,0.02042284512578334,0.040322062816400536,0.012000833211575022
0.0160962,0.05836512621945316,0.022786212752900332,0.0006254496187104037,0.00363432961045788,0.015140285967473716,0.021556712198750223,0.040857744562904016,0.012665759298030016
0.0166154,0.058748002533062844,0.022956727088365596,0.0011978247209751833,0.0037314366103072946,0.015571621987828136,0.022681707540138284,0.04139189052359337,0.013327052325372015
0.0171346,0.05912646348939194,0.023125844998186897,0.001768608074599994,0.003828278120893993,0.015999664013510884,0.023797678356208683,0.04192441241509555,0.013984616449232488
0.0176538,0.059500425607615995,0.023293536781904062,0.0023377622536692446,0.003924842360898542,0.01642436044381856,0.02490447415653509,0.04245522205882096,0.014638356571497268
0.0181731,0.059869806397566255,0.02345977303248254,0.0029052506342874323,0.004021117607033389,0.016845660753098915,0.02600194679699936,0.04298423140584607,0.01528817836390081
0.0186923,0.060234524391146065,0.023624524645392875,0.0034710373995205596,0.004117092196528279,0.01726351550892316,0.027089950521841415,0.04351135256179991,0.015933988291304317
0.0192115,0.06059449917342598,0.02378776282756945,0.004035087543805134,0.004212754529579318,0.017677876389806852,0.02816834200474743,0.04403649781174196,0.01657569363465555
0.0197308,0.06094965141340238,0.023949459106243402,0.004597366876824479,0.004308093071761537,0.0180886962024694,0.029236980388960287,0.04455957964501858,0.017213202513628293
0.02025,0.06129990289440541,0.024109585337644672,0.005157842026852582,0.004403096356404859,0.01849592889862256,0.03029572732639595,0.045080510780085445,0.017846423908939587
0.0207692,0.06164517654414254,0.02426811371556833,0.005716480443566327,0.004497752986933383,0.018899529591278493,0.0313444470157495,0.04559920418928328,0.018475267684342916
0.0212885,0.061985396464365135,0.024425016779800524,0.006273250400327573,0.004592051639167916,0.019299454570568118,0.03238300623957429,0.04611557312355415,0.019099644608295527
0.0218077,0.06232048796014558,0.024580267424399654,0.006828120995937257,0.004685981063591718,0.01969566131906061,0.03341127440031786,0.046629531137085685,0.019719466375298107
0.0223269,0.06265037756875298,0.024733838905828556,0.007381062155864408,0.004779530087579423,0.02008810852657514,0.03442912355529866,0.047140992111870096,0.02033464562690486
0.0228462,0.06297499308811534,0.024885704850933596,0.007932044632953671,0.0048726876175891175,0.020476756104476516,0.03543642845060803,0.04764987028216532,0.02094509597240217
0.0233654,0.06329426360485607,0.02503583926476694,0.008481040007615591,0.0049654426413175854,0.020861565199447072,0.03643306655392315,0.04815608025884515,0.021550732009154066
0.0238846,0.06360811952189224,0.02518421653824844,0.0090280206875045,0.005057784229818701,0.021242498206727946,0.03741891808621731,0.0486595370536259,0.022151469342612987
0.0244038,0.06391649258558145,0.025330811455663984,0.009572959906689346,0.005149701539584991,0.021619518782823352,0.03839386605235495,0.04916015610315765,0.022747224605994532
0.0249231,0.064219315912404,0.025475599201997382,0.010115831724323045,0.005241183814592411,0.02199259185766183,0.03935779627055962,0.049657853292968866,0.02333791547961513
0.0254423,0.06451652401516664,0.025618555370093294,0.01065661102281628,0.005332220388308364,0.02236168364620884,0.040310597400743595,0.05015254498125364,0.023923460709891927
0.0259615,0.06480805282871373,0.02575965596764894,0.011195273505521961,0.0054228006856630335,0.022726761659525398,0.0412521609716881,0.0506441480224917,0.024503780128004506
0.0264808,0.0650938397351318,0.02589887742403254,0.011731795693937033,0.005512914224984092,0.02308779471526797,0.042182381407063575,0.05113257979089169,0.025078794668218305
0.027,0.06537382358843297,0.026036196596926662,0.01226615492442899,0.005602550619894886,0.023444752947625404,0.04310115605028029,0.05161775820364951,0.02564842638586997
0.0275192,0.0656479447387029,0.026171590778794763,0.012798329344495167,0.005691699581176175,0.023797607816688993,0.04400838518816053,0.052099601744014915,0.026212598475015215
0.0280385,0.0659161450556992,0.0263050377031691,0.013328297908563554,0.0057803509185915414,0.02414633211725245,0.04490397207342532,0.05257802948416088,0.026771235285740064
0.0285577,0.06617836795188552,0.02643651555075832,0.01385604037334448,0.005868494542676599,0.02449089998703858,0.04578782294598998,0.05305296110785129,0.027324262341136513
0.0290769,0.0664345584048876,0.026566002955372793,0.014381537292742918,0.0059561204664921276,0.02483128691435008,0.04665984705306536,0.05352431693290342,0.027871606353943888
0.0295962,0.0666846629793575,0.026693479009665736,0.014904770012341332,0.006043218807341252,0.025167469745142657,0.04751995666806336,0.05399201793344131,0.028413195242857132
0.0301154,0.06692862984823228,0.026818923270688032,0.015425720663463127,0.00612977978845083,0.025499426689519294,0.048368067108307496,0.05445598576193642,0.02894895814850318
0.0306346,0.06716640881337453,0.026942315765254493,0.015944372156826793,0.006215793740617192,0.025827137327645314,0.04920409675155102,0.05491614277103149,0.029478825449086456
0.0311538,0.06739795132558263,0.027063636995119492,0.016460708175800993,0.00630125110381644,0.026150582615084277,0.05002796705130602,0.05537241203514394,0.030002728775704566
0.0316731,0.0676232105039595,0.02718286794195986,0.01697471316927088,0.006386142428779485,0.026469744887555137,0.05083960255098776,0.05582471737184503,0.030520601027334903
0.0321923,0.06784214115462973,0.027299990072163292,0.0174863723441261,0.006470458378532067,0.026784607865111103,0.0516389308968785,0.056272983363010926,0.03103237638549322
0.0327115,0.06805469978879605,0.027414985341420787,0.017995671657380998,0.006554189729899986,0.02709515665574094,0.05242588284991522,0.05671713537574159,0.03153799032856506
0.0332308,0.068260844640128,0.027527836199121993,0.01850259780793768,0.006637327374979822,0.027401377758393592,0.05320039229630526,0.0571570995830435,0.032037379645810965
0.03375,0.06846053568147624,0.027638525592552914,0.019007138228002544,0.006719862322575409,0.02770325906542735,0.053962396256973987,0.05759280298427204,0.032530482451046484
0.0342692,0.06865373464090821,0.027747036970895724,0.019509281074167023,0.006801785699600381,0.028000789864485127,0.05471183489584824,0.05802417342532943,0.033017238195997695
0.0347885,0.06884040501706115,0.027853354289030966,0.02000901521816325,0.006883088752447029,0.028293960839797547,0.055448651526979253,0.05845113961861372,0.03349758768333304
0.0353077,0.06902051209381002,0.027957462011142672,0.020506330237305262,0.006963762848321796,0.028582764072915677,0.05617279262050882,0.05887363116271456,0.033971473079371935
0.0358269,0.06919402295424835,0.028059345114127266,0.021001216404626342,0.007043799476547659,0.02886719304287543,0.05688420780748225,0.0592915785618513,0.03443883792647054
0.0363462,0.06936090649398023,0.028158989090807218,0.02149366467872304,0.007123190249833641,0.029147242625795895,0.05758284988351192,0.059704913245048646,0.03489962715508466
0.0368654,0.06952113343372172,0.028256379952950467,0.0219836666933163,0.007201926905511684,0.029422909093914155,0.05826867481129473,0.06011356758504507,0.03535378709550985
0.0373846,0.06967467633121041,0.028351504234096513,0.022471214746540086,0.007280001306741104,0.029694190114059854,0.05894164172198697,0.0605174749169291,0.03580126548929809
0.0379038,0.06982150959242113,0.02844434899219011,0.022956301789967756,0.007357405443680876,0.02996108474557303,0.05960171291543996,0.06091656955649878,0.0362420115003507
0.0384231,0.06996160948208674,0.02853490181202344,0.023438921417386314,0.007434131434629988,0.030223593437669338,0.06024885385929979,0.06131078681833972,0.03667597572568659
0.0389423,0.07009495413352296,0.028623150807487677,0.02391906785332871,0.007510171527136209,0.03048171802625686,0.0608830331869747,0.061700063033617476,0.03710311020588488
0.0394615,0.0702215235577564,0.02870908462363503,0.024396735941374006,0.007585518099073605,0.030735461730208934,0.0615042226944739,0.06208433556758062,0.03752336843520088
0.0399808,0.07034129965195554,0.02879269243855249,0.02487192113222529,0.007660163659689219,0.030984829147097458,0.06211239733612185,0.06246354283677137,0.037936705371353914
0.0405,0.07045426620716429,0.02887396396504875,0.025344619471574813,0.007734100850619389,0.031229826248390977,0.06270753521915236,0.06283762432594095,0.03834307744498582
0.0410192,0.07056040891533906,0.02895288945215584,0.025814827587765793,0.007807322446876242,0.03147046037412178,0.063289617597187,0.0632065206046675,0.038742442568788185
0.0415385,0.07065971537569024,0.02902945968644732,0.02628254267926013,0.007879821357804994,0.03170674022702605,0.06385862886260321,0.06357017334367428,0.039134760146296764
0.0420577,0.0707521751003297,0.02910366599317501,0.02674776250192107,0.007951590628012786,0.03193867586616105,0.06441455653779708,0.06392852533084589,0.03951999108035122
0.0425769,0.07083777951922658,0.02917550023722622,0.02721048535611982,0.008022623438269854,0.03216627870000344,0.0649573912653468,0.0642815204869404,0.039898097781218306
0.0430962,0.07091652198447385,0.029244954823903803,0.027670710073675057,0.008092913106383959,0.032389561479032485,0.06548712679708288,0.06462910388099469,0.040269044174376704
0.0436154,0.07098839777386845,0.029312022699531027,0.02812843600463415,0.008162453088049028,0.032608538287802795,0.06600375998207217,0.06497122174542089,0.040632795707961786
0.0441346,0.07105340409380784,0.029376697351883536,0.02858366300390516,0.008231236977669025,0.03282322453651072,0.06650729075352405,0.06530782149079119,0.04098931935986836
0.0446538,0.07111154008150541,0.029438972810450333,0.029036391417748615,0.008299258509158094,0.0330336369520595,0.06699772211462815,0.06563885172030863,0.041338583644509826
0.0451731,0.07116280680652723,0.029498843646525573,0.029486622070138312,0.008366511556718052,0.03323979356862793,0.06747506012333485,0.06596426224396107,0.041680558619231894
0.0456923,0.071207207271652,0.029556304973132982,0.02993435624900055,0.008432990135594263,0.033441713717747894,0.06793931387609078,0.06628400409235527,0.0420152158903792
0.0462115,0.07124474641305627,0.029611352444784578,0.030379595692341478,0.008498688402810917,0.033639418017895786,0.06839049549054277,0.06659802953022805,0.042342528619012894
0.0467308,0.07127543109982631,0.029663982257075287,0.03082234257427239,0.008563600657886722,0.03383292836360322,0.06882862008722396,0.06690629206963082,0.042662471526277106
0.04725,0.07129927013279845,0.02971419114611524,0.03126259949094309,0.008627721343531968,0.03402226791409213,0.06925370577023672,0.06720874648278401,0.04297502089841222
0.0477692,0.07131627424272927,0.029761976387801505,0.03170036944639339,0.008691045046328,0.03420746108143946,0.06966577360694681,0.06750534881459713,0.04328015459141224
0.0482885,0.07132645608779782,0.029807335796931397,0.032135655838332805,0.008753566497390099,0.034388533518276684,0.07006484760670438,0.06779605639485035,0.04357785203532341
0.0488077,0.07132983025044147,0.029850267726159587,0.03256846244385861,0.008815280573014877,0.034565512105029526,0.07045095469860799,0.06808082785003282,0.04386809423818087
0.0493269,0.07132641323352776,0.02989077106480163,0.03299879340512209,0.008876182295313239,0.03473842493670362,0.07082412470833004,0.06835962311483275,0.04415086378957982
0.0498462,0.07131622345586482,0.029928845237486724,0.033426653214952896,0.008936266832830024,0.034907301309222205,0.07118439033402373,0.06863240344327369,0.044426144863877415
0.0503654,0.07129928124705291,0.029964490202662782,0.033852046702451184,0.008995529501151452,0.035072171705322445,0.0715317871213333,0.06889913141949078,0.044693923223021056
0.0508846,0.07127560884168035,0.02999770645095697,0.03427497901855689,0.009053965763501468,0.035233067780017634,0.07186635343753035,0.06915977096814074,0.04495418621899869
0.0514038,0.0712452303728667,0.030028495003395123,0.034695455621605434,0.009111571231328079,0.035390022345633106,0.0721881304447989,0.06941428736443897,0.04520692279590621
0.0519231,0.07120817186515609,0.030056857409483377,0.03511348226287883,0.009168341664880845,0.03554306935642415,0.07249716207269181,0.0696626472438171,0.045452123491626785
0.0524423,0.07116446122676354,0.030082795745155325,0.03552906497216113,0.00922427297378058,0.03569224389278467,0.07279349498978116,0.06990481861119524,0.045689780439116416
0.0529615,0.07111412824117644,0.030106312610588166,0.03594221004330695,0.00927936121758239,0.03583758214505537,0.07307717857452417,0.07014077084986403,0.045919887367290364
0.0534808,0.07105720455811348,0.030127411127891055,0.03635292401983181,0.009333602606333126,0.035979121396940233,0.07334826488536668,0.07037047472997258,0.046142439601504236
0.054,0.07099372368384271,0.03014609493866873,0.03676121368053302,0.009386993501124333,0.03611690000853987,0.07360680863010596,0.07059390241661985,0.046357434063623734
0.0545192,0.07092372097086024,0.03016236820146359,0.03716708602514999,0.009439530414641671,0.03625095739901028,0.0738528671345351,0.07081102747754703,0.04656486927167703
0.0550385,0.07084723360693142,0.030176235589078934,0.03757054826007284,0.009491210011711826,0.03638133402885516,0.0740865003103914,0.0710218248904295,0.04676474533908331
0.0555577,0.07076430060349655,0.030187702285786187,0.037971607784108165,0.009542029109847791,0.03650807138185989,0.0743077706226322,0.07122627104976645,0.04695706397345122
0.0560769,0.07067496278344323,0.03019677398441859,0.03837027217431049,0.009591984679793459,0.036631211946674944,0.07451674305606085,0.07142434377336626,0.047141828474940466
0.0565962,0.07057926276824873,0.030203456883353606,0.03876654917188798,0.009641073846068353,0.03675079919805649,0.0747134850813258,0.07161602230842587,0.047319043734179986
0.0571154,0.07047724496449519,0.03020775768338619,0.03916044666819042,0.00968929388751337,0.03686687757777157,0.07489806662031562,0.0718012873372018,0.0474887162297357
0.0576346,0.07036895554976216,0.03020968358449487,0.03955197269078724,0.00973664223783835,0.03697949247517551,0.07507056001097133,0.07198012098227027,0.04765085402512074
0.0581538,0.07025444245790097,0.03020924228250235,0.03994113538964319,0.009783116486172277,0.03708869020746871,0.07523103997153803,0.07215250681137357,0.047805466765340456
0.0586731,0.07013375536369618,0.03020644196563235,0.04032794302339897,0.009828714377616876,0.03719451799964041,0.07537958356427664,0.0723184298418494,0.04795256567296478
0.0591923,0.07000694566692069,0.03020129131096433,0.04071240394576397,0.00987343381380431,0.03729702396410702,0.07551627015865651,0.0724778765446394,0.048092163543719625
0.0597115,0.06987406647579124,0.030193799480787802,0.04109452659202817,0.009917272853459648,0.03739625708005291,0.07564118139404898,0.07263083484787294,0.0482242747415894
0.0602308,0.06973517258983213,0.03018397611885793,0.04147431946570019,0.009960229712968699,0.03749226717248189,0.075754401141942,0.07277729414002164,0.04834891519342236
0.06075,0.06959032048215502,0.030171831346554195,0.0418517911252783,0.010002302766951741,0.03758510489098799,0.0758560154676955,0.07291724527262013,0.04846610238303141
0.0612692,0.06943956828116328,0.030157375758943956,0.04222695017116116,0.010043490548843676,0.03767482168825431,0.07594611259185662,0.0730506805625489,0.04857585534478331
0.0617885,0.06928297575168893,0.030140620420752908,0.04259980523270478,0.010083791751481039,0.037761469798289225,0.07602478285105399,0.07317759379387524,0.04867819465667048
0.0623077,0.06912060427557037,0.030121576862244485,0.04297036495543222,0.010123205227696342,0.037845102214409336,0.07609211865849011,0.07329798021924933,0.048773142432860045
0.0628269,0.06895251683167873,0.03010025707501039,0.04333863798840226,0.010161729990920142,0.03792577266697865,0.07614821446404987,0.07341183656085358,0.048860722315715546
0.0633462,0.06877877797540069,0.030076673507674505,0.04370463297174316,0.010199365215791253,0.03800353560091353,0.07619316671404354,0.07351916101090432,0.04894095946728752
0.0638654,0.06859945381758568,0.030050839061512454,0.04406835852435805,0.010236110238775518,0.038078446152963005,0.07622707381060183,0.07361995323170605,0.04901388056027032
0.0643846,0.06841461200296549,0.030022767085989065,0.04442982323180822,0.010271964558793577,0.03815056012877383,0.0762500360707406,0.0737142143552592,0.049079513768423975
0.0649038,0.06822432168805485,0.02999247137421594,0.04478903563438062,0.010306927837858037,0.03821993397974997,0.0762621556851124,0.07380194698242266,0.04913788875646163
0.0654231,0.06802865351854191,0.029959966158331162,0.04514600421534628,0.010340999901720514,0.03828662477971556,0.07626353667646192,0.07388315518163244,0.049189036669404856
0.0659423,0.06782767960617778,0.029925266104803123,0.0455007373894155,0.010374180740528966,0.03835069020139069,0.07625428485780286,0.0739578444871776,0.04923299012141091
0.0664615,0.06762147350517535,0.02988838630966028,0.045853243491395926,0.010406470509495763,0.03841218849268895,0.07623450779033335,0.0740260218970352,0.049269783184077244
0.0669808,0.06741011018812833,0.02984934229364859,0.04620353076505912,0.010437869529576921,0.038471178452845874,0.07620431474110798,0.07408769587026522,0.049299451374230016
0.0675,0.06719366602146196,0.02980814999731825,0.04655160735222086,0.01046837828816292,0.03852771940838743,0.07616381664048462,0.074142876323967,0.04932203164120401
0.0680192,0.06697221874042791,0.029764825776041358,0.0468974812820404,0.010497997439781451,0.03858187118894833,0.07611312603936496,0.07419157462979868,0.049337562353622064
0.0685385,0.06674584742365627,0.029719386394961893,0.04724116046054354,0.010526727806812486,0.038633694102950075,0.07605235706624744,0.07423380361006103,0.049346083285682484
0.0690577,0.06651463246727773,0.02967184902387953,0.04758265266037422,0.010554570380215893,0.038683248913149164,0.07598162538411148,0.07426957753334704,0.049347635602963257
0.0695769,0.06627865555862945,0.02962223123206853,0.047921965510779214,0.01058152632027189,0.03873059681206618,0.07590104814715158,0.07429891210975868,0.04934226184775222
0.0700962,0.06603799964955727,0.029570550983032996,0.04825910648783043,0.01060759695733446,0.0387757993973063,0.07581074395737952,0.07432182448569194,0.04933000592391245
0.0706154,0.06579274892932711,0.029516826629199598,0.04859408290488905,0.010632783792597812,0.038818918646782004,0.07571083282111236,0.07433833323819114,0.04931091308129198
0.0711346,0.06554298879715825,0.02946107690654871,0.0489269019033157,0.01065708849887587,0.03886001689384842,0.07560143610536399,0.07434845836887378,0.049285029899686944
0.0716538,0.06528880583439076,0.029403320929184767,0.04925757044343046,0.010680512921394771,0.0388991568023615,0.07548267649415742,0.07435222129742743,0.049252404272366955
0.0721731,0.06503028777630002,0.029343578183846315,0.049586095295726024,0.010703059078598242,0.03893640134166899,0.07535467794477475,0.07434964485468039,0.04921308538917102
0.0726923,0.06476752348357113,0.02928186852435616,0.049912483032337585,0.010724729162965692,0.03897181376154406,0.0752175656439612,0.074340753275249,0.04916712371918214
0.0732115,0.06450060291344645,0.029218212166011802,0.05023674001877227,0.010745525541842863,0.03900545756707099,0.07507146596409961,0.07432557218976388,0.049114570992988535
0.0737308,0.06422961709055951,0.02915262967991597,0.05055887240590107,0.010765450758284814,0.03903739649349233,0.07491650641937105,0.07430412861667816,0.049055480184539195
0.07425,0.06395465807746885,0.029085141987246998,0.0508788861222158,0.01078450753191105,0.03906769448102673,0.07475281562191716,0.07427645095366023,0.04898990549260179
0.0747692,0.06367581894490482,0.029015770353468504,0.05119678686635348,0.010802698759772515,0.03909641564966669,0.07458052323801964,0.07424256896857324,0.04891790232183099
0.0752885,0.06339319374174228,0.028944536382477484,0.05151258009988992,0.010820027517230227,0.03912362427396555,0.07439975994431185,0.07420251379004374,0.04883952726345532
0.0758077,0.06310687746471173,0.02887146201068981,0.051826271040404055,0.010836497058845283,0.03914938475782301,0.07421065738403723,0.07415631789762075,0.04875483807559122
0.0763269,0.06281696602786085,0.028796569501061842,0.05213786465481437,0.010852110819279953,0.03917376160927838,0.07401334812336897,0.0741040151115276,0.04866389366319316
0.0768462,0.06252355623177848,0.0287198814370466,0.05244736565298803,0.010866872414209578,0.03919681941532062,0.07380796560780487,0.07404564058200838,0.048566754057649326
0.0773654,0.06222674573259205,0.02864142071648287,0.05275477848162356,0.010880785641244988,0.0392186228167239,0.07359464411865131,0.07398123077827207,0.048463480396032876
0.0778846,0.06192663301074978,0.028561210545415473,0.0530601073184074,0.010893854480865052,0.0392392364829172,0.0733735187296102,0.07391082347703745,0.0483541349000189
0.0784038,0.061623317339598395,0.028479274431844878,0.05336335606644481,0.010906083097359067,0.03925872508689646,0.07314472526348255,0.07383445775068333,0.04823878085447812
0.0789231,0.061316898753767134,0.028395636179404295,0.05366452834896575,0.010917475839778538,0.0392771532801873,0.07290840024900211,0.07375217395500894,0.048117482585758514
0.0794423,0.06100747801736881,0.028310319880962474,0.053963627504306305,0.010928037242897936,0.039294585667866554,0.0726646808778125,0.07366401371660969,0.0479903054396665
0.0799615,0.06069515659202915,0.028223349912150638,0.054260656581166286,0.010937772028183981,0.03931108678365041,0.07241370496160018,0.07357001991987351,0.04785731575916
0.0804808,0.06038003660475561,0.02813475092481215,0.05455561833414385,0.010946685104772936,0.03932672106505718,0.07215561088939572,0.07347023669360266,0.04771858086176559
0.081,0.06006222081565745,0.028044547840373718,0.05484851521954804,0.010954781570455313,0.03934155282865229,0.07189053758505502,0.07336470939726548,0.047574169016732816
0.0815192,0.05974181258552852,0.027952765843137353,0.05513934939149008,0.010962066712667402,0.03935564624538319,0.07161862446493249,0.07325348460688294,0.04742414942193865
0.0820385,0.05941891584330464,0.02785943037349266,0.05542812269825461,0.010968546009488944,0.03936906531601136,0.07134001139575746,0.07313661010055404,0.04726859218055541
0.0825577,0.05909363505340698,0.027764567121049195,0.055714836678951864,0.010974225130646248,0.03938187384664863,0.07105483865272574,0.07301413484362528,0.04710756827749543
0.0830769,0.058766075182982956,0.027668202017688995,0.0559994925604519,0.010979109938519964,0.039394135424404876,0.07076324687781806,0.07288610897350843,0.0469411495556461
0.0835962,0.05843634166905565,0.027570361230539565,0.05628209125460174,0.010983206489156707,0.039405913393153795,0.07046537703835731,0.07275258378415234,0.04676940869190875
0.0841154,0.05810454038559248,0.027471071154867865,0.056562633355726026,0.010986521033283647,0.03941727082942361,0.07016137038581628,0.07261361171017387,0.04659241917305507
0.0846346,0.057770777610503685,0.02737035840689601,0.05684111913841144,0.01098906001732507,0.03942827051841936,0.06985136841488697,0.07246924631065535,0.04641025527141468
0.0851538,0.057435159992580705,0.027268249816539518,0.05711754855557551,0.010990830084419931,0.039438974930183696,0.0695355128228228,0.07231954225261518,0.046222992020407395
0.0856731,0.057097794518384315,0.027164772420068973,0.05739192123681998,0.010991838075439199,0.03944944619590333,0.06921394546906423,0.07216455529416024,0.046030705189933796
0.0861923,0.05675878847909237,0.027059953452696052,0.05766423648706933,0.01099209103000183,0.03945974608436825,0.06888680833515827,0.0720043422673281,0.04583347126163744
0.0867115,0.05641824943731627,0.026953820341084716,0.057934493285495395,0.010991596187488004,0.03946993597859121,0.06855424348498192,0.07183896106062755,0.04563136740405194
0.0872308,0.056076285193895334,0.02684640069578848,0.058202690284728985,0.010990360988048247,0.039480076852594685,0.06821639302527924,0.07166847060128576,0.045424471447645665
0.08775,0.05573300375467795,0.026737722303614837,0.05846882581035996,0.010988393073606946,0.03949022924837266,0.0678733990665216,0.07149293083720998,0.04521286185977685
0.0882692,0.055388513297297624,0.026627813119918135,0.05873289786072758,0.010985700288858676,0.039500453253034494,0.06752540368410025,0.07131240271867197,0.04499661771957128
0.0887885,0.055042922137951956,0.02651670126082263,0.058994904107003,0.010982290682255738,0.03951080847613816,0.06717254887986056,0.07112694817972298,0.04477581869273495
0.0893077,0.05469633869819219,0.026404414995377837,0.0592548418935658,0.010978172506985186,0.0395213540272199,0.06681497654398691,0.0709366301193473,0.04455054500631302
0.0898269,0.05434887147173094,0.026290982737648842,0.059512708238676354,0.010973354221933506,0.03953214849352769,0.06645282841724703,0.070741512382362,0.04432087742340683
0.0903462,0.054000628991275654,0.026176433038744677,0.05976849983544525,0.010967844492637135,0.0395432499179655,0.06608624605360391,0.07054165974007133,0.044086897217859744
0.0908654,0.05365171979539536,0.026060794578788248,0.06002221305310073,0.010961652192216825,0.039554715777255604,0.06571537078320305,0.07033713787068366,0.04384868614892289
0.0913846,0.053302252395428844,0.025944096158831677,0.06027384393855447,0.010954786402293882,0.0395666029603257,0.06534034367574242,0.07012801333949914,0.043606326435911065
0.0919038,0.05295233524244272,0.025826366692721002,0.06052338821826592,0.01094725641388622,0.03957896774692765,0.06496130550423168,0.06991435357887626,0.043359900732859225
0.0924231,0.05260207669424822,0.025707635198914496,0.06077084130040475,0.010939071728282098,0.039591865786494214,0.0645783967091472,0.06969622686798492,0.043109492103189685
0.0929423,0.05225158498248583,0.025587930792258858,0.061016198277310904,0.01093024205788937,0.039605352077239704,0.06419175736298903,0.06947370231235357,0.0428551839943999
0.0934615,0.05190096817978739,0.02546728267572739,0.06125945392825129,0.01092077732705805,0.0396194809455105,0.06380152713524606,0.06924684982321805,0.04259706021278045
0.0939808,0.05155033416702569,0.02534572013212443,0.06150060272247169,0.010910687672873887,0.03963430602539091,0.06340784525777565,0.06901574009667875,0.042335204898172545
0.0945,0.0511997906006618,0.02522327251576,0.06173963882254255,0.010899983445920622,0.03964988023856977,0.06301085049060422,0.06878044459267288,0.04206970249877402
0.0950192,0.05084944488020064,0.025099969244098463,0.06197655608799633,0.010888675211008558,0.039666255774473094,0.062610681088155,0.06854103551376782,0.04180063774600261
0.0955385,0.05049940411576536,0.024975839789385113,0.062211348079254374,0.010876773747866933,0.039683484070668296,0.06220747476590942,0.06829758578378128,0.041528095629424916
0.0960577,0.050149775095801576,0.024850913670254392,0.06244400806184071,0.01086429005179759,0.03970161579354536,0.061801368667507815,0.06805016902623352,0.04125216137175953
0.0965769,0.049800664254922494,0.02472522044332352,0.06267452901088005,0.010851235334287305,0.03972070081928075,0.06139249933229497,0.06779885954263656,0.040972920403962304
0.0970962,0.04945217764190592,0.02459878969477545,0.06290290361587746,0.010837621023576051,0.039740788215089896,0.060981002663315687,0.06754373229062582,0.040690458340402
0.0976154,0.04910442088785409,0.02447165103193507,0.06312912428577669,0.010823458765178394,0.03976192622077406,0.06056701389576467,0.06728486286193912,0.04040486095413411
0.0981346,0.04875749917452721,0.02434383407484271,0.06335318315429454,0.010808760422355186,0.039784162230567625,0.06015066756589497,0.06702232746024878,0.04011621415228077
0.0986538,0.048411517202861035,0.02421536844782905,0.06357507208552787,0.010793538076532662,0.039807542775291596,0.05973209748038848,0.0667562028788524,0.03982460395152425
0.0991731,0.0480665791616791,0.02408628377109551,0.06379478267983002,0.010777804027666009,0.03983211350481924,0.059311436686191855,0.06648656647822815,0.039530116453721835
0.0996923,0.04772278869660926,0.023956609652304197,0.06401230627995282,0.010761570794544487,0.0398579191708595,0.058888817440821056,0.06621349616346023,0.03923283782164938
0.1002115,0.04738024887921435,0.023826375678181307,0.06422763397745015,0.010744851115035215,0.039885003610064126,0.058464371183137166,0.06593707036153976,0.03893285425488118
0.1007308,0.047039062176346576,0.02369561140613793,0.06444075661933839,0.010727657946262749,0.03991340972746422,0.05803822850459637,0.06565736799854636,0.03863025196581369
0.10125,0.04669933041973499,0.023564346355911918,0.0646516648150089,0.010710004464721645,0.03994317948024225,0.05761051912097632,0.06537446847671537,0.038325117155840596
0.1017692,0.04636115477581566,0.023432610001234373,0.06486034894338757,0.010691904066319303,0.039974353861845974,0.057181371844581094,0.06508845165139487,0.03801753599168694
0.1022885,0.046024635715814485,0.023300431761524392,0.06506679916033548,0.010673370366346456,0.040006972886450914,0.056750914556926796,0.06479939780789713,0.03770759458190981
0.1028077,0.04568987298609221,0.023167840993615473,0.06527100540628514,0.010654417199372834,0.04004107557377859,0.05631927418191019,0.06450738763824804,0.03739537895357347
0.1033269,0.045356965578762135,0.023034866983517196,0.0654729574141063,0.010635058619065534,0.04007669993427756,0.055886576659463214,0.06421250221783897,0.037080975029106546
0.1038462,0.04502601170259079,0.0229015389382156,0.06567264471719522,0.010615308897927889,0.040113882954674496,0.05545294691969647,0.06391482298198572,0.036764468603348956
0.1043654,0.04469710875419197,0.022767885977515785,0.06587005665778084,0.010595182526956716,0.0401526605839022,0.05501850885753557,0.0636144317024005,0.03644594532079633
0.1048846,0.04437035328952475,0.022633937125929964,0.0660651823954418,0.010574694215216047,0.04019306771941132,0.05458338530785401,0.06331141046358445,0.03612549065304946
0.1054038,0.04404584099570591,0.02249972130461432,0.06625801091582746,0.01055385888932553,0.04023513819387238,0.054147698021106305,0.06300584163914903,0.03580318987647615
0.1059231,0.04372366666314709,0.022365267323357734,0.06644853103957597,0.01053269169286196,0.04027890476227422,0.053711567639464844,0.06269780786807512,0.03547912805009268
0.1064423,0.04340392415802681,0.022230603872625456,0.06663673143142285,0.01051120798567255,0.040324399089425075,0.05327511367346397,0.06238739203091922,0.03515338999367191
0.1069615,0.04308670639510719,0.022095759515660743,0.0668226006094926,0.010489423343098653,0.04037165173786183,0.05283845447915467,0.06207467722597631,0.0348260602660847
0.1074808,0.04277210531090482,0.0219607626806474,0.06700612695476617,0.010467353555108935,0.04042069215617293,0.05240170723577329,0.061759746745408704,0.03449722314388121
0.108,0.042460211837225,0.021825641652936136,0.06718729872071615,0.010445014625341063,0.0404715486677402,0.051964987923927654,0.061442684051350345,0.034166962600118256
0.1085192,0.04215111587506833,0.021690424567337496,0.06736610404310228,0.010422422770051148,0.04052424845990458,0.05152841130430369,0.061123572751995696,0.033835362283438766
0.1090385,0.04184490626891811,0.02155513940048421,0.06754253094991917,0.010399594416970321,0.04057881757356071,0.05109209089689547,0.06080249657768181,0.0335025054974092
0.1095577,0.04154167078141687,0.021419813963265578,0.06771656737148787,0.01037654620406782,0.040635280893185126,0.0506561389607614,0.060479539356971854,0.03316847518012054
0.1100769,0.04124149606844022,0.02128447589333671,0.067888201150683,0.01035329497822008,0.04069366213730265,0.0502206664743089,0.06015478499274795,0.03283335388405834
0.1105962,0.04094446765457584,0.021149152647705262,0.06805742005328634,0.010329857793785304,0.04075398384939525,0.04978578311610973,0.05982831743832088,0.032497223756247334
0.1111154,0.04065066990901549,0.021013871495398368,0.06822421177845739,0.010306251911083093,0.04081626738925759,0.0493515972462475,0.05950022067356402,0.03216016651867578
0.1116346,0.040360186021867535,0.02087865951021242,0.06838856396931119,0.010282494794778791,0.0408805329248028,0.04891821588819915,0.05917057868107878,0.03182226344900487
0.1121538,0.04007309798089772,0.02074354356354823,0.0685504642235934,0.01025860411217229,0.04094679942432234,0.04848574471125159,0.05883947542239865,0.03148359536156806
0.1126731,0.03978948654870528,0.020608550317333958,0.06870990010444247,0.010234597731391145,0.04101508464920327,0.048054288013454474,0.058506994814239155,0.03114424258866519
0.1131923,0.039509431240341626,0.020473706217038187,0.06886685915122881,0.010210493719487927,0.04108540514710645,0.04762394870510985,0.05817322070480061,0.03080428496215579
0.1137115,0.039233010301378456,0.020339037484775193,0.06902132889046052,0.010186310340441864,0.04115777624560919,0.04719482829279918,0.057838236850131404,0.03046380179535595
0.1142308,0.03896030068643189,0.020204570112504528,0.06917329684674521,0.010162066053064972,0.0412322120463157,0.04676702686394796,0.0575021268905591,0.03012287186524268
0.11475,0.038691378038148885,0.020070329855326786,0.06932275055379672,0.010137779508812936,0.041308725419438794,0.04634064307192772,0.05716497432719754,0.029781573394969497
0.1152692,0.03842631666666216,0.01993634222487758,0.06946967756547526,0.010113469549501266,0.0413873279988562,0.04591577412169516,0.05682686249853748,0.029439984036696853
0.1157885,0.03816518952951947,0.019802632482821585,0.06961406546684927,0.010089155204927236,0.04146803017764454,0.04549251575596749,0.05648787455712836,0.029098180854740616
0.1163077,0.03790806821209321,0.019669225634448607,0.06975590188526667,0.010064855690398347,0.04155084110409411,0.045070962241933084,0.0561480934463583,0.028756240309041812
0.1168269,0.03765502290847581,0.019536146422373623,0.06989517450142327,0.010040590404168161,0.04163576867820743,0.044651206358496,0.05580760187733916,0.028414238238960568
0.1173462,0.037406122402866754,0.01940341932034267,0.07003187106041614,0.010016378924780512,0.04172281954868467,0.04423333938405292,0.055466482305903175,0.028072249847397087
0.1178654,0.03716143405145643,0.019271068527146346,0.07016597938276993,0.009992241008323216,0.04181199911039911,0.04381745108480082,0.055124816909717905,0.027730349685242156
0.1183846,0.03692102376481247,0.019139117960642677,0.07029748737542438,0.0099681965855925,0.04190331150236587,0.04340362970357363,0.05478268756552592,0.027388611636159584
0.1189038,0.03668495599077374,0.019007591251890808,0.07042638304267197,0.009944265759169547,0.041996759606207246,0.042991961949205786,0.054440175826516356,0.027047108901702678
0.1194231,0.036453293697857304,0.01887651173939693,0.07055265449703507,0.009920468800410592,0.04209234504511801,0.04258253298642094,0.054097362899835494,0.026705913986766604
0.1199423,0.03622609835918344,0.018745902463473657,0.07067628997007218,0.009896826146352126,0.042190068183333956,0.042175426426243424,0.05375432962424382,0.026365098685378365
0.1204615,0.03600342993692382,0.018615786160713924,0.07079727782310362,0.00987335839653284,0.0422899281261069,0.0417707243169302,0.05341115644792697,0.0260247340668259
0.1209808,0.035785346867277655,0.01848618525858048,0.07091560655784679,0.009850086309734007,0.04239192272018908,0.0413685071354206,0.053067923406468265,0.02568489046212769
0.1215,0.03557190604598041,0.018357121870111917,0.0710312648269513,0.00982703080063998,0.042496048554829656,0.04096885377930131,0.05272471010099061,0.025345637450844043
0.1220192,0.03536316281434947,0.018228617788746307,0.07114424144442409,0.009804212936420567,0.04260230096328556,0.040571841559283825,0.05238159567647551,0.025007043848231096
0.1225385,0.03515917094587105,0.018100694483263558,0.07125452539593437,0.009781653933237003,0.042710674024848856,0.0401775461921914,0.05203865880026706,0.024669177692738357
0.1230577,0.034959982633332325,0.017973373092847803,0.07136210584898818,0.009759375152673217,0.04282116056739243,0.03978604179445292,0.05169597764076881,0.02433210623385045
0.1235769,0.034765648476502785,0.017846674422271128,0.07146697216296274,0.009737398098094053,0.04293375217043539,0.03939740087610065,0.05135362984634119,0.023995895920273545
0.1240962,0.034576217470368806,0.01772061893720012,0.0715691138989912,0.009715744410932012,0.04304843916872966,0.0390116943352692,0.05101169252440724,0.023660612388466878
0.1246154,0.03439173699392518,0.017595226759626593,0.07166852082968929,0.009694435866904083,0.0431652106563689,0.03862899145319305,0.05067024222077387,0.02332632045151961
0.1251346,0.034212252799527526,0.01747051766342388,0.07176518294871626,0.009673494372160179,0.04328405449142041,0.03824935988969975,0.050329354899176094,0.022993084088373215
0.1256538,0.03403780900280909,0.01734651107002984,0.07185909048016302,0.009652941959364699,0.0434049573010811,0.03787286567919621,0.049989105921051186,0.02266096643338937
0.1261731,0.03386844807316527,0.01722322604425766,0.07195023388776088,0.009632800783712729,0.04352790448735769,0.0374995732271449,0.049649570025549865,0.022330029766263273
0.1266923,0.03370421082480903,0.017100681290235436,0.07203860388390367,0.00961309311888243,0.04365288023327157,0.0371295453070271,0.04931082130979139,0.022000335502282125
0.1272115,0.03354513640839995,0.01697889514747536,0.0721241914384766,0.009593841352925125,0.04377986750958864,0.036762843057790054,0.04897293320936974,0.021671944182928327
0.1277308,0.03339126230324945,0.016857885587073303,0.07220698778748465,0.009575067984094663,0.04390884808207391,0.03639952598177463,0.0486359784791178,0.0213449154668267
0.12825,0.03324262431010436,0.01673767020803954,0.07228698444147287,0.009556795616617587,0.044039802519270504,0.03603965194311984,0.04830002917413684,0.021019308121035012
0.1287692,0.03309925654451077,0.01661826623376131,0.0723641731937316,0.009539046956405702,0.04417271020080284,0.035683277166640624,0.047965156631098814,0.0206951800126769
0.1292885,0.032961191430759915,0.016499690508597807,0.07243854612827873,0.009521844806712613,0.04430754932620294,0.03533045623717478,0.047631431449828704,0.02037258810091617
0.1298077,0.03282845969641735,0.01638195949460821,0.07251009562761197,0.009505212063735825,0.04444429692425888,0.03498124209939466,0.04729892347517418,0.020051588429271294
0.1303269,0.03270109036743682,0.016265089268413288,0.07257881438022401,0.009489171712166008,0.044582928862883495,0.03463568605807907,0.0469677017791697,0.01973223611826885
0.1308462,0.03257911076385964,0.0161490955181911,0.07264469538787376,0.009473746820685065,0.0447234198595018,0.03429383777884069,0.04663783464350183,0.01941458535843437
0.1313654,0.03246254649610059,0.01603399354080725,0.07270773197260758,0.009458960537414601,0.04486574349195457,0.03395574528930391,0.04630938954228225,0.01909868940361918
0.1318846,0.03235142146182093,0.015919798239080053,0.07276791778352402,0.00944483608531642,0.045009872209915536,0.03362145498072791,0.04598243312513527,0.018784600564661556
0.1324038,0.03224575784338893,0.015806524119181087,0.07282524680327569,0.00943139675754666,0.045155777346819206,0.033291011610069705,0.0456570312006063,0.01847237020338065
0.1329231,0.03214557610592861,0.015694185288171427,0.07287971335430128,0.00941866591276515,0.04530342913229566,0.032964458302481646,0.045333248719897766,0.01816204872690149
0.1334423,0.03205089499595661,0.015582795451673903,0.07293131210478151,0.009406666970401517,0.04545279670510889,0.03264183655423779,0.04501114976093875,0.01785368558230947
0.1339615,0.03196173154060732,0.01547236791168166,0.07298003807431282,0.009395423405879538,0.04560384812659461,0.03232318623608345,0.044690797512794415,0.017547329251632722
0.1344808,0.031878101047445866,0.015362915564503248,0.0730258866392935,0.00938495874580113,0.04575655039459304,0.03200854559700226,0.044372254260421067,0.017243027247150725
0.135,0.03180001710486853,0.015254450898844458,0.07306885353801937,0.00937529656309138,0.04591086945787221,0.03169795126839498,0.04405558136977245,0.016940826107027435
0.1355192,0.03172749158308983,0.015146985994027036,0.07310893487548745,0.009366460472105934,0.046066770231036634,0.031391438268664584,0.04374083927326271,0.016640771391267246
0.1360385,0.03166053463571529,0.015040532518344356,0.07314612712790863,0.009358474123702023,0.04622421660991574,0.031089040008202524,0.043428087455591215,0.01634290767799186
0.1365577,0.03159915470189889,0.014935101727554058,0.07318042714693196,0.00935136120027441,0.046383171487426635,0.030790788294771682,0.0431173844399344,0.016047278560036085
0.1370769,0.03154335850908383,0.014830704463507642,0.07321183216358383,0.009345145410757455,0.04654359676990489,0.030496713339282253,0.04280878777450966,0.015753926641860466
0.1375962,0.03149315107632532,0.01472735115291689,0.0732403397919262,0.00933985048559448,0.04670545339389691,0.030206843761957296,0.04250235401951609,0.015462893536778526
0.1381154,0.031448535718193955,0.014625051806256933,0.07326594803243812,0.00933550017167567,0.0468687013434071,0.02992120659888518,0.042198138734457206,0.015174219864496246
0.1386346,0.03140951404925806,0.014523816016805654,0.07328865527512497,0.009332118227245717,0.04703329966759276,0.02963982730895617,0.04189619646585017,0.014887945248961395
0.1391538,0.03137608598914325,0.014423652959819037,0.07330846030236052,0.009329728416782465,0.047199206498899485,0.029362729781180593,0.04159658073532605,0.014604108316520203
0.1396731,0.031348249768167406,0.01432457139184194,0.07332536229146717,0.00932835450584784,0.047366379071629695,0.029089936342385766,0.04129934402812529,0.014322746694378883
0.1401923,0.0313260019335491,0.014226579650153654,0.0733393608170405,0.009328020255912315,0.0475347737409365,0.0288214677652887,0.04100453778199228,0.014043897009367338
0.1407115,0.031309337356187295,0.014129685652347544,0.07335045585302415,0.009328749419154224,0.04770434600223514,0.02855734327694151,0.04071221237647285,0.013767594887002422
0.1412308,0.03129824923801001,0.014033896896043913,0.0733586477745423,0.009330565733235197,0.047875050511023934,0.02829758056754608,0.040422417122618196,0.013493874950848033
0.14175,0.03129272911988936,0.01393922045873522,0.07336393735949667,0.009333492916053005,0.04804684110310636,0.02804219579963448,0.040135200253098476,0.013222770822169171
0.1422692,0.03129276689012029,0.013845662997762638,0.07336632578993572,0.009337554660473096,0.04821967081520562,0.027791203617611313,0.0398506089127294,0.01295431511987704
0.1427885,0.031298350793459905,0.013753230750422903,0.07336581465320365,0.009342774629040106,0.04839349190596259,0.027544617157654033,0.03956868914941468,0.012688539460762179
0.1433077,0.03130946744072423,0.013661929534204318,0.07336240594287621,0.009349176448670646,0.04856825587730785,0.027302448057967093,0.039289485905507196,0.012425474460012478
0.1438269,0.03132610181893899,0.013571764747150756,0.07335610205949054,0.009356783705328607,0.04874391349619776,0.027064706469385483,0.039013043009591616,0.0121651497320129
0.1443462,0.03134823730204082,0.013482741368352385,0.07334690581107504,0.009365619938684181,0.048920414816704685,0.026831401066323177,0.03873940316869085,0.011907593891423592
0.1448654,0.031375855662125134,0.013394863958561699,0.07333482041348509,0.009375708636757749,0.049097709202450456,0.026602539058061772,0.03846860796089854,0.01165283455453306
0.1453846,0.03140893708123676,0.013308136660933407,0.07331984949054954,0.009387073230549728,0.04927574534937234,0.02637812620037445,0.03820069782843958,0.011400898340882943
0.1459038,0.03144746016369904,0.0132225632018866,0.0733019970740324,0.00939973708865743,0.049454471308809964,0.026158166807480322,0.03793571207116036,0.011151810875160971
0.1464231,0.031491401948977225,0.013138146892087513,0.07328126760341354,0.009413723511879947,0.04963383451090163,0.025942663764324057,0.03767368884045026,0.010905596789358634
0.1469423,0.03154073792507176,0.013054890627551075,0.07325766592549164,0.009429055727812052,0.04981378178827789,0.025731618539175743,0.03741466513359556,0.0106622797251902
0.1474615,0.03159544204243684,0.012972796890859386,0.0732311972938122,0.009445756885428123,0.04999425940004027,0.025525031196545696,0.03715867678856669,0.010421882336769798
0.1479808,0.03165548672841992,0.01289186775249505,0.07320186736792295,0.009463850049657066,0.050175213056012365,0.025322900410409035,0.03690575847923959,0.010184426293543297
0.1485,0.03172084290221747,0.012812104872287327,0.07316968221245952,0.009483358195949292,0.05035658794125032,0.02512522347773456,0.03665594371105131,0.009949932283471798
0.1490192,0.031791479990342604,0.012733509500968835,0.07313464829606381,0.00950430420483679,0.05053832874079938,0.024931996332312484,0.036409264817090135,0.009718420016463523
0.1495385,0.031867365942599826,0.012656082481840502,0.07309677249013771,0.009526710856487436,0.05072037966468281,0.024743213558875623,0.03616575295461984,0.009489908228050866
0.1500577,0.03194846724856259,0.012579824252542395,0.07305606206743501,0.009550600825254744,0.05090268447310918,0.024558868407508466,0.03592543810203764,0.009264414683309357
0.1505769,0.03203474895454887,0.012504734846927924,0.07301252470049427,0.009575996674224353,0.05108518650188388,0.02437895280833882,0.035688349056264855,0.0090419561810152
0.1510962,0.03212617468109046,0.012430813897039051,0.07296616845991542,0.009602920849758587,0.05126782868801074,0.024203457386506474,0.03545451343056917,0.008822548558038061
0.1516154,0.03222270664089114,0.012358060635180032,0.07291700181248245,0.009631395676040592,0.05145055359546925,0.024032371477403506,0.03522395765281721,0.008606206693965711
0.1521346,0.03232430565726921,0.012286473896087296,0.07286503361913457,0.009661443349619589,0.05163330344115313,0.02386568314218063,0.03499670696415577,0.008392944515957066
0.1526538,0.03243093118307948,0.012216052119193008,0.07281027313278815,0.009693085933958857,0.05181602012095579,0.023703379183513885,0.03477278541811994,0.008182775003820196
0.1531731,0.03254254132010992,0.01214679335097991,0.07275272999601144,0.009726345353988171,0.05199864523598795,0.02354544516162589,0.03455221588016609,0.007975710195311748
0.1536923,0.03265909283894776,0.012078695247424984,0.07269241423855445,0.009761243390662451,0.05218112011891257,0.023391865410555785,0.03433502002762746,0.0077717611916543
0.1542115,0.03278054119930998,0.012011755076529637,0.07262933627473618,0.009797801675528402,0.05236338586038201,0.023242623054671688,0.03412121835008978,0.007570938163267996
0.1547308,0.03290684057083285,0.011945969720934148,0.07256350690069224,0.009836041685300976,0.052545383335561996,0.023097700025419374,0.0339108301501842,0.007373250355712849
0.15525,0.03303794385431511,0.011881335680614304,0.0724949372914862,0.0098759847364515,0.05272705323072707,0.022957077078300657,0.03370387354479451,0.0071787060958380215
0.1557692,0.03317380270340919,0.011817849075658313,0.07242363899808854,0.009917651979809271,0.05290833606991165,0.022820733810074833,0.03350036546667544,0.006987312798134333
0.1562885,0.033314367546754584,0.011755505649122266,0.07234962394422696,0.009961064395178437,0.053089172241601174,0.02268864867617623,0.03330032166647889,0.006799076971286257
0.1568077,0.033459587610547535,0.01169430076996269,0.07227290442311245,0.010006242785971904,0.053269502025447446,0.022560799008340845,0.03310375671518477,0.00661400422491959
0.1573269,0.03360941094154059,0.011634229436044821,0.07219349309404495,0.01005320777386397,0.053449265618992686,0.02243716103243488,0.03291068400693303,0.006432099276540938
0.1578462,0.033763784430465606,0.01157528627722542,0.07211140297890281,0.010101979793463313,0.053628403164387,0.02231770988647773,0.032721115762253485,0.0062533659586651615
0.1583654,0.033922653835873305,0.011517465558509103,0.07202664745851936,0.010152579087007969,0.05380685477508404,0.022202419638851924,0.032535063031689945,0.006077807226126817
0.1588846,0.03408596380838226,0.011460761183277183,0.07193924026895004,0.010205025699083806,0.053984560562499846,0.022091263306692196,0.0323525356998152,0.005905425163571655
0.1594038,0.034253657915329874,0.011405166696588007,0.07184919549763272,0.010259339471368095,0.05416146066262003,0.021984212874445828,0.03217354248963323,0.005736220993124188
0.1599231,0.0344256786658176,0.011350675288547753,0.07175652757944347,0.010315540037399715,0.05433749526254026,0.021881239312596237,0.031998090967365146,0.005570195082227302
0.1604423,0.03460196753614245,0.011297279797750616,0.07166125129264969,0.010373646817377588,0.05451260462692484,0.021782312596541623,0.03182618754761526,0.005407346951649843
0.1609615,0.0347824649956065,0.011244972714787272,0.07156338175476215,0.010433679012988955,0.05468672912436792,0.021687401725620326,0.03165783749891352,0.0052476752836580895
0.1614808,0.03496711053269578,0.0111937461858205,0.07146293441828756,0.010495655602269116,0.05485980925364151,0.021596474742274618,0.031493044949630546,0.005091177930347012
0.162,0.03515584268161966,0.011143592016226854,0.07135992506638346,0.010559595334494331,0.05503178566981422,0.021509498751344527,0.03133181289426122,0.0049378519221271655
0.1625192,0.03534859904920169,0.011094501674303323,0.07125436980841743,0.010625516725109618,0.05520259921022464,0.021426439939483257,0.031174143200072883,0.004787693476363084
0.1630385,0.03554531634211234,0.011046466295037964,0.07114628507543283,0.010693438050693197,0.055372190920293524,0.021347263594685754,0.0310200366141137,0.004640698006159011
0.1635577,0.03574593039443417,0.010999476683943602,0.0710356876155227,0.0107633773439594,0.05554050207915924,0.021271934125922008,0.030869492770576816,0.004496860129287818
0.1640769,0.03595037619554946,0.010953523320953718,0.07092259448911421,0.010835352388801886,0.055707474225122344,0.021200415082866728,0.030722510198515574,0.0043561736772589794
0.1645962,0.036158587918340264,0.01090859636437972,0.07080702306416552,0.010909380715379035,0.05587304918088553,0.021132669175717104,0.030579086329904852,0.004218631704521451
0.1651154,0.03637049894769062,0.010864685654928829,0.07068899101127783,0.010985479595243396,0.056037169078576435,0.021068658295090505,0.030439217508043466,0.004084226497797356
0.1656346,0.03658604190928034,0.010821780719781758,0.07056851629872589,0.01106366603651711,0.05619977638454138,0.021008343531994014,0.0303028989962924,0.00395294958554239
0.1661538,0.036805148698659765,0.010779870776729513,0.07044561718741058,0.011143956779115166,0.056360813923898405,0.02095168519785794,0.030170124987143398,0.003824791747528931
0.1666731,0.03702775051059451,0.01073894473836861,0.07032031222573834,0.011226368290018354,0.056520224904838705,0.020898642844625573,0.030040888611612287,0.0036997430245479176
0.1671923,0.03725377786866896,0.010698991216354103,0.07019262024443207,0.011310916758597743,0.056677952942665304,0.02084917528489162,0.029915181948951146,0.003577792728225613
0.1677115,0.037483160655137154,0.010659998525709884,0.07006256035127836,0.01139761809199242,0.05683394208355827,0.02080324061208197,0.029792996036673212,0.0034589294509514597
0.1682308,0.03771582814100953,0.010621954689195771,0.06993015192581666,0.011486487910542152,0.056988136828055654,0.02076079622066761,0.029674320880884317,0.003343141075913261
0.16875,0.03795170901636382,0.010584847441730919,0.0697954146139755,0.011577541543276539,0.057140482154239496,0.020721798826405485,0.029559145466914304,0.003230414787235955
0.1692692,0.03819073142086824,0.010548664234873006,0.06965836832266098,0.011670794023462184,0.05729092354061623,0.020686204486599233,0.02944745777024187,0.0031207370802202716
0.1697885,0.03843282297450488,0.010513392241352715,0.06951903321430279,0.011766260084209309,0.057439406988680934,0.02065396862037283,0.029339244767706062,0.003014093771677572
0.1703077,0.03867791080848123,0.01047901835966298,0.0693774297013627,0.011863954154139197,0.05758587904515492,0.020625046028950333,0.02923449244899749,0.002910470010357189
0.1708269,0.03892592159631751,0.010445529218702463,0.069233578440811,0.01196389035311382,0.05773028682388628,0.020599390915935083,0.029133185828422416,0.0028098502874626214
0.1713462,0.03917678158509722,0.010412911182472779,0.06908750032857608,0.012066082488028927,0.057872578027402886,0.020576956907581982,0.029035308956932713,0.002712218447252928
0.1718654,0.039430416626868234,0.010381150354828943,0.06893921649397186,0.012170544048671912,0.05801270096810722,0.0205576970730564,0.028940844934414702,0.002617557697725699
0.1723846,0.039686752210181496,0.01035023258428255,0.06878874829410822,0.012277288203645735,0.05815060458910216,0.020541563944673318,0.028849775922229943,0.002525850621377994
0.1729038,0.03994571349175403,0.010320143468857157,0.06863611730828861,0.012386327796360093,0.058286238484636634,0.020528509538110164,0.028762083156000862,0.002437079186041668
0.1734231,0.04020722532824275,0.01029086836099536,0.06848134533239902,0.012497675341091145,0.058419552920159615,0.020518485372586766,0.02867774695863403,0.0023512247557895315
0.1739423,0.040471212308115415,0.01026239237251703,0.06832445437329192,0.012611343019111007,0.05855049885197038,0.02051144249100574,0.028596746753573654,0.0022682681019088316
0.1744615,0.04073759878360445,0.010234700379628087,0.06816546664316821,0.012727342674888314,0.05867902794645297,0.020507331480046808,0.028519061078277844,0.002188189413938593
0.1749808,0.04100630890272945,0.010207777027979219,0.06800440455396052,0.012845685812361094,0.05880509259888208,0.020506102490208653,0.02844466759791011,0.0021109683107673684
0.1755,0.041277266641373454,0.010181606737773843,0.06784129071172097,0.012966383591283206,0.05892864595178753,0.02050770525579233,0.028373543119238554,0.0020365838517879802
0.1760192,0.04155039583539812,0.010156173708924604,0.0676761479110167,0.01308944682364561,0.05904964191286403,0.020512089114820532,0.028305663604735538,0.0019650145481058486
0.1765385,0.04182562021278241,0.010131461926257633,0.06750899912933704,0.01321488597017362,0.05916803517241245,0.02051920302888744,0.028241004186870627,0.001896238373797493
0.1770577,0.04210286342576914,0.010107455164763763,0.067339867521516,0.013342711136901338,0.05928378122029887,0.020528995602934048,0.028179539182589596,0.001830232777215813
0.1775769,0.0423820490830036,0.01008413699489592,0.06716877641417394,0.013472932071824373,0.05939683636241709,0.020541415104944023,0.02812124210797238,0.001766974692338756
0.1780962,0.042663100781648304,0.010061490787911824,0.06699574930018215,0.013605558161631887,0.05950715773664107,0.020556409485555427,0.028066085693062494,0.0017064405501580162
0.1786154,0.04294594213945769,0.010039499721261197,0.06682080983315304,0.013740598428518911,0.05961470332825407,0.020573926397583753,0.02801404189686052,0.001648606290104468
0.1791346,0.043230496826796735,0.010018146784016628,0.0666439818219592,0.013878061527079795,0.0597194319848425,0.02059391321545225,0.02796508192247376,0.001593447371507119
0.1796538,0.04351668859858722,0.009997414782347284,0.06646528922528333,0.01401795574128356,0.05982130343064385,0.020616317054525858,0.02791917623241434,0.001540938785082464
0.1801731,0.043804441326165504,0.00997728634503469,0.06628475614620116,0.014160288981531833,0.05992027828033916,0.020641084790345432,0.027876294564037635,0.0014910550644512098
0.1806923,0.04409367902903584,0.009957743929029804,0.06610240682679872,0.01430506878179997,0.060016318052282344,0.02066816307775916,0.027836405945112955,0.00144377029767943
0.1812115,0.04438432590650297,0.009938769825050637,0.06591826564282505,0.014452302296861886,0.06010938518115996,0.02069749836994807,0.02779947870951832,0.0013990581388413058
0.1817308,0.04467630636916821,0.00992034616321969,0.06573235709838116,0.014601996299599193,0.060199443030076946,0.02072903693734265,0.02776548051305105,0.001356891819600681
0.18225,0.044969545070273266,0.009902454918740483,0.06554470582064559,0.01475415717839504,0.060286455902065196,0.020762724886427473,0.027734378349345903,0.001317244160808755
0.1827692,0.0452639669368761,0.00988507791761246,0.06535533655463671,0.014908790934613239,0.06037038905101367,0.020798508178430857,0.02770613856589264,0.0012800875841153007
0.1832885,0.04555949720084353,0.009868196842383525,0.06516427415801189,0.015065903180163138,0.06045120869201988,0.02083633264789655,0.027680726880144876,0.0012453941235908634
0.1838077,0.04585606142964527,0.009851793237939423,0.06497154359590318,0.015225499135150752,0.06052888201116371,0.020876144021134458,0.027658108395712196,0.001213135437357436
0.1843269,0.04615358555693449,0.009835848517329182,0.06477716993578937,0.015387583625616713,0.06060337717470441,0.02091788793454755,0.02763824761862747,0.0011832828192251603
0.1848462,0.046451995912900064,0.009820343967625697,0.06458117834240334,0.015552161081361619,0.06067466333770199,0.020961509952832198,0.02762110847368148,0.0011558072103326291
0.1853654,0.046751219254375746,0.009805260755820503,0.06438359407267359,0.015719235533859382,0.06074271065206398,0.021006955587049236,0.027606654320817024,0.0011306792107884146
0.1858846,0.047051182794691865,0.009790579934751737,0.06418444247069817,0.01588881061425922,0.06080749027401871,0.021054170312563257,0.027594847971574868,0.0011078690913114645
0.1864038,0.04735181423325524,0.009776282449064136,0.06398374896274928,0.016060889551476963,0.0608689743710158,0.021103099586847692,0.027585651705584514,0.0010873468048680406
0.1869231,0.04765304178484304,0.009762349141199916,0.06378153905230675,0.01623547517037639,0.06092713612805494,0.021153688867153464,0.027579027287093112,0.001069081998302877
0.1874423,0.04795479420859671,0.009748760757419284,0.0635778383151191,0.016412569890041254,0.06098194975344381,0.021205883628039032,0.027574935981526365,0.0010530440239622505
0.1879615,0.04825700083670193,0.009735497953849225,0.06337267239429092,0.01659217572213871,0.06103339048398603,0.02125962937875983,0.02757333857207564,0.0010392019513066814
0.1884808,0.04855959160274098,0.009722541302559205,0.06316606699539672,0.0167742942693748,0.06108143458960017,0.021314871680515268,0.027574195376305642,0.001027524578510999
0.189,0.04886249706970381,0.009709871297662334,0.06295804788162072,0.016958926724042495,0.06112605937737078,0.02137155616355163,0.027577466262777014,0.001017980444049535
0.1895192,0.04916564845764443,0.00969746836144045,0.06274864086892352,0.017146073866662927,0.06116724319503292,0.02142962854411958,0.027583110667678188,0.0010105378382642242
0.1900385,0.04946897767096936,0.009685312850491574,0.06253787182123548,0.017335736064720136,0.06120496543389271,0.02148903464128497,0.0275910876114608,0.0010051648149134037
0.1905577,0.0497724173253449,0.009673385061898174,0.06232576664567715,0.017527913271489715,0.06123920653118691,0.02154972039359204,0.027601355715472998,0.0010018292026991026
0.1910769,0.050075900774210085,0.009661665239414658,0.06211235128780683,0.017722605024961525,0.06126994797188665,0.02161163187557808,0.02761387321858511,0.0010004986167706153
0.1915962,0.05037936213488254,0.009650133579672614,0.06189765172689513,0.017919810446856577,0.06129717228995089,0.021674715314138837,0.027628597993802413,0.0010011404702021459
0.1921154,0.05068273631424431,0.009638770238402318,0.06168169397122696,0.018119528241738063,0.06132086306903676,0.021738917104743852,0.02764548756486022,0.0010037219854423158
0.1926346,0.05098595903399483,0.009627555336669145,0.06146450405343138,0.018321756696216322,0.061341004942674526,0.02180418382750116,0.027664499122796758,0.0010082102057333343
0.1931538,0.05128896685545832,0.009616468967123544,0.06124610802584058,0.018526493678247564,0.06135758359391512,0.021870462263070375,0.027685589542499642,0.0010145720064976447
0.1936731,0.05159169720393271,0.009605491200263317,0.061026531955879766,0.01873373663652598,0.061370585754459056,0.021937699408423356,0.027708715399221765,0.0010227741066898954
0.1941923,0.05189408839256741,0.009594602090706922,0.06080580192149056,0.018943482599968933,0.06137999920327561,0.022005842492451307,0.027733832985062327,0.0010327830801121058
0.1947115,0.05219607964575713,0.009583781683476565,0.06058394400659089,0.019155728177294898,0.061385812764721846,0.022074838991417094,0.027760898325408782,0.0010445653666899376
0.1952308,0.05249761112203875,0.009573010020289789,0.060360984296574945,0.019370469556693682,0.06138801630617201,0.022144636644251467,0.02778986719533533,0.0010580872837079992
0.19575,0.05279862393647811,0.009562267145858233,0.060136948873856594,0.019587702505588635,0.06138660073516856,0.022215183467691593,0.027820695135953474,0.001073315037002128
0.1962692,0.053099060182533776,0.009551533114192197,0.05991186381345993,0.01980742237049042,0.061381557996106936,0.02228642777126023,0.02785333747071011,0.001090214732106603
0.1967885,0.053398862953384085,0.009540787994909686,0.05968575517866065,0.020029624076942094,0.06137288106646653,0.02235831817208373,0.02788774932162864,0.0011087523853542478
0.1973077,0.053697976362704014,0.009530011879548642,0.05945864901668243,0.020254302129555257,0.061360563952600304,0.022430803609546805,0.027923885625488643,0.001128893934927395
0.1978269,0.05399634556487775,0.009519184887881133,0.05923057135445229,0.0204814506121371,0.06134460168509564,0.02250383335978194,0.027961701149939625,0.00115060525185771
0.1983462,0.05429391677463255,0.009508287174228417,0.05900154819441993,0.020711063187908264,0.06132499031371866,0.02257735704999129,0.028001150509544576,0.0011738521509728885
0.1988654,0.054590637286079234,0.009497298933775877,0.058771605510446114,0.020943133099811512,0.06130172690195388,0.02265132467259863,0.02804218818174911,0.001198600401788271
0.1993846,0.05488645549114412,0.009486200408886904,0.058540769243765584,0.021177653170911286,0.06127480952115066,0.022725686599229168,0.028084768522772106,0.001224815739341428
0.1999038,0.055181320897377054,0.009474971895414845,0.058309065299030426,0.021414615804884185,0.06124423724428758,0.022800393594514752,0.028128845783413785,0.0012524638749677873
0.2004231,0.05547518414511959,0.009463593749012143,0.05807651954043981,0.021654012986600454,0.06121001013936542,0.022875396829722068,0.028174374124777038,0.001281510507015389
0.2009423,0.055767997024017184,0.009452046391435705,0.05784315778796198,0.021895836282796458,0.06117212926243876,0.02295064789620133,0.028221307633897828,0.0013119213314968581
0.2014615,0.05605971248885891,0.009440310316847616,0.057609005813654066,0.022140076842837975,0.06113059665029637,0.02302609881865283,0.028269600339280356,0.0013436620526767137
0.2019808,0.056350284674727844,0.009428366098110274,0.05737408933808516,0.022386725399574123,0.06108541531279982,0.023101702068208562,0.028319206226332893,0.0013766983935921337
0.2025,0.056639668911445035,0.009416194393075122,0.05713843402686776,0.02263577227028152,0.061036589224890164,0.02317741057532591,0.028370079252700228,0.0014109961065053292
0.2030192,0.056927821737289705,0.009403775950864257,0.056902065487302075,0.02288720735769816,0.06098412331827242,0.023253177742490427,0.028422173363489,0.001446520983285691
0.2035385,0.05721470091197834,0.009391091618144325,0.056665009265137595,0.023141020151146354,0.06092802347278729,0.0233289574567242,0.02847544250638241,0.0014832388657198968
0.2040577,0.057500265428885124,0.009378122345392296,0.05642729084145563,0.02339719972774412,0.060868296507479956,0.023404704101896545,0.028529840646640922,0.001521115655748181
0.2045769,0.0577844755264864,0.009364849193152796,0.05618893562967653,0.023655734753704166,0.060804950171375424,0.023480372570833227,0.028585321781985744,0.0015601173256250022
0.2050962,0.05806729269901202,0.009351253338286845,0.05594996897269444,0.023916613485719777,0.06073799313397039,0.02355591827722046,0.028641839957361796,0.0016002099280023733
0.2056154,0.05834867970628716,0.009337316080211901,0.05571041614014267,0.024179823772436687,0.060667434975450824,0.02363129716729975,0.0286993492795769,0.0016413596059341442
0.2061346,0.05862860058274843,0.00932301884713318,0.05547030232579215,0.02444535305601005,0.06059328617664516,0.023706465731349557,0.02875780393181368,0.0016835326027995557
0.2066538,0.058907020645619305,0.009308343202266256,0.05522965264508543,0.02471318837374563,0.060515558108722486,0.023781381014950066,0.02881715818801056,0.00172669527214444
0.2071731,0.05918390650223031,0.009293270850050954,0.054988492132808285,0.02498331635982415,0.060434263022645485,0.023856000630027466,0.028877366427108083,0.0017708140874384904
0.2076923,0.05945922605647061,0.009277783642356515,0.05474684574090086,0.025255723247107894,0.060349414038387846,0.023930282765674795,0.028938383147156667,0.0018158556517470573
0.2082115,0.05973294851435895,0.009261863584677985,0.05450473833640978,0.025530394869028354,0.06026102513392592,0.024004186198747016,0.029000162979281815,0.0018617867073159797
0.2087308,0.06000504438872314,0.009245492842323741,0.054262194699582746,0.025807316661554003,0.060169111134014554,0.024077670304228856,0.029062660701502572,0.0019085741450680042
0.20925,0.06027548550297891,0.009228653746593969,0.05401923952210663,0.026086473665237017,0.06007368769875703,0.024150695065374542,0.029125831252399065,0.001956185014009414
0.2097692,0.060544244994001496,0.009211328800949893,0.05377589740548959,0.026367850527337762,0.05997477131197923,0.024223221083618855,0.029189629744624593,0.002004586530545561
0.2102885,0.06081129731408487,0.009193500687173449,0.0535321928595874,0.026651431504025967,0.05987237926941798,0.024295209588259353,0.02925401147825757,0.0020537460877040757
0.2108077,0.06107661823198611,0.009175152271517092,0.053288150301274186,0.0269372004626573,0.05976652966673396,0.02436662244590963,0.029318931953988495,0.0021036312642646053
0.2113269,0.06134018483305425,0.009156266610843363,0.05304379405325709,0.027225140884124116,0.05965724138735959,0.02443742216972351,0.029384346886136815,0.0021542098337940002
0.2118462,0.06160197551844511,0.009136826958753752,0.052799148343034785,0.027515235865278997,0.05954453409019232,0.024507571928390325,0.029450212215492384,0.0022054497735859166
0.2123654,0.06186197000342535,0.009116816771706412,0.05255423730199929,0.02780746812142961,0.05942842819714356,0.024577035554901344,0.02951648412197619,0.0022573192735038283
0.2128846,0.06212014931477046,0.009096219715122188,0.052309084964680924,0.028101819988903286,0.05930894488055334,0.024645777555087397,0.029583119037114743,0.002309786744726458
0.2134038,0.06237649578726276,0.0090750196694784,0.0520637152681359,0.02839827342767946,0.059186106050480365,0.024713763115927632,0.02965007365632301,0.0023628208283946192
0.2139231,0.06263099305929691,0.009053200736389752,0.051818152051476135,0.02869681002408802,0.05905993434187666,0.024780958113629386,0.02971730495099089,0.002416390404158484
0.2144423,0.06288362606760105,0.009030747244675763,0.051572419055540795,0.028997410993571247,0.058930453101655865,0.024847329121479085,0.029784770180368604,0.0024704645986242816
0.2149615,0.06313438104108254,0.009007643756414043,0.05132653992270884,0.02930005718350692,0.05879768637566363,0.024912843417464553,0.02985242690324651,0.0025250127936994556
0.2154808,0.0633832454938074,0.008983875072978752,0.051080538196851974,0.029604729076089898,0.05866165889555838,0.02497746899166924,0.02992023298942506,0.0025800046348353083
0.216,0.06363020821712223,0.008959426241063523,0.05083443732342713,0.029911406791269322,0.058522396065610514,0.02504117455343919,0.029988146630970446,0.002635410039166152
0.2165192,0.06387525927092753,0.008934282558688186,0.050588260649707326,0.030220070089738385,0.058379923949427724,0.025103929538323917,0.030056126353251743,0.0026911992035440068
0.2170385,0.06411838997411115,0.008908429581188558,0.05034203142514984,0.03053069837597351,0.05823426925661433,0.02516570411479233,0.03012413102575559,0.0027473426124678684
0.2175577,0.06435959289415043,0.008881853127188569,0.050095772801900244,0.030843270701319675,0.05808545932937225,0.025226469190725093,0.030192119872674585,0.0028038110459065804
0.2180769,0.06459886183589203,0.008854539284554016,0.04984950783543141,0.031157765767118508,0.05793352212905101,0.025286196419684995,0.03026005248326597,0.0028605755870143488
0.2185962,0.06483619182951877,0.008826474416327154,0.04960325948531634,0.03147416192787598,0.05777848622265423,0.02534485820696713,0.030327888821977275,0.002917607629737947
0.2191154,0.06507157911771344,0.008797645166641357,0.04935705061613374,0.03179243719446645,0.05762038076930963,0.025402427715430866,0.03039558923833579,0.002974878886314694
0.2196346,0.06530502114203009,0.008768038466615008,0.04911090399850555,0.032112569237370193,0.05745923550670964,0.025458878871115857,0.03046311447659909,0.003032361394660284
0.2201538,0.06553651652848426,0.00873764154022375,0.048864842310265375,0.03243453538994178,0.057295080737529994,0.025514186368644394,0.030530425685163932,0.0030900275256455657
0.2206731,0.06576606507237431,0.008706441910150138,0.04861888813775662,0.03275831265170715,0.05712794731583312,0.02556832567641237,0.030597484425731056,0.0031478499902614044
0.2211923,0.06599366772234679,0.008674427403609696,0.04837306397725901,0.03308387769168759,0.05695786663346354,0.025621273041571278,0.030664252682223468,0.0032058018466707746
0.2217115,0.06621932656372008,0.00864158615815234,0.04812739223654169,0.03341120685174937,0.056784870606442495,0.025673005494803617,0.030730692869455793,0.003263856507147279
0.2222308,0.06644304480108121,0.008607906627438008,0.04788189523654081,0.03374027614997807,0.056608991661368936,0.025723500854893975,0.030796767841552216,0.0033219877448993178
0.22275,0.06666482674017186,0.00857337758698533,0.04763659521315943,0.034071061284076734,0.056430262721834164,0.02577273773309806,0.030862440900110852,0.003380169700779162
0.2232692,0.06688467776908069,0.008537988139892077,0.047391514319186985,0.034403537634787394,0.0562487171948574,0.025820695537311932,0.030927675802112694,0.0034383768898761857
0.2237885,0.06710260433876014,0.008501727722526066,0.0471466746263351,0.03473768026933523,0.056064388957349505,0.025867354476043596,0.030992436767573586,0.003496584207993516
0.2243077,0.06731861394288716,0.008464586110185173,0.04690209812738638,0.03507346394489451,0.055877312342612145,0.02591269556218901,0.031056688486938284,0.0035547669380073827
0.2248269,0.06753271509708807,0.008426553422725037,0.046657806738452184,0.03541086311207533,0.055687522126879545,0.025956700616614727,0.03112039612821568,0.003612900756108481
0.2253462,0.06774491731754943,0.008387620130153022,0.04641382230133537,0.03574985191843002,0.05549505351591017,0.025999352271549123,0.03118352534385482,0.0036709617379247347
0.2258654,0.06795523109903738,0.008347777058186932,0.04617016658599343,0.03609040421197781,0.0552999421316354,0.026040633973784203,0.031246042277361646,0.0037289263645249064
0.2263846,0.06816366789234897,0.008307015393776946,0.04592686129309737,0.03643249354474644,0.05510222399887223,0.02608052998768981,0.03130791356965647,0.003786771528302589
0.2269038,0.06837024008122017,0.008265326690589202,0.045683928056681124,0.03677609317632921,0.05490193553210677,0.026119025398041836,0.031369106365172324,0.0038444745387401823
0.2274231,0.06857496095871572,0.008222702874449395,0.04544138844687627,0.037121176077456054,0.05469911352235513,0.026156106112665934,0.03142958831769438,0.0039020131280524967
0.2279423,0.06877784470312694,0.008179136248744756,0.04519926397272643,0.03746771493357714,0.054493795124107756,0.02619175886489805,0.03148932759594042,0.003959365456709668
0.2284615,0.06897890635340394,0.008134619499782747,0.0449575760850758,0.03781568214845764,0.05428601784236302,0.02622597121586289,0.031548292888882466,0.004016510118839064
0.2289808,0.06917816178414961,0.008089145702104832,0.04471634617952616,0.03816504984778225,0.05407581951975571,0.02625873155657121,0.03160645341080978,0.004073426147505891
0.2295,0.06937562768020271,0.008042708323753702,0.044475595599456415,0.03851578988276812,0.05386323832378559,0.026290029109836764,0.03166377890613374,0.004130093019872216
0.2300192,0.06957132151083802,0.00799530123149241,0.04423534563909858,0.03886787383378507,0.05364831273415128,0.026319853932013335,0.03172023965393551,0.0041864906622341375
0.2305385,0.06976526150361155,0.007946918695973889,0.04399561754666402,0.03922127301398186,0.0534310815301943,0.026348196914552258,0.031775806472257716,0.004242599454936866
0.2310577,0.06995746661787879,0.007897555396859378,0.043756432527513274,0.03957595847291745,0.05321158377845842,0.026375049785380737,0.031830450722141794,0.004298400237167464
0.2315769,0.0701479565180138,0.007847206427884336,0.04351781174736302,0.03993190100019632,0.052989858820368545,0.026400405110101076,0.03188414431141268,0.0043538743116250025
0.2320962,0.07033675154635702,0.007795867301870429,0.04327977633552328,0.04028907112910662,0.05276594626003379,0.026424256293010873,0.031936859698213,0.004409003449067891
0.2326154,0.070523872695919,0.007743533955682169,0.0430423473881581,0.04064743914026003,0.052539885952178525,0.02644659757794436,0.03198856989428878,0.0044637698927380955
0.2331346,0.070709341582867,0.007690202755126766,0.04280554597156294,0.041006975065232154,0.05231171799020513,0.026467424048934964,0.03203924846802879,0.004518156362661969
0.2336538,0.07089318041882063,0.007635870499795722,0.04256939312545181,0.041367648690201625,0.052081482694391716,0.02648673163069927,0.032088869547259924,0.0045721460598273835
0.2341731,0.07107541198298252,0.007580534427846621,0.042333909866247,0.041729429559586376,0.05184922060022801,0.026504517088942598,0.03213740782180139,0.00462572267023685
0.2346923,0.07125605959412926,0.007524192220723532,0.042099117190364424,0.04209228697967473,0.05161497244689176,0.026520778030486424,0.03218483854578044,0.004678870368836268
0.2352115,0.07143514708248705,0.007466842007814384,0.041865036077487566,0.04245619002224921,0.0513787791658681,0.026535512903217873,0.03223113753971315,0.0047315738233189445
0.2357308,0.07161269876151634,0.00740848237104362,0.04163168749382332,0.04282110752820061,0.051140681869713524,0.026548720995861575,0.032276281192353665,0.00478381819780452
0.23625,0.07178873939962883,0.00734911234939843,0.04139909239533296,0.04318700811113017,0.05090072184096604,0.026560402437574248,0.03232024646231545,0.00483558915639242
0.2367692,0.07196329419186012,0.007288731443386825,0.041167271730931695,0.043553860160937284,0.05065894052120235,0.02657055819736246,0.03236301087946801,0.004886872866589474
0.2372885,0.07213638873152066,0.007227339619425857,0.04093624644565045,0.043921631847390785,0.05041537950024281,0.026579190083324197,0.03240455254611238,0.004937656002611315
0.2378077,0.07230804898184709,0.007164937314158262,0.040706037483753024,0.044290291123681734,0.05017008050550471,0.026586300741714985,0.03244485013793848,0.00498792574855716
0.2383269,0.07247830124767603,0.007101525438695864,0.04047666579180206,0.044659805729955676,0.04992308539150442,0.026591893655839423,0.03248388290476742,0.005037669801457601
0.2388462,0.07264717214716157,0.007037105382788105,0.040248152321667015,0.04503014319682291,0.04967443612950851,0.026595973144768945,0.03252163067108203,0.005086876374195008
0.2393654,0.07281468858355764,0.006971679018914095,0.04002051803346693,0.04540127084884503,0.04942417479733449,0.026598544361886557,0.032558073836349025,0.0051355341982962
0.2398846,0.07298087771708557,0.006905248706296645,0.03979378389844123,0.045773155807996506,0.049172343569301065,0.026599613293259362,0.032593193375136956,0.005183632526597067
0.2404038,0.07314576693690707,0.006837817294836737,0.039567970901741155,0.04614576499710012,0.04891898470632801,0.026599186755839745,0.03262697083703455,0.005231161135778861
0.2409231,0.07330938383322194,0.006769388128966923,0.03934310004513454,0.04651906514323536,0.04866414054618551,0.026597272395496106,0.0326593883463741,0.005278110328775906
0.2414423,0.07347175616950949,0.0066999650514221725,0.03911919234961643,0.04689302278111914,0.04840785349389286,0.02659387868487401,0.03269042860176479,0.0053244709370544405
0.2419615,0.07363291185493188,0.00662955240692666,0.038896268857917624,0.04726760425645841,0.04815016601226665,0.0265890149210886,0.03272007487544077,0.0053702343227623964
0.2424808,0.07379287891691715,0.006558155045795059,0.038674350636903006,0.04764277572927451,0.04789112061261869,0.02658269122324913,0.03274831101242843,0.005415392380749894
0.243,0.07395168547393921,0.0064857783274468745,0.03845345877985128,0.04801850317719921,0.04763075984560425,0.026574918529816142,0.03277512142953737,0.005459937540460325
0.2435192,0.07410935970851178,0.006412428123832374,0.0382336144086075,0.04839475239874256,0.04736912629222153,0.026565708595791635,0.032800491114179195,0.005503862767691932
0.2440385,0.07426592984041232,0.006338110822768683,0.03801483867559975,0.04877148901653246,0.04710626255496336,0.02655507398974253,0.03282440562301815,0.005547161566229825
0.2445577,0.07442142410015197,0.0062628333311846255,0.037797152765711495,0.04914867848052589,0.04684221124912217,0.026543028090657363,0.03284685108045748,0.005589827979348394
0.2450769,0.07457587070270674,0.006186603078272839,0.03758057789800156,0.04952628607119175,0.04657701499424929,0.026529585084636202,0.032867814176965465,0.005631856591184067
0.2455962,0.07472929782152482,0.006109428018547722,0.037365135327264584,0.049904276902665495,0.04631071640576959,0.02651475996141373,0.03288728216724529,0.005673242527978388
0.2461154,0.07488173356282429,0.006031316634807699,0.03715084634542529,0.05028261592587655,0.046043358086752396,0.02649856851071545,0.032905242868252915,0.005713981459191328
0.2466346,0.07503320594019491,0.005952277941000343,0.03693773228276079,0.05066126793164989,0.045774982619839415,0.026481027318447002,0.03292168465706752,0.00575406959848477
0.2471538,0.07518374284951734,0.005872321484988827,0.03672581450894553,0.051040197553784354,0.04550563255933049,0.02646215376271669,0.03293659646861903,0.0057935037045760305
0.2476731,0.0753333720442124,0.005791457351218234,0.03651511443391352,0.051419369272110875,0.045235350423427356,0.0264419660096915,0.032949967793277316,0.005832281081961332
0.2481923,0.07548212111083229,0.005709696163280236,0.03630565350853272,0.051798747415534745,0.0449641786866356,0.026420483009287312,0.03296178867430716,0.005870399581509113
0.2487115,0.07563001744500555,0.005627049086374628,0.03609745322508652,0.052178296165066876,0.04469215977232446,0.026397724490694295,0.03297204970519334,0.005907857600923059
0.2492308,0.075777088227746,0.005543527829666206,0.03589053511755725,0.052557979556849835,0.04441933604544407,0.026373710957738706,0.032980742026839836,0.00594465408507475
0.24975,0.07592336040213644,0.005459144648535402,0.035684920761707206,0.05293776148518468,0.04414574980539926,0.02634846368408253,0.03298785732464704,0.005980788526205848
0.2502692,0.07606886065039636,0.00537391234672113,0.03548063177495258,0.05331760570556573,0.04387144327907898,0.026322004708262195,0.03299338782547086,0.006016260963999722
0.2507885,0.0762136153713429,0.0052878442783541955,0.035277689816026525,0.05369747583773014,0.04359645861403969,0.026294356828567674,0.03299732629446737,0.006051071985522454
0.2513077,0.07635765065825359,0.0052009543498796286,0.0350761165844276,0.05407733536872965,0.04332083787184132,0.026265543597763036,0.0329996660318267,0.006085222725033177
0.2518269,0.076500992277139,0.005113257021866275,0.03487593381965064,0.05445714765603158,0.04304462302153384,0.026235589317649563,0.03300040086939942,0.006118714863663728
0.2523462,0.07664366564543296,0.005024767310701957,0.0346771633001972,0.05483687593065614,0.042767855933292735,0.026204519033472335,0.032999525167218775,0.006151550628967652
0.2528654,0.07678569581110777,0.004935500790172545,0.03447982684236297,0.055216483300356924,0.04249057837220108,0.026172358528171184,0.03299703380992172,0.0061837327943386755
0.2533846,0.0769271074322215,0.0048454735929232984,0.03428394629879951,0.055595932752850706,0.04221283199217653,0.026139134316476832,0.03299292220307172,0.006215264678298831
0.2539038,0.07706792475690429,0.004754702411800894,0.03408954355684781,0.055975187159102775,0.04193465833004143,0.026104873638853058,0.03298718626938591,0.006246150143656471
0.2544231,0.07720817160379019,0.004663204501074647,0.03389664053664152,0.05635420927667311,0.041656098799734496,0.026069604455285656,0.0329798224448693,0.006276393596534437
0.2549423,0.07734787134290143,0.0045709976775354455,0.03370525918897816,0.05673296175312866,0.04137719468666267,0.026033355438918993,0.0329708276748584,0.006305999985268656
0.2554615,0.07748704687699126,0.004478100321471003,0.03351542149295778,0.057111407129526476,0.041097987142192004,0.025996155969540833,0.03296019940997659,0.006334974799177428
0.2559808,0.0776257206233522,0.00438453137751607,0.033327149453389465,0.05748950784397211,0.040818517178276385,0.025958036126916037,0.03294793560200342,0.006363324067201692
0.2565,0.07776391449609597,0.004290310355376262,0.033140465097967156,0.057867226235257516,0.04053882566222334,0.025919026683969698,0.03293403469965971,0.0063910543564165865
0.2570192,0.07790164988891164,0.004195457330424156,0.03295539047421748,0.05824452454658237,0.040258953311595985,0.02587915909982019,0.03291849564431051,0.006418172770414645
0.2575385,0.07803894765830821,0.004099992944166297,0.03277194764622236,0.05862136492936264,0.039978940689250494,0.02583846551266258,0.03290131786558768,0.0064446869475610425
0.2580577,0.07817582810734822,0.004003938404579721,0.032590158691119864,0.0589977094471299,0.03969882819850812,0.025796978732502727,0.03288250127693438,0.006470605059121328
0.2585769,0.0783123109698788,0.003907315486316613,0.032410045695386476,0.059373520079524796,0.03941865607846102,0.025754732233742268,0.03286204627107338,0.00649593580726212
0.2590962,0.07844841539526633,0.003810146530775681,0.03223163075090423,0.05974875872638753,0.03913846439941092,0.025711760147614452,0.032839953715401646,0.006520688422925234
0.2596154,0.07858415993364098,0.003712454446038828,0.032054935950815856,0.060123387211948105,0.03885829305843976,0.02566809725447068,0.0328162249473135,0.006544872663575779
0.2601346,0.07871956252165743,0.003614262706671668,0.0318799833851712,0.060497367289118406,0.038578181775111506,0.025623778975917357,0.032790861769454754,0.006568498810824808
0.2606538,0.07885464046877774,0.003515595353386445,0.03170679513636785,0.060870660643888054,0.03829817008730403,0.025578841366802472,0.03276386644491014,0.006591577667927174
0.2611731,0.07898941044408234,0.003416476992565854,0.031535393274388784,0.06124322889982536,0.038018297347170014,0.025533321107051237,0.032735241692326646,0.00661412055715526
0.2616923,0.07912388846361462,0.0033169327956462705,0.03136579985183988,0.061615033622685014,0.03773860271722552,0.02548725549334981,0.032704990680975425,0.006636139317049272
0.2622115,0.0792580898782646,0.0032169884983588785,0.031198036898790082,0.06198603632512391,0.03745912516656514,0.025440682430676077,0.03267311702575518,0.006657646299544799
0.2627308,0.07939202936219673,0.003116670399827186,0.0310321264174172,0.06235619847152658,0.03717990346720222,0.025393640423676304,0.03263962478214013,0.006678654366978297
0.26325,0.07952572090182655,0.0030160053615194368,0.030868090376462782,0.06272548148294188,0.036900976190532786,0.025346168567886327,0.03260451844107583,0.006699176888971139
0.2637692,0.07965917778535068,0.0029150208060544475,0.030705950705499665,0.06309384674213224,0.036622381703921944,0.02529830654079574,0.032567802923825974,0.006719227739192863
0.2642885,0.07979241259283391,0.002813744715859438,0.030545729289016693,0.0634612555987369,0.036344158167411655,0.025250094592753552,0.03252948357677329,0.006738821292004159
0.2648077,0.07992543718685713,0.002712205631678458,0.03038744796032543,0.06382766937455002,0.03606634353054896,0.025201573537713646,0.032489566166177354,0.006757972418980187
0.2653269,0.0800582627037292,0.002610432650930033,0.030231128495294364,0.06419304936891435,0.035788975529333966,0.025152784743818327,0.03244805687289224,0.006776696485314727
0.2658462,0.08019089954526538,0.002508455425912712,0.03007679260591666,0.06455735686423099,0.03551209168328711,0.025103770123818155,0.032404962287046424,0.006795009346105711
0.2663654,0.08032335737113447,0.002406304161857213,0.02992446193371794,0.06492055313158593,0.03523572929263497,0.025054572125326437,0.032360289402687384,0.006812927342522613
0.2668846,0.08045564509177656,0.002304009614823928,0.029774158043011187,0.06528259943649385,0.03495992543561388,0.025005233720906645,0.03231404561239316,0.0068304672978562134
0.2674038,0.08058777086189269,0.0022016030894445784,0.029625902414005884,0.06564345704476,0.03468471696589056,0.024955798397991082,0.032266238701853224,0.006847646513451212
0.2679231,0.08071974207450698,0.0020991164365068505,0.029479716435778805,0.06600308722846142,0.034410140510098976,0.024906310148629186,0.03221687684442113,0.006864482764522127
0.2684423,0.08085156535560167,0.0019965820503808677,0.029335621399113904,0.06636145127204884,0.03413623246549269,0.024856813459063765,0.032165968595641255,0.006880994295853
0.2689615,0.08098324655932453,0.0018940328662863772,0.029193638489218608,0.06671851047857115,0.033863028997711896,0.024807353299133424,0.03211352288775219,0.006897199817381349
0.2694808,0.08111479076376793,0.0017915023573995437,0.029053788778323642,0.06707422617602422,0.03359056603866421,0.024757975111499235,0.032059549024169055,0.006913118499666848
0.27,0.08124620226731852,0.0016890245317982605,0.028916093218173556,0.06742855972382628,0.03331887928451827,0.024708724800693836,0.032004056673947,0.006928769969245175
0.2705192,0.08137748458557517,0.0015866339292448925,0.028780572632414743,0.0677814725194218,0.03304800419380886,0.02465964872199097,0.03194705586622799,0.006944174303867519
0.2710385,0.08150864044883341,0.0014843656178053794,0.028647247708887873,0.06813292600501582,0.0327779759856522,0.024610793670093566,0.031888556984672835,0.006959352027626242
0.2715577,0.08163967180013348,0.0013822551903036255,0.02851613899183131,0.06848288167443976,0.03250882963806996,0.024562206867638412,0.031828570761880365,0.006974324105967258
0.2720769,0.08177057979386912,0.0012803387606100999,0.028387266874002094,0.0688313010801503,0.03224059988642013,0.024513935953515444,0.0317671082737955,0.006989111940589682
0.2725962,0.08190136479495343,0.001178652959763585,0.028260651588720875,0.06917814584036132,0.03197332122193313,0.024466028970999566,0.031704180934108254,0.007003737364233365
0.2731154,0.08203202637853801,0.0010772349319250207,0.028136313201847042,0.06952337764630934,0.03170702789035096,0.02441853435569282,0.031639800488645946,0.0070182226353549
0.2736346,0.08216256333028127,0.0009761223301624082,0.028014271603690053,0.06986695826965203,0.03144175389066737,0.024371500923274576,0.03157397900976128,0.00703259043269266
0.2741538,0.08229297364716097,0.0008753533120657786,0.027894546500862993,0.07020884956999922,0.03117753297396644,0.024324977857057572,0.031506728890719225,0.0070468638497213935
0.2746731,0.08242325453882632,0.000774966535191271,0.027777157408084053,0.07054901350257586,0.03091439864235712,0.024279014695347514,0.031438062840085663,0.007061066388996866
0.2751923,0.08255340242948417,0.0006750011523334311,0.027662123639931605,0.07088741212601625,0.030652384148001057,0.02423366131860431,0.03136799387612065,0.00707522195639103
0.2757115,0.08268341296031398,0.0005754968066249127,0.027549464302558235,0.07122400761028895,0.030391522492230958,0.024188967936403214,0.031296535321179084,0.007089354855218145
0.2762308,0.0828132809924058,0.0004764936264628237,0.027439198285369126,0.07155876224475187,0.030131846424756848,0.02414498507419504,0.031223700796121256,0.007103489780252279
0.27675,0.08294300061021545,0.00037803222026102523,0.02733134425266979,0.07189163844633624,0.029873388442957317,0.024101763559865385,0.031149504214735745,0.007117651811636604
0.2772692,0.08307256512553066,0.00028015367102775105,0.027225920635288108,0.07222259876785857,0.029616180791252847,0.0240593545100941,0.03107395977817686,0.00713186640868496
0.2777885,0.08320196708194158,0.0001828995307679747,0.027122945622175404,0.07255160590645864,0.029360255460558104,0.024017809316517202,0.030997081969419017,0.00714615940357614
0.2783077,0.08333119825980913,8.631181471002142e-05,0.027022437151991017,0.0728786227121614,0.029105644187810142,0.02397717963169428,0.030918885547730052,0.007160556994941522
0.2788269,0.0834602496817236,-9.567004644009034e-06,0.026924412904674882,0.07320361219656006,0.02885237845556951,0.023937517354884787,0.030839385543165756,0.007175085741346764
0.2793462,0.08358911161844564,-0.0001046940036443757,0.02682889029301246,0.0735265375416172,0.028600489491691694,0.023898874617636776,0.03075859725108759,0.007189772554668497
0.2798654,0.08371777359532101,-0.00019902581379669214,0.026735886454196174,0.07384736210858041,0.02835000826906666,0.023861303769191693,0.030676536226705953,0.0072046446933670665
0.2803846,0.0838462243991604,-0.000292518628242042,0.02664541824138753,0.07416604944700828,0.02810096550542466,0.023824857361708706,0.030593218279651176,0.0072197297556565575
0.2809038,0.08397445208557411,-0.0003851282084144325,0.02655750221528385,0.07448256330390184,0.027853391663206727,0.023789588135312015,0.030508659468574856,0.007235055672573483
0.2814231,0.08410244398675192,-0.000476809890875773,0.026472154635693555,0.07479686763293637,0.02760731694949858,0.023755549002964595,0.030422876095784215,0.007250650700945555
0.2819423,0.0842301867196774,-0.0005675185943285423,0.026389391453123728,0.07510892660378782,0.027362771316026963,0.023722793035171934,0.03033588470191201,0.0072665434162620885
0.2824615,0.0843576661947662,-0.0006572088268062928,0.026309228300383864,0.07541870461154723,0.027119784459217568,0.023691373444519676,0.030247702060624607,0.0072827627054476065
0.2829808,0.08448486762491732,-0.0007458346930421305,0.026231680484209832,0.07572616628621649,0.026878385820314134,0.02366134357004931,0.03015834517337052,0.007299337759540317
0.2835,0.08461177553496681,-0.0008333499020152967,0.026156762976911982,0.07603127650227784,0.026638604585558466,0.023632756861476374,0.03006783126417161,0.0073162980662772065
0.2840192,0.08473837377153337,-0.0009197077746759685,0.02608449040805135,0.07633400038832946,0.0264004696864313,0.02360566686325596,0.029976177774458917,0.007333673402587549
0.2845385,0.08486464551324525,-0.0010048612518483789,0.026014877056147977,0.07663430333677886,0.026164009799953827,0.023580127198500365,0.02988340235795496,0.007351493826996609
0.2850577,0.08499057328133863,-0.0010887629023123308,0.025947936840425265,0.07693215101358507,0.025929253349049632,0.023556191552753646,0.029789522875604078,0.007369789671941314
0.2855769,0.08511613895061815,-0.0011713649310631457,0.025883683312594497,0.07722750936804132,0.02569622850296667,0.023533913657627956,0.029694557390552143,0.007388591535999608
0.2860962,0.08524132376077048,-0.0012526191877500336,0.025822129648683717,0.07752034464258932,0.025464963177758905,0.02351334727430631,0.029598524163176754,0.007407930276035172
0.2866154,0.08536610832802241,-0.001332477175292826,0.025763288640915375,0.07781062338265662,0.02523548503682705,0.023494546176916768,0.02950144164616871,0.007427836999259105
0.2871346,0.08549047265713561,-0.001410890058676944,0.025707172689637098,0.07809831244650847,0.02500782149151768,0.02347756413578338,0.029403328479665397,0.00744834305521017
0.2876538,0.08561439615373109,-0.0014878086739264255,0.025653793795309944,0.0783833790151061,0.024781999701780046,0.023462454900559683,0.029304203486436392,0.007469480027655111
0.2881731,0.08573785763693663,-0.0015631835372547616,0.025603163550558358,0.07866579060196353,0.024558046576879586,0.02344927218325085,0.02920408566712136,0.00749127972641051
0.2886923,0.0858608353523511,-0.0016369648543932524,0.02555529313228583,0.07894551506299562,0.024335988776166988,0.023438069641131085,0.02910299419552021,0.007513774179087637
0.2892115,0.08598330698532007,-0.0017091025300965113,0.025510193293860086,0.07922252060634981,0.02411585270990163,0.023428900859563003,0.029000948413935045,0.007536995622761695
0.2897308,0.08610524967451759,-0.001779546177824699,0.025467874357371537,0.07949677580221502,0.02389766454012803,0.023421819334725577,0.028897967828563284,0.007560976495566841
0.29025,0.08622664002582948,-0.001848245129602014,0.025428346205968528,0.07976824959260063,0.023681450181603718,0.023416878456257513,0.028794072104941292,0.007585749428218336
0.2907692,0.08634745412653332,-0.0019151484460509139,0.025391618276272867,0.0800369113010788,0.02346723530277703,0.023414131489822885,0.028689281063437502,0.0076113472354631334
0.2912885,0.08646766755977059,-0.001980204926601517,0.02535769955087891,0.08030273064248289,0.023255045326813193,0.02341363155960584,0.028583614674794044,0.007637802907460203
0.2918077,0.08658725541930679,-0.0020433631198755876,0.02532659855093956,0.08056567773255426,0.023044905432666997,0.023415431630741237,0.028477093055715545,0.007665149601091831
0.2923269,0.08670619232457458,-0.0021045713342444827,0.025298323328842222,0.08082572309752933,0.02283684055620037,0.02341958449168802,0.028369736464503737,0.007693420631207174
0.2928462,0.08682445243599504,-0.002163777648560386,0.025272881460977767,0.08108283768365905,0.022630875391343185,0.023426142736552122,0.028261565296736145,0.007722649461799346
0.2933654,0.08694200947057185,-0.0022209299230600958,0.02525028004060546,0.08133699286665254,0.022427034391295585,0.023435158747365507,0.028152600080986964,0.007752869697117357
0.2938846,0.0870588367177529,-0.002275975810440575,0.02523052567081673,0.08158816046103796,0.02222534176977013,0.023446684676327975,0.028042861474587955,0.007784115072714223
0.2944038,0.08717490705555292,-0.0023288627671053646,0.0252136244576007,0.08183631272943388,0.022025821502272048,0.023460772428018202,0.027932370259427023,0.007816419446432589
0.2949231,0.08729019296693027,-0.002379538064580871,0.025199582003014396,0.08208142239172554,0.02182849732741596,0.0234774736415805,0.02782114733778189,0.007849816789329157
0.2954423,0.08740466655641063,-0.0024279488011014127,0.025188403398460315,0.08232346263414149,0.0216333927482775,0.02349683967289379,0.027709213728185945,0.007884341176539165
0.2959615,0.08751829956694906,-0.002474041913361808,0.025180093218074337,0.08256240711822661,0.021440531033778257,0.0235189215767292,0.027596590561323305,0.007920026778082075
0.2964808,0.08763106339702184,-0.0025177641884361734,0.025174655512226803,0.08279822998970808,0.021249935220102458,0.02354377008890256,0.02748329907594987,0.007956907849609611
0.297,0.08774292911793839,-0.002559062275861506,0.025172093801139696,0.08303090588725102,0.021061628112143783,0.023571435608428094,0.027369360614837083,0.007995018723097205
0.2975192,0.08785386749136306,-0.002597882699884519,0.025172411068622898,0.08326040995110073,0.020875632284980572,0.023601968179679175,0.02725479662073462,0.008034393797479828
0.2980385,0.08796384898703602,-0.0026341718718701345,0.02517560975593245,0.08348671783160821,0.020691970085377563,0.02363541747456201,0.02713962863234844,0.008075067529233159
0.2985577,0.08807284380068181,-0.002667876102869957,0.025181691755753598,0.08370980569763584,0.020510663633312234,0.023671832774708027,0.02702387828033025,0.008117074422900985
0.2990769,0.08818082187209382,-0.0026989416163489956,0.025190658406311565,0.08392965024483984,0.02033173482352372,0.02371126295369049,0.026907567283274425,0.008160449021569665
0.2995962,0.0882877529033826,-0.0027273145610688743,0.025202510485612735,0.08414622870382649,0.020155205327082256,0.023753756459270966,0.026790717443718068,0.00820522589729048
0.3001154,0.0883936063773755,-0.002752941024125707,0.025217248205819023,0.08435951884817891,0.019981096592977098,0.023799361295681058,0.026673350644139858,0.008251439641450638
0.3006346,0.08849835157615442,-0.0027757670441408006,0.025234871207758146,0.08456949900235158,0.019809429849720808,0.023848125005944867,0.026555488842953053,0.00829912485509369
0.3011538,0.08860195759971899,-0.002795738624602293,0.025255378555572517,0.08477614804942872,0.019640226106967862,0.023900094654247552,0.02643715407048774,0.008348316139190121
0.3016731,0.08870439338476195,-0.002812801747355819,0.025278768731509426,0.084979445438743,0.0194735061571455,0.023955316808355467,0.02631836842495729,0.008399048084858852
0.3021923,0.08880562772354283,-0.0028269023862422466,0.0253050396308553,0.08517937119335046,0.019309290577094667,0.02401383752209319,0.026199154068403677,0.008451355263540492
0.3027115,0.088905629282847,-0.0028379865208805043,0.025334188557016732,0.08537590591735736,0.019147599729718866,0.024075702317882888,0.02607953322261633,0.008505272217123237
0.3032308,0.08900436662301617,-0.0028460001505934817,0.02536621221675099,0.08556903080309494,0.01898845376563865,0.024140956169351212,0.025959528165019067,0.008560833448022364
0.30375,0.08910180821703727,-0.002850889308474941,0.025401106715548894,0.0857587276381384,0.018831872624849522,0.024209643484009023,0.025839161224519916,0.008618073409214382
0.3042692,0.08919792246967613,-0.002852600075595306,0.02543886755317277,0.08594497881216619,0.018677876038380958,0.024281808086009025,0.025718454777318874,0.008677026494226877
0.3047885,0.08929267773664319,-0.0028510785953441324,0.0254794896193525,0.08612776732365714,0.018526483529954174,0.024357493198986346,0.025597431242669225,0.008737727027085144
0.3053077,0.08938604234377831,-0.0028462710879069812,0.025522967189642445,0.08630707678642256,0.018377714417636387,0.024436741428987142,0.02547611307858854,0.008800209252216688
0.3058269,0.08947798460624254,-0.002838123864874288,0.025569293921442166,0.08648289143597145,0.018231587815489173,0.02451959474749024,0.025354522777516063,0.008864507324314772
0.3063462,0.08956847284770462,-0.002826583343979725,0.02561846285018386,0.08665519613570706,0.018088122635208554,0.02460609447452689,0.02523268286191358,0.008930655298162232
0.3068654,0.08965747541951041,-0.002811596063965363,0.025670466385689216,0.08682397638295433,0.01794733758775441,0.024696281261903888,0.02511061587980722,0.008998687118416926
0.3073846,0.08974496071982387,-0.002793108699570784,0.02572529630869846,0.08698921831481715,0.017809251184966728,0.02479019507653541,0.02498834440026789,0.009068636609360204
0.3079038,0.08983089721272852,-0.0027710680766430975,0.02578294376757417,0.08715090871386577,0.01767388174116639,0.024887875183889144,0.024865891008828828,0.0091405374646099
0.3084231,0.08991525344727848,-0.002745421187364608,0.025843399275182446,0.08730903501365378,0.01754124737473813,0.02498936013155231,0.024743278302839147,0.009214423236799302
0.3089423,0.08999799807648812,-0.0027161152055946956,0.025906652705953864,0.08746358530406467,0.01741136600969362,0.025094687732923348,0.024620528886753142,0.009290327327223626
0.3094615,0.09007909987624961,-0.002683097502322305,0.025972693293126393,0.08761454833648716,0.017284255377212655,0.02520389505103483,0.02449766536735559,0.009368282975455557
0.3099808,0.09015852776416758,-0.00264631566122527,0.026041509626172486,0.08776191352881821,0.017159933017160667,0.02531701838251332,0.024374710348923804,0.009448323248931544
0.3105,0.09023625081829982,-0.0026057174943325987,0.02611308964841241,0.08790567097029264,0.01703841627958083,0.025434093241681822,0.024251686428327472,0.009530481032510708
0.3110192,0.09031223829579267,-0.002561251057785704,0.026187420654815934,0.08804581142613767,0.016919722326159233,0.025555154344810493,0.024128616190067585,0.009614789018008413
0.3115385,0.09038645965139944,-0.0025128646676945026,0.026264489289994353,0.0881823263420508,0.016803868131661664,0.02568023559452136,0.02400552220125583,0.00970127969370667
0.3120577,0.09045888455586959,-0.002460506916084214,0.026344281546384907,0.0883152078485,0.016690870485340722,0.02580937006435267,0.023882427006536016,0.009789985333843702
0.3125769,0.09052948291419549,-0.0024041266869286215,0.026426782762629566,0.08844444876484456,0.016580745992311855,0.025942589983488504,0.023759353122949075,0.009880937988084995
0.3130962,0.09059822488370352,-0.0023436731722655383,0.026511977622150084,0.08857004260327526,0.016473511074896908,0.026079926721659232,0.023636323034743133,0.009974169470978277
0.3136154,0.0906650808919759,-0.0022790958883901536,0.02659985015192117,0.08869198357257238,0.016369181973933666,0.026221410774218405,0.02351335918812998,0.010069711351394867
0.3141346,0.09073002165458943,-0.0022103446921219005,0.026690383721443667,0.08881026658167966,0.016267774750049806,0.026367071747401643,0.023390483985989294,0.010167594941959969
0.3146538,0.09079301819265731,-0.002137369797140449,0.02678356104191939,0.08892488724309298,0.016169305284899668,0.026516938343773024,0.023267719782521623,0.01026785128847452
0.3151731,0.09085404185016104,-0.0020601217903863838,0.026879364165629315,0.08903584187606182,0.01607378928236227,0.026671038347864464,0.023145088877851095,0.01037051115933122
0.3156923,0.09091306431105946,-0.0019785516485220983,0.02697777448551666,0.08914312750960203,0.015981242269698954,0.026829398612013437,0.023022613512578765,0.01047560503492734
0.3162115,0.09097005761616296,-0.0018926107544484112,0.027078772734976334,0.08924674188531863,0.015891679598669252,0.026992045042404596,0.02290031586228778,0.010583163097076864
0.3167308,0.09102499417976119,-0.0018022509138723762,0.02718233898785227,0.08934668346003796,0.0158051164466036,0.027159002585320845,0.022778218032001623,0.010693215218424555
0.31725,0.09107784680599416,-0.0017074243719217474,0.02728845265864398,0.08944295140824858,0.015721567817431642,0.027330295213609503,0.0226563420505969,0.010805790951864434
0.3177692,0.09112858870495688,-0.001608083829801518,0.027397092502923746,0.08953554562435045,0.015641048542665036,0.02750594591336911,0.02253470986517227,0.010920919519965192
0.3182885,0.0911771935085286,-0.0015041824614879168,0.027508236617965618,0.0896244667247121,0.01556357328233359,0.027685976670862398,0.02241334333537515,0.011038629804405092
0.3188077,0.09122363528591862,-0.0013956739304551951,0.027621862443587542,0.08970971604953515,0.0154891565258737,0.027870408459660715,0.02229226422768776,0.011158950335418836
0.3193269,0.09126788855892123,-0.001282512406430478,0.027737946763207705,0.08979129566452483,0.015417812592967955,0.028059261228025066,0.022171494209674136,0.011281909281258853
0.3198462,0.09130992831687323,-0.0011646525821718812,0.02785646570511621,0.08986920836236494,0.01534955563433481,0.028252553886528878,0.022051054844189892,0.011407534437673478
0.3203654,0.09134973003130765,-0.0010420496902650205,0.027977394743963106,0.08994345766399506,0.015284399632467182,0.028450304295927452,0.021930967583556605,0.011535853217404413
0.3208846,0.09138726967029809,-0.0009146595199329557,0.028100708702463846,0.09001404781968746,0.015222358402318932,0.02865252925527891,0.02181125376370296,0.011666892639705906
0.3214038,0.0914225237124884,-0.0007824384338545237,0.028226381753323076,0.09008098380992077,0.015163445591938144,0.02885924449032139,0.021691934598274943,0.01180067931988807
0.3219231,0.09145546916080248,-0.0006453433849859199,0.028354387421377816,0.0901442713460475,0.01510767468304619,0.029070464642111087,0.021573031172717562,0.011937239458886712
0.3224423,0.09148608355582905,-0.0005033319333803002,0.028484698585960973,0.09020391687075201,0.015055058991561567,0.029286203255925538,0.021454564438331082,0.012076598832861987
0.3229615,0.09151434498887659,-0.00035636226300009126,0.028617287483486225,0.09025992755829639,0.015005611668067605,0.029506472770436474,0.021336555206304703,0.012218782782828178
0.3234808,0.09154023211469296,-0.00020439319851662253,0.028752125710255243,0.09031231131455031,0.01495934569822318,0.02973128450715631,0.02121902414173086,0.012363816204316813
0.324,0.09156372416384423,-4.738422209164014e-05,0.028889184225488307,0.09036107677680276,0.014916273903115599,0.029960648660162244,0.021101991757603467,0.012511723537075343
0.3245192,0.09158480095474653,0.00011470450986477959,0.02902843335457925,0.09040623331335283,0.01487640893955508,0.03019457428610167,0.020985478408803358,0.01266252875480361
0.3250385,0.09160344290534413,0.0002819121499654284,0.029169842792575663,0.0904477910228781,0.01483976330031025,0.03043306929448278,0.02086950428607446,0.012816255354930247
0.3255577,0.09161963104442648,0.0004542771431518142,0.02931338160788534,0.09048576073357904,0.014806349314284352,0.030676140438253896,0.020754089409994396,0.012972926348431212
0.3260769,0.09163334702257621,0.0006318372100402201,0.029459018246209792,0.09052015400209905,0.014776179146631839,0.030923793304675217,0.02063925362494311,0.013132564249692547
0.3265962,0.09164457312273934,0.0008146293303135577,0.02960672053470572,0.09055098311221972,0.014749264798815004,0.031176032306486485,0.020525016593073264,0.013295191066419474
0.3271154,0.09165329227040912,0.0010026897261646202,0.029756455686375125,0.09057826107333143,0.014725618108600402,0.03143286067337414,0.02041139778828608,0.013460828289593947
0.3276346,0.0916594880434138,0.001196053845796368,0.029908190304684765,0.0906020016186793,0.014705250749994837,0.0316942804437415,0.020298416490216322,0.013629496883482828
0.3281538,0.09166314468129906,0.0013947563469849072,0.030061890388415426,0.09062221920338402,0.014688174233120741,0.03196029245678547,0.020186091778229984,0.013801217275698968
0.3286731,0.09166424709429559,0.001598831080710856,0.030217521336741347,0.09063892900223716,0.014674399904030822,0.032230896344883214,0.02007444252543831,0.013976009347317535
0.3291923,0.09166278087186215,0.0018083110748648224,0.030375047954539974,0.09065214690727033,0.01466393894446178,0.032506090526291914,0.019963487392731717,0.014153892423050037
0.3297115,0.09165873229079455,0.0020232285180327493,0.030534434457931955,0.09066188952509732,0.014656802371526922,0.0327858721981646,0.019853244822837207,0.014334885261478482
0.3302308,0.09165208832289115,0.002243614743366894,0.030695644480051052,0.09066817417402843,0.014653001037347404,0.03307023732988478,0.0197437330344028,0.014519006045352202
0.33075,0.09164283664216598,0.0024695002125482255,0.030858641077043555,0.09067101888095613,0.014652545628621737,0.03335918065672238,0.019634970016112408,0.014706272371949922
0.3312692,0.09163096563160066,0.002700914499846027,0.031023386734296513,0.09067044237801036,0.014655446666133332,0.03365269567381331,0.01952697352083451,0.01489670124350962
0.3317885,0.0916164643894268,0.0029378862762805148,0.031189843372893992,0.09066646409898184,0.014661714504195667,0.03395077463046491,0.019419761059807826,0.015090309057728771
0.3323077,0.09159932273493125,0.00318044329389431,0.03135797235630041,0.09065910417551097,0.014671359330034783,0.03425340852478956,0.019313349896867105,0.015287111598337547
0.3328269,0.09157953121377668,0.0034286123701386625,0.03152773449726993,0.09064838343303981,0.01468439116310862,0.034560587098668494,0.01920775704271201,0.015487124025747544
0.3333462,0.09155708110283159,0.003682419372380413,0.0316990900649808,0.09063432338652419,0.014700819854362739,0.034872298833048244,0.019102999249222027,0.015690360867778586
0.3338654,0.09153196441450336,0.003941889202535791,0.03187199879239353,0.09061694623590318,0.014720655085421943,0.035188530943571515,0.018999093003820248,0.01589683601046625
0.3343846,0.09150417390056964,0.0042070457818372065,0.03204641988383171,0.09059627486132281,0.014743906367717354,0.035509269376544486,0.018896054523888723,0.01610656268895287
0.3349038,0.09147370305550412,0.00447791203573931,0.032222312022784236,0.09057233281811079,0.014770583041548425,0.035834498805242365,0.01879389975123819,0.016319553478464775
0.3354231,0.09144054611929327,0.004754509878970611,0.03239963337992771,0.09054514433149889,0.01480069427507938,0.03616420262655492,0.018692644346634736,0.01653582028537866
0.3359423,0.09140469807974222,0.005036860200737033,0.032578341621367676,0.09051473429108939,0.01483424906326956,0.03649836295797342,0.01859230368438622,0.016755374338379956
0.3364615,0.09136615467426885,0.005324982850083755,0.03275839391709737,0.09048112824506178,0.014871256226737007,0.03683696063492026,0.018492892846991002,0.016978226179716407
0.3369808,0.09132491239118631,0.005618896621421759,0.03293974694967259,0.09044435239411522,0.01491172441055468,0.037179975208422304,0.018394426619851703,0.017204385656550227
0.3375,0.09128096847047534,0.005918619240225428,0.033122356923101254,0.09040443358514204,0.01495566208297853,0.037527384943128995,0.01829691948605652,0.017433861912412495
0.3380192,0.0912343209040494,0.006224167348907609,0.033306179571946086,0.09036139930462811,0.01500307753410665,0.03787916681567589,0.01820038562123058,0.017666663378763967
0.3385385,0.09118496843551673,0.006535556492878451,0.03349117017063885,0.09031527767177545,0.015053978874468578,0.03823529651339457,0.018104838888459755,0.017902797766666752
0.3390577,0.09113291055944384,0.006852801106794372,0.03367728354300438,0.09026609743134409,0.015108374033543816,0.03859574843336943,0.01801029283328933,0.018142272058571537
0.3395769,0.09107814752012695,0.0071759145010034196,0.03386447407199246,0.0902138879462112,0.015166270758208571,0.038960495681841685,0.017916760678799964,0.01838509250022537
0.3400962,0.09102068030987759,0.007504908848193307,0.034052695709615506,0.09015867918964723,0.01522767661110988,0.039329510073961065,0.017824255320763257,0.01863126459270498
0.3406154,0.09096051066682928,0.007839795170248373,0.034241901987089866,0.09010050173731082,0.015292598968966377,0.03970276213388503,0.01773278932287931,0.01888079308458064
0.3411346,0.0908976410722726,0.008180583325321664,0.034432046025178374,0.090039386758965,0.015361045020795052,0.040080221095225514,0.017642374912098576,0.019133681964215558
0.3416538,0.09083207474752514,0.008527281995128332,0.03462308054473176,0.08997536600991925,0.015433021766063506,0.04046185490184286,0.017553023974030246,0.019389934452205656
0.3421731,0.0907638156503427,0.008879898672466477,0.034814957877426535,0.08990847182220303,0.01550853601276718,0.04084763020898661,0.017464748048439453,0.019649552993964616
0.3426923,0.09069286847087807,0.009238439648971565,0.03500762997669678,0.08983873709547638,0.015587594375431078,0.04123751238478234,0.017377558324835594,0.019912539252458894
0.3432115,0.0906192386271925,0.00960291000311046,0.035201048428857254,0.08976619528768377,0.01567020327303571,0.04163146551206387,0.01729146563815404,0.020178894101097352
0.3437308,0.09054293226032498,0.009973313588421146,0.035395164464415284,0.08969088040545725,0.01575636892686702,0.042029452390549574,0.017206480464533477,0.02044861761678002
0.34425,0.09046395622892445,0.010349653022004126,0.03558992896956865,0.0896128269942743,0.0158460973582904,0.042431434539361684,0.017122612917191297,0.020721709073110297
0.3447692,0.09038231810344997,0.010731929673271565,0.03578529249788672,0.0895320701283753,0.01593939438644888,0.042837372199887015,0.017039872742399348,0.0209981669337748
0.3452885,0.09029802615994403,0.011120143652960145,0.03598120528217192,0.08944864540044568,0.01603626562588573,0.043247224338977694,0.016958269315562605,0.021277988846094952
0.3458077,0.09021108937338437,0.01151429380241364,0.036177617246498484,0.08936258891106726,0.0161367164840917,0.04366094865249056,0.01687781163740322,0.021561171634754038
0.3463269,0.09012151741062027,0.011914377683141176,0.036374478018425555,0.08927393725794311,0.016240752158977096,0.04407850156916407,0.016798508330252516,0.02184771129570355
0.3468462,0.09002932062289949,0.01232039156665707,0.036571736941381286,0.08918272752490103,0.016348377636268924,0.04449983825483186,0.01672036763445356,0.02213760299025236
0.3473654,0.0899345100379931,0.012732330424608121,0.03676934308721491,0.0890889972706805,0.01645959768683343,0.04492491261697233,0.016643397404876907,0.022430841039342238
0.3478846,0.08983709735192529,0.013150187919194133,0.03696724526891347,0.08899278451750875,0.01657441686392435,0.04535367730959385,0.016567605107552345,0.022727418918013175
0.3484038,0.08973709492031672,0.013573956393887436,0.03716539205347992,0.08889412773947135,0.0166928395003575,0.04578608373845552,0.016492997816419334,0.023027329250061835
0.3489231,0.08963451574935018,0.014003626864457127,0.03736373177496934,0.08879306585068347,0.01681486970561256,0.04622208206662374,0.016419582210199134,0.023330563802896852
0.3494423,0.08952937348636823,0.014439189010303739,0.037562212547679885,0.08868963819326782,0.016940511362863297,0.04666162122036507,0.0163473645693914,0.023637113482594625
0.3499615,0.0894216824101131,0.01488063116611003,0.03776078227949489,0.08858388452514505,0.017069768125937627,0.04710464889537621,0.016276350773398143,0.023946968329159535
0.3504808,0.08931145742062004,0.01532794031381351,0.037959388685372665,0.08847584500764309,0.01720264341620927,0.047551111563352656,0.016206546297777805,0.024260117511992543
0.351,0.08919871402877604,0.015781102074906333,0.03815797930097995,0.08836556019293111,0.0173391404194227,0.048000954478897746,0.016137956211632193,0.024576549325572385
0.3515192,0.08908346834555673,0.01624010070306812,0.03835650149646507,0.08825307101128399,0.01747926208245331,0.048454121686773974,0.016070585175128795,0.024896251185353335
0.3520385,0.08896573707095451,0.016704919077137153,0.03855490249036639,0.08813841875818276,0.01762301111000456,0.048910556029498405,0.016004437437161078,0.025219209623883732
0.3525577,0.08884553748261166,0.017175538694425316,0.038753129363651495,0.08802164508125683,0.01777038996124398,0.04937019915528371,0.015939516833149252,0.025545410287149146
0.3530769,0.08872288742417349,0.017651939664382055,0.03895112907388249,0.08790279196707336,0.017921400846379856,0.04983299152632627,0.015875826782983982,0.025874837931144062
0.3535962,0.08859780529337614,0.018134100702612472,0.03914884846950236,0.0877819017277796,0.018076045723180362,0.050298872427442666,0.015813370289115457,0.026207476418675685
0.3541154,0.08847031002988473,0.018621999125254696,0.03934623430423742,0.08765901698760337,0.01823432629343722,0.05076777997505614,0.015752149934790145,0.02654330871640335
0.3546346,0.08834042110289744,0.01911561084372152,0.0395432332516106,0.0875341806692174,0.018396243999375974,0.051239651126533774,0.015692167882437554,0.02688231689211691
0.3551538,0.08820815849853215,0.019614910359811426,0.03973979191956024,0.08740743597997286,0.01856180002001511,0.05171442168987557,0.015633425872209172,0.027224482112257118
0.3556731,0.08807354270701184,0.02011987076119403,0.039935856865158964,0.08727882639800749,0.018730995267476454,0.05219202633375596,0.015575925220671612,0.02756978463968103
0.3561923,0.087936594709666,0.020630463717275078,0.04013137460942694,0.08714839565823372,0.018903830383249196,0.0526723985979183,0.015519666819655945,0.027918203831675287
0.3567115,0.08779733596576446,0.021146659475446118,0.040326291652233864,0.08701618773821217,0.019080305734410073,0.05315547090392295,0.015464651135265123,0.02826971813821984
0.3572308,0.0876557883992011,0.021668426857723914,0.04052055448728394,0.08688224684391617,0.019260421409802185,0.053641174566249554,0.015410878207041304,0.02862430510050473
