Time,Rectus Femoris right,Rectus Femoris left,Hamstrings right,Hamstrings left,TibilaisÂ Anterior right,TibilaisÂ Anterior left,Gastrocnemius right,Gastrocnemius left
0.0,-0.003712802787036839,-0.0021381294541982826,-0.004048154337082691,-0.002635453643354549,0.007754305172084222,-0.01156843904682282,0.002708630161719388,-0.003877428043655188
0.0005192,-0.003578079021565895,-0.0019201559420745382,-0.003171919352630622,-0.0024776363498051866,0.008132079426263818,-0.011111652604472111,0.0034033708636165188,-0.0037293829652758205
0.0010385,-0.00344352359229403,-0.0017014076992052955,-0.002296872149887318,-0.002319675499052696,0.00850977696868964,-0.010656186054909905,0.004098337638494936,-0.003581385877562904
0.0015577,-0.003309143092154536,-0.0014819004461874862,-0.0014231479208083508,-0.002161585894843821,0.008887341162451746,-0.010202103280959123,0.004793433343262307,-0.003433451808899478
0.0020769,-0.0031749437838946596,-0.001261649951128083,-0.0005508818935710802,-0.0020033822666775006,0.009264715244324493,-0.009749467710326898,0.005488560578199246,-0.0032855956773738316
0.0025962,-0.00304093159340964,-0.0010406720253850002,0.00031979070644958847,-0.0018450792640417226,0.009641842341018827,-0.009298342291099182,0.006183621713326252,-0.0031378322849565736
0.0031154,-0.0029071121031866405,-0.0008189825193620402,0.0011887346957539333,-0.0016866914506838669,0.010018665485527108,-0.008848789467449733,0.006878518914844352,-0.0029901763117395814
0.0036346,-0.0027734905458637713,-0.0005965973183628793,0.002055814971818802,-0.0015282332989184817,0.010395127633553174,-0.00840087115558644,0.007573154171634169,-0.0028426423102420897
0.0041538,-0.0026400717979092876,-0.0003735323385089601,0.002920896552208224,-0.0013697191839763569,0.010771171680020439,-0.007954648719956808,0.008267429321798286,-0.002695244699789005
0.0046731,-0.002506860373425924,-0.00014980352272602984,0.003783844613674155,-0.0012111633783986532,0.011146740475650865,-0.007510182949733226,0.00896124607923185,-0.0025479977609663526
0.0051923,-0.002373860418085174,7.457316319611051e-05,0.0046445245312285955,-0.0010525800464797432,0.011521776843607813,-0.007067534035597758,0.009654506060206368,-0.0024009156301584653
0.0057115,-0.002241075703196231,0.0002995817344662716,0.005502801917168644,-0.0008939832387623052,0.011896223596195694,-0.006626761546845248,0.010347110809951795,-0.002254012294171172
0.0062308,-0.002108509619914188,0.0005252061910728143,0.006358542660036368,-0.000735386886588097,0.012270023551609523,-0.006187924408822635,0.011038961829222252,-0.002107301584944847
0.00675,-0.001976165173592013,0.0007514305214789785,0.007211612963495674,-0.0005768047967077048,0.012643119550727439,-0.005751080880721017,0.01172996060083119,-0.0019607971743608107
0.0072692,-0.0018440449782807524,0.0009782387062289954,0.00806187938510872,-0.00041825064595243185,0.01301545447393929,-0.005316288533735381,0.012420008616142375,-0.0018145125691442314
0.0077885,-0.0017121512513822825,0.001205614721461665,0.008909208874994853,-0.00025973797597135295,0.013386971258004383,-0.0048836042296049615,0.013109007401503892,-0.0016684611058664421
0.0083077,-0.0015804858084588246,0.0014335425423283544,0.009753468814355775,-0.00010128018803641876,0.013757612912931394,-0.004453084099545424,0.01379685854461305,-0.0015226559460493525
0.0088269,-0.0014490500582032741,0.001662006146312645,0.010594527053851296,5.710946208165425e-05,0.01412732253887346,-0.004024783523582448,0.014483463720800782,-0.0013771100713744783
0.0093462,-0.0013178449975742273,0.0018909895164490773,0.011432251951810829,0.00021541786916411977,0.014496043343031426,-0.0035987571102951365,0.015168724719224652,-0.0012318362789989412
0.0098654,-0.0011868712070994276,0.002120476644438622,0.012266512412266313,0.00037363208351912883,0.014863718656558311,-0.0031750586769769312,0.015852543468959982,-0.0010868471769806016
0.0103846,-0.0010561288463512384,0.002350451533658616,0.01309717792279263,0.0005317393158785681,0.015230291951458128,-0.0027537412302212094,0.016534822064978794,-0.000942155179814297
0.0109038,-0.0009256176495976498,0.0025808982020649536,0.013924118592141734,0.0006897269422146885,0.015595706857472372,-0.0023348569469384853,0.01721546279400634,-0.0007977725040809805
0.0114231,-0.0007953369216322632,0.002811800684984345,0.01474720518765691,0.0008475825084745652,0.01595990717894751,-0.0019184571558118844,0.017894368160245044,-0.000653711164211392
0.0119423,-0.0006652855337866267,0.0030431430377945005,0.015566309172453819,0.0010052937352305906,0.016322836911676953,-0.001504592319197376,0.01857144091095584,-0.0005099829683657795
0.0124615,-0.0005354619201282055,0.003274909338490172,0.016381302742355254,0.0011628485222453565,0.01668444025971113,-0.001093312015475024,0.019246584061886958,-0.0003665995144310871
0.0129808,-0.0004058640738471567,0.00350708369013313,0.017192058862566893,0.001320234952949424,0.017044661652129228,-0.0006846649218573136,0.0199197009225404,-0.00022357218613695265
0.0135,-0.0002764895438349479,0.003739650223184385,0.017998451304081724,0.0014774412988306134,0.017403445759766396,-0.0002786987976604369,0.020590695121266576,-8.091214929179013e-05
0.0140192,-0.00014733543145772785,0.003972593097717213,0.01880035467980131,0.001634456023733564,0.017760737511890137,0.00012453953195571622,0.021259470630177656,6.136965185981717e-05
0.0145385,-1.8398387527235025e-05,0.004205896505509813,0.019597644480362327,0.0017912677880684302,0.018116482112819715,0.0005250041917732175,0.02192593178987039,0.00020326249815722536
0.0150577,0.00011032539052808181,0.004439544672016636,0.02039019710965713,0.0019478654529276834,0.018470625058482334,0.0009226502718218323,0.022589983333949366,0.0003447558989201743
0.0155769,0.00023884016128916625,0.004673521858217563,0.021177889920037222,0.0021042380841100917,0.018823112152899897,0.0013174338421993376,0.023251530413341815,0.0004858395952204136
0.0160962,0.00036715064176723604,0.004907812362344306,0.02196060124718844,0.0022603749560510273,0.019173889524600102,0.0017093119674010642,0.023910478620395463,0.0006265035630273688
0.0166154,0.0004952620096171312,0.005142400521483634,0.022738210444666698,0.002416265555658326,0.019522903642945667,0.002098242720153499,0.024566734012751244,0.0007667380162267197
0.0171346,0.0006231799051409513,0.005377270713057305,0.023510597918083093,0.0025718995860529946,0.0198701013343754,0.0024841851947470304,0.025220203136983217,0.0009065334095107882
0.0176538,0.0007509104330799284,0.005612407356178912,0.024277645158927146,0.002727266970214105,0.020215429798550913,0.002867099519863183,0.025870793051998558,0.001045880441139665
0.0181731,0.0008784601641925903,0.00584779491288814,0.025039234778017307,0.0028823578545272813,0.020558836624402672,0.0032469468708919754,0.026518411352191094,0.0011847700555720558
0.0186923,0.0010058361366173543,0.006083417889263096,0.025795250538568078,0.003037162612236207,0.020900269806069155,0.0036236894817352717,0.027162966190342298,0.0013231934459648933
0.0192115,0.0011330458570177752,0.006319260836411614,0.026545577388863675,0.0031916718467966303,0.02123967775872276,0.0039972906560922,0.027804366300264123,0.0014611420565408418
0.0197308,0.0012600973015087437,0.006555308351342718,0.027290101494528433,0.003345876395132339,0.021577009334276157,0.004367714778222844,0.02844252101917818,0.001598607584822914
0.02025,0.0013869989163620053,0.006791545077719859,0.028028710270384588,0.0034997673307925704,0.021912213836962742,0.00473492732318655,0.02907734030982578,0.0017355819837355311
0.0207692,0.001513759618489424,0.00702795570649799,0.028761292411888212,0.003653335967010313,0.02224524103878495,0.005098894866551316,0.029708734782303323,0.0018720574635714836
0.0212885,0.001640388795702471,0.0072645249764471745,0.029487737926134273,0.003806573859660957,0.02257604119482399,0.00545958509357085,0.030336615715617344,0.0020080264938243907
0.0218077,0.0017668963067464525,0.0075012376745659335,0.030207938162422066,0.003959472810120754,0.02290456505840473,0.0058169668078260905,0.030960895078953672,0.0021434818048863815
0.0223269,0.0018932924811080102,0.007738078636387935,0.030921785842372547,0.004112024868024539,0.023230763896109327,0.0061710099393281845,0.03158148555265498,0.0022784163896108433
0.0228462,0.0020195881185944542,0.007975032746185938,0.031629175089589456,0.004264222333922188,0.023554589502632936,0.006521685552080297,0.032198300548901104,0.0024128235047401786
0.0233654,0.002145794488683506,0.008212084937076956,0.03233000145885619,0.004416057761833261,0.023875994215475104,0.00686896585109599,0.03281125423208678,0.002546696672198605
0.0238846,0.0022719233296420904,0.008449220191032702,0.033024161964860514,0.004567523961699302,0.024194930929460342,0.007212824188872426,0.03342026153889123,0.0026800296802501327
0.0244038,0.0023979868474128703,0.008686423538799296,0.033711555110439016,0.004718614001733258,0.02451135311108146,0.007553235071317272,0.034025238198034415,0.0028128165845219587
0.0249231,0.0025239977142673146,0.008923680059730151,0.034392080914333434,0.004869321210665425,0.02482521481265923,0.007890174163128852,0.03462610074971443,0.002945051708893672
0.0254423,0.002649969067224184,0.009160974881535968,0.035065640938450514,0.005019639179885406,0.025136470686312116,0.008223618292629882,0.035222766564720835,0.003076729646252771
0.0259615,0.002775914506232417,0.009398293179955653,0.03573213831461741,0.005169561765479507,0.025445075997729924,0.00855354545605589,0.03581515386321847,0.0032078452591171474
0.0264808,0.002901848092117525,0.00963562017835197,0.03639147777082471,0.005319083090163,0.02575098663974543,0.008879934821300114,0.03640318173319651,0.003338393680125226
0.027,0.0030277843442907473,0.009872941147235692,0.0370435656569494,0.005468197545106731,0.02605415914569828,0.009202766731117171,0.03698677014857779,0.0034683703123945635
0.0275192,0.0031537382382203984,0.010110241403722034,0.03768830996995063,0.0056168997916574825,0.02635455070258571,0.009522022705788127,0.03756583998698366,0.0035977708297497434
0.0280385,0.0032797252026649866,0.01034750631092313,0.03832562037853158,0.005765184762951609,0.026652119163994663,0.00983768544524986,0.03814031304715019,0.003726591176820525
0.0285577,0.0034057611166678882,0.01058472127728043,0.038955408247261396,0.005913047665421384,0.02694682306280977,0.010149738830691823,0.03871011206599209,0.0038548275690112764
0.0290769,0.0035318623063134882,0.010821871755840883,0.03957758666015195,0.006060483980193586,0.02723862162369164,0.010458167925623566,0.03927516073531126,0.00398247649234283
0.0295962,0.003658045541244849,0.011058943243480952,0.04019207044368481,0.006207489464379795,0.027527474775320162,0.010762958976416524,0.03983538371814773,0.004109534703167982
0.0301154,0.003784328030943097,0.011295921280082489,0.040798776189284375,0.006354060152257891,0.02781334316239749,0.01106409941232382,0.04039070666477173,0.00423599922776198
0.0306346,0.003910727420768833,0.011532791447664701,0.0413976222752335,0.006500192356344195,0.028096188157405867,0.011361577844982188,0.040941056228316,0.00436186736178948
0.0311538,0.004037261787765997,0.011769539369476476,0.04198852888802802,0.006645882668355647,0.028375971872115588,0.011655384067400376,0.041486360080048246,0.0044871366696495685
0.0316731,0.004163949636228695,0.012006150709053372,0.042571418043166984,0.006791127960061393,0.028652657168838674,0.01194550905243883,0.042026546924283745,0.004611804983700589
0.0321923,0.004290809893031579,0.012242611169243758,0.04314621360537508,0.006935925384023056,0.02892620767142396,0.01223194495078554,0.04256154651293853,0.004735870403366553
0.0327115,0.004417861902724427,0.012478906491208535,0.04371284130825412,0.007080272374223,0.029196587775989363,0.012514685088433132,0.043091289659723586,0.004859331294126958
0.0332308,0.004545125422391608,0.012715022453398938,0.044271228773360205,0.007224166646579809,0.02946376266138719,0.012793723963662249,0.043615708253981256,0.004982186286391786
0.03375,0.004672620616277146,0.01295094487051692,0.044821305528703406,0.007367606199350234,0.02972769829939859,0.013069057243536427,0.044134735274165594,0.005104434274263524
0.0342692,0.004800368050176126,0.013186659592462636,0.045363003026667646,0.00751058931341681,0.02998836146465312,0.013340681759913682,0.04464830480096907,0.00522607441418797
0.0347885,0.004928388685593184,0.013422152503273523,0.045896254661349056,0.007653114552460374,0.030245719744269598,0.013608595504980283,0.045156352030098816,0.005347106123495646
0.0353077,0.005056703873668835,0.01365740952005937,0.046420995785312155,0.007795180763016639,0.03049974154721441,0.013872797626312432,0.04565881328470571,0.0054675290788356225
0.0358269,0.005185335348874397,0.013892416591937828,0.04693716372576453,0.00793678707441597,0.030750396113373466,0.01413328842147188,0.04615562602746948,0.005587343214503594
0.0363462,0.005314305222476336,0.014127159698974686,0.04744469780015081,0.008077932898605502,0.030997653522334363,0.014390069332141786,0.04664672887234311,0.005706548720666015
0.0368654,0.005443635975770907,0.014361624851133114,0.047943539331167684,0.008218617929852677,0.031241484701875637,0.014643142937809361,0.04713206159595941,0.005825146041482137
0.0373846,0.005573350453090117,0.01459579808723604,0.04843363166120185,0.00835884214432934,0.03148186143616058,0.014892512949002042,0.04761156514870277,0.005943135873125738
0.0379038,0.005703471854580167,0.014829665473945722,0.04891492016619265,0.008498605799575449,0.03171875637363348,0.015138184200084002,0.0480851816654491,0.006060519161708334
0.0384231,0.005834023728753741,0.015063213104764439,0.04938735226892122,0.00863790943384143,0.03195214303461679,0.015380162641619828,0.04855285447597701,0.006177297101105642
0.0389423,0.0059650299648176626,0.015296427099060232,0.049850877451727914,0.008776753865308231,0.03218199581860813,0.015618455332312226,0.04901452811505335,0.006293471130689083
0.0394615,0.006096514784777647,0.015529293601121472,0.05030544726865953,0.00891514019118402,0.032408290011276535,0.015853070430520585,0.04947014833219694,0.006409042932964067
0.0399808,0.006228502735322061,0.015761798779244027,0.05075101535704775,0.009053069786676556,0.03263100179115803,0.01608401718536728,0.04991966210112335,0.006524014431116903
0.0405,0.006361018679486725,0.015993928824854692,0.051187537448520185,0.009190544303840155,0.03285010823605114,0.016311305927438652,0.05036301762887425,0.006638387786472179
0.0410192,0.006494087788102976,0.016225669951674432,0.05161497137944535,0.009327565670296238,0.03306558732911342,0.016534948059087565,0.0508001643646348,0.006752165395862559
0.0415385,0.006627735531031392,0.016457008394924953,0.05203327710081313,0.009464136087826458,0.03327741796466005,0.016754956044344488,0.051231053008242475,0.006865349888913032
0.0420577,0.006761987668183661,0.01668793041058196,0.05244241668755201,0.00960025803083742,0.03348557995366607,0.016971343398444166,0.05165563551839073,0.006977944125241775
0.0425769,0.006896870240335294,0.01691842227467841,0.0528423543472843,0.009735934244696232,0.03369005402897322,0.0171841246769751,0.05207386512053124,0.0070899511915799174
0.0430962,0.007032409559731989,0.01714847028266091,0.05323305642852028,0.009871167743936177,0.03389082185020253,0.017393315464659182,0.0524856963144776,0.0072013743988126
0.0436154,0.00716863220049263,0.017378060748802396,0.053614491428291944,0.010005961810332049,0.03408786600837367,0.01759893236376913,0.05289108488171403,0.007312217278943759
0.0441346,0.007305564988811961,0.017607180005674017,0.05398662999922662,0.010140319990844833,0.03428117003023196,0.017800992982191472,0.0532899878924118,0.007422483581987142
0.0446538,0.007443234992966114,0.01783581440367919,0.05434944495606051,0.010274246095435589,0.03447071838228383,0.017999515921143,0.05368236371215619,0.007532177272786029
0.0451731,0.00758166951312417,0.0180639503106525,0.05470291128159197,0.010407744194748547,0.03465649647454143,0.018194520762548728,0.05406817200838633,0.007641302527764108
0.0456923,0.007720896070968972,0.018291574111526123,0.055047006132074236,0.010540818617663594,0.03483849066397711,0.018386028056089337,0.05444737375654966,0.007749863731609951
0.0462115,0.007860942399130367,0.018518672208066234,0.05538170884204747,0.010673473948718388,0.03501668825768819,0.018574059305926302,0.05481993124597278,0.007857865473897493
0.0467308,0.008001836430434067,0.018745231018681707,0.05570700092860978,0.010805715025400535,0.035191077515772586,0.018758636957112936,0.05518580808544968,0.007965312545644969
0.04725,0.008143606286969307,0.0189712369783073,0.05602286609512667,0.010937546935310322,0.035361647653915716,0.01893978438169971,0.05554496920854817,0.008072209935814737
0.0477692,0.008286280268978518,0.01919667653836335,0.05632929023437826,0.011068975013194607,0.03552838884568892,0.019117525864542302,0.05589738087863495,0.008178562827756442
0.0482885,0.008429886843572307,0.019421536166793867,0.05662626143114349,0.01120000483785254,0.03569129222455978,0.019291886588820816,0.05624301069361964,0.008284376595595944
0.0488077,0.008574454633273124,0.019645802348184777,0.05691376996422022,0.011330642228913832,0.03585034988561433,0.019462892621278715,0.05658182759041796,0.008389656800572421
0.0493269,0.008720012404391136,0.019869461583963993,0.057191808307879906,0.011460893243490426,0.03600555488699122,0.019630570897189968,0.056913801849134374,0.008494409187325986
0.0498462,0.008866589055235935,0.02009250039268484,0.057460371132755456,0.0115907641727024,0.036156901251027586,0.019794949205063056,0.05723890509696486,0.008598639680138125
0.0503654,0.00901421360416792,0.02031490531039428,0.05771945530616055,0.01172026153807914,0.036304383965116156,0.019956056171090503,0.05755711031182063,0.008702354379127192
0.0508846,0.009162915177493383,0.020536662891087288,0.05796905989183873,0.011849392087836804,0.03644799898227304,0.020113921243352675,0.057868391825674166,0.00880555955640118
0.0514038,0.009312722997207448,0.020757759707248614,0.05820918614914019,0.011978162793033157,0.03658774322141547,0.02026857467578463,0.05817272532762895,0.008908261652170025
0.0519231,0.009463666368589257,0.020978182350483203,0.058439837531624135,0.012106580843600834,0.03672361456734884,0.02042004751191482,0.058470087866714364,0.009010467270819764
0.0524423,0.009615774667653973,0.02119791743223624,0.05866101968508424,0.012234653644260062,0.036855611870462684,0.02056837156838454,0.058760457854407144,0.009112183176950926
0.0529615,0.00976907732846626,0.021416951584603904,0.05887274044499468,0.01236238881031181,0.03698373494613532,0.020713579418257157,0.05904381506688111,0.009213416291383702
0.0534808,0.009923603830320121,0.02163527146123561,0.059075009833373826,0.012489794163312314,0.03710798457384758,0.020855704374126045,0.0593201406469866,0.00931417368713253
0.054,0.010079383684789969,0.021852863738328517,0.05926784005506239,0.012616877726629911,0.03722836249600599,0.02099478047103007,0.059589417105961044,0.009414462585352744
0.0545192,0.010236446422657993,0.02206971511571488,0.05945124549341229,0.012743647720885095,0.037344871416476175,0.021130842449185446,0.05985162832487176,0.009514290351262005
0.0550385,0.010394821580722892,0.02228581231804279,0.059625242705382255,0.012870112559274734,0.03745751499882698,0.021263925736542517,0.06010675955579173,0.009613664490039177
0.0555577,0.010554538688494961,0.02250114209605067,0.0597898504160356,0.0129962808427815,0.03756629786428581,0.021394066431175883,0.06035479742270916,0.00971259264270333
0.0560769,0.010715627254782627,0.022715691227935753,0.059945089512435205,0.013122161355269764,0.037671225589405354,0.021521301283516106,0.060595729922171035,0.00981108258197552
0.0565962,0.01087811675417538,0.02292944652081677,0.06009098303693037,0.013247763058469492,0.03777230470344165,0.021645667678431155,0.06082954642366067,0.00990914220812594
0.0571154,0.01104203661342804,0.023142394812290835,0.06022755617982965,0.013373095086850252,0.03786954268544324,0.02176720361716547,0.06105623766970903,0.01000677954480912
0.0576346,0.01120741619775126,0.02335452297208444,0.06035483627145353,0.013498166742387822,0.03796294796105119,0.021885947699144506,0.06127579577573934,0.010104002734889763
0.0581538,0.011374284797013148,0.023565817903798365,0.060472852773560126,0.013622987489226367,0.03805252989900978,0.022001939103652387,0.06148821422964367,0.010200820036261783
0.0586731,0.01154267161185693,0.023776266546746055,0.06058163727013686,0.013747566948239476,0.038138298807388366,0.022115217571390285,0.06169348789109007,0.010297239817663124
0.0591923,0.011712605739739574,0.023985855877884963,0.06068122345755024,0.013871914891493666,0.038220265929515176,0.022225823385923108,0.06189161299055837,0.010393270554488762
0.0597115,0.011884116160896387,0.024194572913840116,0.06077164713404578,0.013996041236618214,0.03829844343962483,0.022333797355021993,0.062082587128102384,0.010488920824604338
0.0602308,0.012057231724236693,0.024402404713019063,0.060852946188589524,0.014119956041085326,0.03837284443822151,0.022439180791910027,0.06226640927183599,0.010584199304162727
0.06075,0.012231981133175758,0.024609338377817064,0.0609251605890429,0.014243669496404826,0.038443482947159886,0.0225420154964186,0.06244307975614036,0.010679114763425819
0.0612692,0.012408392931408253,0.024815361056911265,0.06098833236966301,0.014367191922237656,0.03851037390444598,0.02264234373606163,0.06261260027958926,0.010773676062593761
0.0617885,0.01258649548862866,0.025020459947642397,0.061042505617921454,0.01449053376043245,0.03857353315875995,0.022740208227034667,0.0627749739025897,0.010867892147643873
0.0623077,0.012766316986204116,0.025224622298482394,0.06108772646063613,0.014613705568989475,0.03863297746370279,0.022835652115145856,0.06293020504473489,0.010961772046181456
0.0628269,0.01294788540280536,0.0254278354115862,0.06112404304941201,0.014736718015956196,0.038688724471768514,0.02292871895668548,0.0630782994818675,0.011055324863304662
0.0633462,0.013131228500001462,0.025630086645425765,0.06115150554538834,0.014859581873258604,0.03874079272804404,0.02301945269924083,0.0632192643428519,0.011148559777485554
0.0638654,0.01331637380782417,0.025831363417504184,0.06117016610329049,0.014982308010472454,0.03878920166363871,0.023107897662463094,0.06335310810605506,0.011241486036469413
0.0643846,0.013503348610307697,0.026031653207147714,0.06118007885478607,0.015104907388538475,0.03883397158884582,0.023194098518793095,0.0634798405955364,0.011334112953194362
0.0649038,0.01369217993100981,0.026230943558373267,0.061181299891145124,0.015227391053425573,0.038875123686038744,0.02327810027415272,0.06359947297694751,0.011426449901733313
0.0654231,0.013882894518520032,0.02642922208282871,0.061173887245205755,0.015349770129746093,0.038912680002304356,0.02335994824860894,0.06371201775314299,0.011518506313260242
0.0659423,0.014075518831960676,0.02662647646280315,0.06115790087264832,0.015472055814327161,0.038946663441816784,0.02343968805701731,0.06381748875950334,0.011610291672042892
0.0664615,0.01427007902648641,0.026822694454304102,0.061133402632584516,0.015594259369742255,0.03897709775795459,0.02351736558965211,0.06391590115897129,0.011701815511463954
0.0669808,0.014466600938787972,0.027017863890198356,0.06110045626747032,0.015716392117807076,0.03900400754516438,0.023593026992830283,0.06400727143680228,0.011793087410072876
0.0675,0.014665110072605606,0.027211972683412924,0.06105912738235522,0.015838465433043878,0.0390274182305738,0.023666718649536594,0.06409161739503001,0.011884116987670397
0.0680192,0.014865631584257723,0.027405008830192586,0.0610094834234819,0.01596049073611842,0.03904735606535664,0.02373848716005745,0.06416895814664775,0.011974913901427894
0.0685385,0.015068190268190276,0.027596960413410167,0.06095159365625275,0.016082479487253647,0.0390638481158525,0.023808379322630843,0.064239314109506,0.012065487842043582
0.0690577,0.015272810542552247,0.027787815605925643,0.06088552914257994,0.016204443179624252,0.03907692225444318,0.023876442114120128,0.06430270699992698,0.012155848529937549
0.0695769,0.015479516434802608,0.02797756267399004,0.06081136271763644,0.016326393332736257,0.039086607150187996,0.023942722670719115,0.06435915982603628,0.012246005711487566
0.0700962,0.01568833156735412,0.028166189980690075,0.06072916896602553,0.01644834148579579,0.03909293225921978,0.024007268268696445,0.06440869688081201,0.012335969155307496
0.0706154,0.015899279143259316,0.02835368598942934,0.060639024197386183,0.016570299191071173,0.03909592781490384,0.024070126305186883,0.06445134373485191,0.01242574864857007
0.0711346,0.016112381931944076,0.02854003926744166,0.060541006421451604,0.01669227800725243,0.03909562481776219,0.024131344279037303,0.06448712722885976,0.012515353993375668
0.0716538,0.016327662254994126,0.028725238489332366,0.060435195322577906,0.016814289492812322,0.03909205502516584,0.02419096977171504,0.06451607546585282,0.012604795003168785
0.0721731,0.016545141972000053,0.028909272440643154,0.060321672233759796,0.016936345199372926,0.0390852509407984,0.0242490504282862,0.06453821780309302,0.0126940814992036
0.0726923,0.016764842466466295,0.029092130021436177,0.06020052011015007,0.017058456665081722,0.03907524580389408,0.024305633938471388,0.06455358484374453,0.012783223307060146
0.0732115,0.016986784631789723,0.029273800249893265,0.060071823502099844,0.01718063540800098,0.0390620735782535,0.024360768017786187,0.06456220842826108,0.012872230253212451
0.0737308,0.017210988857313446,0.029454272265926246,0.05993566852773661,0.01730289291951411,0.03904576894104038,0.02441450038877359,0.06456412162550584,0.012961112161649873
0.07425,0.01743747501446155,0.02963353533479462,0.05979214284509718,0.01742524065775257,0.03902636727136206,0.024466878762335338,0.06455935872360682,0.013049878850552882
0.0747692,0.017666262442960556,0.029811578850726925,0.059641335623832815,0.017547690041046712,0.03900390463863712,0.02451795081916914,0.06454795522055054,0.013138540129024412
0.0752885,0.01789736993715338,0.029988392340542534,0.059483337516503976,0.01767025244140392,0.03897841779075324,0.024567764191318255,0.06452994781451694,0.013227105793877845
0.0758077,0.018130815732411674,0.030163965467270574,0.059318240629481975,0.017792939178017133,0.03894994414201886,0.024616366443840017,0.06450537439395844,0.013315585626482624
0.0763269,0.01836661749165244,0.0303382880337629,0.05914613849347491,0.017915761510807048,0.03891852176091241,0.024663805056599514,0.06447427402742584,0.013403989389668457
0.0768462,0.018604792291964774,0.030511349986297898,0.05896712603369491,0.01803873063400116,0.03888418935763306,0.024710127406194497,0.06443668695314395,0.013492326824689004
0.0773654,0.018845356611352667,0.03068314141817201,0.05878129953968364,0.018161857669752802,0.03884698627145702,0.024755380748017492,0.0643926545683392,0.013580607648245879
0.0778846,0.019088326315599657,0.030853652573275703,0.058588756634812285,0.01828515366180337,0.038806952457903075,0.024799612198460694,0.06434221941832131,0.01366884154957376
0.0784038,0.019333716645261102,0.031022873849650395,0.05838959624547218,0.018408629569190888,0.03876412847571114,0.024842868717269196,0.06428542518532061,0.01375703818758735
0.0789231,0.01958154220278967,0.03119079580302301,0.05818391856997153,0.018532296260007946,0.03871855547363702,0.024885197090047818,0.06422231667708228,0.013845207188090835
0.0794423,0.019831816939799695,0.03135740915031476,0.057971825047153494,0.018656164505212024,0.03867027517706658,0.02492664391092672,0.06415293981521833,0.013933358141050563
0.0799615,0.020084554144475898,0.03152270477312104,0.05775341832475053,0.01878024497249113,0.038619329874452275,0.02496725556539073,0.06407734162331782,0.014021500597931546
0.0804808,0.020339766429132065,0.03168667372115952,0.05752880222748956,0.018904548220187608,0.038565762403574844,0.02500707821327711,0.06399557021481535,0.014109644069098447
0.081,0.020597465717925294,0.0318493072156841,0.05729808172496232,0.01902908469128303,0.03850961613763281,0.025046157771946426,0.0639076747806174,0.014197798021281825
0.0815192,0.02085766323473148,0.03201059665286259,0.057061362899274895,0.01915386470744707,0.03845093497116248,0.025084539899630956,0.06381370557648619,0.014285971875110322
0.0820385,0.021120369491187802,0.032170533607116546,0.05681875291249029,0.019278898463153202,0.03838976330579086,0.02512226997896488,0.06371371391018014,0.014374175002709537
0.0825577,0.021385594274908225,0.032329109834422144,0.056570359973877465,0.019404196019864234,0.03832614603582393,0.02515939310070056,0.0636077521283503,0.014462416725368318
0.0830769,0.02165334663787803,0.03248631727557122,0.05631629330698018,0.019529767300290584,0.03826012853367293,0.02519595404761497,0.0634958736031917,0.014550706311273164
0.0835962,0.021923634885033554,0.03264214805939193,0.056056663116518815,0.019655622082724332,0.03819175663512123,0.025231997278610308,0.06337813271884869,0.014639052973311336
0.0841154,0.02219646656303351,0.0327965945059288,0.055791580555138075,0.019781769995452038,0.03812107662443502,0.025267566913012875,0.0632545848575732,0.014727465866943224
0.0846346,0.02247184844922817,0.032949649129581995,0.05552115769001339,0.019908220511249356,0.038048135219321516,0.025302706715073984,0.0631252863856342,0.014815954088144385
0.0851538,0.022749786540832952,0.03310130464220575,0.05524550746932865,0.02003498294196033,0.03797297955573875,0.02533746007867668,0.06299029463897729,0.014904526671417612
0.0856731,0.023030286044312877,0.0332515539561659,0.054964743688637775,0.020162066433164153,0.03789565717256205,0.02537187001225194,0.06284966790863311,0.014993192587875284
0.0861923,0.02331335136498441,0.03340039018735644,0.054678980957122536,0.02028947995893219,0.03781621599611289,0.025405979123907723,0.06270346542587339,0.015081960743392145
0.0867115,0.023598986096841263,0.03354780665817469,0.054388334663758926,0.020417232316677674,0.03773470432455673,0.02543982960677404,0.0625517473471137,0.01517083997682861
0.0872308,0.023887193012610723,0.033693796900454674,0.05409292094340426,0.02054533212210056,0.03765117081217678,0.025473463224567255,0.06239457473856179,0.015259839058324587
0.08775,0.02417797405404713,0.033838354658358036,0.053792856642816904,0.02067378780422969,0.03756566445353085,0.025506921297376434,0.06223200956061085,0.015348966687663725
0.0882692,0.02447133032246897,0.033981473891221484,0.05348825928662024,0.020802607600564377,0.03747823456749832,0.025540244687674404,0.062064114651977455,0.01543823149270794
0.0887885,0.024767262069546134,0.034123148776359934,0.053179247043222175,0.020931799552317363,0.03738893078122426,0.025573473786556007,0.06189095371358451,0.015527642027902019
0.0893077,0.02506576868834365,0.034263373711824203,0.05286593869070104,0.021061371499760995,0.03729780301396756,0.025606648500205977,0.061712591292190665,0.015617206772848054
0.0898269,0.025366848704628183,0.034402143319112066,0.052548453582668235,0.021191331077678333,0.03720490146085987,0.025639808236598574,0.06152909276376831,0.015706934130949462
0.0903462,0.025670499768443333,0.034539452445831474,0.052226911614117806,0.021321685710920756,0.0371102765765821,0.02567299189243113,0.06134052431663262,0.015796832428124352
0.0908654,0.025976718645959705,0.03467529616831457,0.05190143318727266,0.021452442610073518,0.03701397905896559,0.025706237840293703,0.061146952934324345,0.015886909911588015
0.0913846,0.02628550121160563,0.03480966979418115,0.051572139177436596,0.021583608767230558,0.036916059832524835,0.025739583916077065,0.060948446378249414,0.01597717474870421
0.0919038,0.026596842440484325,0.03494256886485017,0.051239150898861344,0.021715190951879838,0.036816570031929,0.025773067406621466,0.060745073170078205,0.016067635025904914
0.0924231,0.026910736401083254,0.03507398915799794,0.050902590070637334,0.02184719570690027,0.03671556098541964,0.02580672503760869,0.060536902573907446,0.016158298747678056
0.0929423,0.02722717624828143,0.03520392668996175,0.05056257878261667,0.02197962934467116,0.0366130841981818,0.025840592961700062,0.06032400457818771,0.01624917383562271
0.0934615,0.02754615421666031,0.03533237771808764,0.0502192394613766,0.022112497943295072,0.03650919133567573,0.02587470674692302,0.06010644987741974,0.016340268127571132
0.0939808,0.027867661614123827,0.03545933874302133,0.049872694836231725,0.022245807342934815,0.03640393420693655,0.02590910136530915,0.05988430985362281,0.016431589376776974
0.0945,0.028191688815833147,0.03558480651094135,0.04952306790530261,0.022379563142265257,0.03629736474784891,0.025943811181786406,0.059657656557578397,0.016523145251168846
0.0950192,0.028518225258461705,0.035708778015733654,0.0491704819016487,0.022513770695040448,0.03618953500440371,0.025978869943328584,0.05942656268985308,0.016614943332668473
0.0955385,0.028847259434775886,0.035831250501107186,0.04881506025947282,0.022648435106776506,0.0360804971159438,0.026014310768365214,0.059191101581604344,0.016706991116572468
0.0960577,0.029178778888546697,0.03595222146264979,0.04845692658040432,0.02278356123155068,0.03597030329840576,0.02605016613645493,0.05895134717517324,0.016799296010996778
0.0965769,0.02951277020979766,0.03607168864982422,0.04809620459986812,0.022919153668916756,0.03585900582756459,0.026086467878225345,0.05870737400446796,0.016891865336382664
0.0970962,0.029849219030393916,0.03618965006790378,0.047733018153546435,0.023055216760936862,0.03574665702228842,0.02612324716558228,0.05845925717514248,0.016984706325063118
0.0976154,0.03018811001997751,0.03630610397984736,0.047367491143939934,0.02319175458932951,0.03563330922781005,0.026160534502191145,0.05820707234457418,0.017077826120888477
0.0981346,0.030529426882253553,0.03642104890811348,0.04699974750703493,0.02332877097273357,0.03551901479902209,0.02619835971423304,0.05795089570164477,0.01717123177890997
0.0986538,0.030873152351631895,0.036534483636412714,0.04662991117908362,0.023466269464087607,0.035403826083802374,0.026236751941438048,0.057690803946328924,0.01726493026511986
0.0991731,0.031219268190228546,0.03664640721139796,0.04625810606350429,0.023604253348123966,0.035287795406375874,0.026275739628398062,0.05742687426909589,0.017358928456246762
0.0996923,0.03156775518523102,0.03675681894429154,0.045884455997908816,0.023742725638976826,0.03517097505071964,0.026315350516161413,0.05715918433012964,0.017453233139604583
0.1002115,0.03191859314663151,0.036865718412448165,0.04550908472126535,0.02388168907790342,0.0350534172440167,0.02635561163411143,0.056887812238374455,0.017547851012993512
0.1007308,0.032271760905331584,0.03697310546085275,0.045132115841204315,0.024021146131117638,0.03493517414016498,0.026396549292130925,0.056612836530413185,0.01764278868465122
0.10125,0.032627236311621954,0.03707898020355192,0.04475367280147654,0.024161098987735434,0.03481629780334691,0.026438189073054414,0.05633433614918617,0.017738052673252486
0.1017692,0.032984996234040546,0.03718334302501832,0.04437387884957227,0.024301549557831537,0.03469684019166507,0.026480555825409872,0.05605239042255925,0.017833649407955197
0.1022885,0.03334501655861224,0.037286194581446754,0.043992857004510236,0.024442499470607087,0.034576853140849254,0.026523673656451655,0.05576707904174937,0.01792958522849063
0.1028077,0.0337072721884731,0.037387535801981564,0.04361073002480608,0.024583950072667886,0.03445638834803981,0.026567565925486272,0.055478482039616216,0.018025866385295738
0.1033269,0.03407173704388214,0.03748736788987467,0.04322762037662942,0.02472590242641303,0.0343354973556524,0.026612255237492662,0.05518667976882833,0.018122499039685092
0.1038462,0.03443838406262327,0.03758569232357387,0.0428436502021584,0.024868357308533776,0.03421423153532908,0.026657763437038618,0.05489175287991193,0.01821948926406009
0.1043654,0.03480718520080016,0.03768251085774135,0.04245894128814096,0.025011315208622223,0.03409264207198079,0.026704111602494914,0.05459378229919045,0.018316843042153037
0.1048846,0.03517811143402621,0.037777825524202106,0.04207361503467175,0.02515477632788956,0.03397077994792626,0.02675132004054857,0.054292849206622626,0.018414566269303656
0.1054038,0.03555113275901189,0.037871638632822405,0.04168779242419386,0.02529874057799331,0.0338486959271321,0.026799408281016533,0.053989035013546655,0.018512664752765674
0.1059231,0.035926218195551286,0.03796395277231815,0.041301593990734915,0.0254432075799732,0.03372644053955882,0.026848395071960848,0.05368242134033821,0.018611144212041103
0.1064423,0.03630333578890959,0.038054770810993205,0.040915139789387114,0.025588176663295152,0.0336040640656173,0.02689829837510628,0.053373089993990055,0.0187100102792399
0.1069615,0.03668245261261291,0.038144095897407505,0.04052854936604113,0.02573364686500292,0.03348161652074007,0.026949135361561124,0.0530611229456214,0.018809268499462687
0.1074808,0.03706353477164162,0.038231931460974755,0.04014194172738388,0.025879616928977,0.033359147640071966,0.02700092240784172,0.05274660230792508,0.018908924331204446
0.108,0.03744654740602804,0.03831828121248931,0.03975543531117008,0.026026085305300324,0.03323670686328487,0.027053675092201114,0.05242961031256113,0.019008983146777226
0.1085192,0.03783145469485899,0.038403149144581546,0.039369147956777616,0.026173050149730103,0.0331143433195213,0.027107408191262134,0.05211022928750546,0.01910945023274994
0.1090385,0.03821821986068348,0.03848653953210104,0.03898319687605629,0.02632050932327521,0.03299210581247177,0.027162135676954902,0.05178854163436255,0.01921033079040339
0.1095577,0.0386068051743255,0.03856845693242633,0.03859769862447941,0.026468460391878234,0.03287004280559082,0.027217870713758703,0.05146462980565209,0.01931162993619852
0.1100769,0.03899717196010158,0.03864890618570004,0.03821276907260731,0.02661690062620116,0.03274820240745647,0.02727462565624807,0.0511385762820795,0.01941335270225594
0.1105962,0.03938928060144262,0.03872789241498767,0.03782852337787154,0.026765827001513514,0.03262663235727793,0.02733241204694266,0.050810463549800705,0.019515504036844374
0.1111154,0.03978309054691909,0.038805421026358256,0.03744507595668843,0.026915236197681634,0.03250538001055612,0.027391240614460396,0.05048037407769176,0.019618088804875845
0.1116346,0.040178560316668784,0.038881497708884556,0.03706254045690993,0.0270651245992575,0.032384492324901544,0.02745112127197314,0.0501483902946338,0.01972111178840516
0.1121538,0.0405756475092258,0.038956128434560366,0.03668102973062004,0.027215488295665557,0.03226401584601393,0.027512063115963974,0.04981459456682442,0.01982457768713124
0.1126731,0.04097430880874985,0.039029319458132074,0.03630065580728429,0.027366323081485715,0.032143996693827726,0.027574074425285172,0.04947906917512642,0.019928491118897784
0.1131923,0.041374499992654454,0.03910107731684139,0.03592152986725995,0.027517624456830644,0.03202448054882753,0.027637162660515458,0.04914189629246532,0.020032856620190692
0.1137115,0.04177617593963281,0.03917140883007591,0.03554376221567413,0.027669387627815185,0.0319055126385375,0.027701334463615297,0.04880315796128714,0.020137678646629652
0.1142308,0.04217929063808001,0.03924032109892375,0.035167462256676635,0.027821607507115622,0.03178713772418821,0.027766595657878815,0.04846293607108778,0.020242961573451148
0.11475,0.04258379719491037,0.03930782150562833,0.03479273846807443,0.02797427871461626,0.031669400087564845,0.02783295124818106,0.04812131233602523,0.020348709695980134
0.1152692,0.042989647844768525,0.03937391771293899,0.034419698376353926,0.028127395578140757,0.03155234351803989,0.027900405421519173,0.04777836827262545,0.02045492723008742
0.1157885,0.04339679395963291,0.03943861766335309,0.03404844853209731,0.028280952134265437,0.03143601129979379,0.027968961547846276,0.047434185177592784,0.020561618312629655
0.1163077,0.04380518605881035,0.03950192957824467,0.03367909448579861,0.02843494212921179,0.03132044619922645,0.028038622181196685,0.047088844105735925,0.02066878700186872
0.1168269,0.044214773819320125,0.03956386195687475,0.03331174076408507,0.02858935901981537,0.03120569045256287,0.02810938906110122,0.046742425848020686,0.020776437277867137
0.1173462,0.044625506086666246,0.03962442357527804,0.03294649084634911,0.028744195974568416,0.03109178575365563,0.028181263114291363,0.04639501090976069,0.02088457304285599
0.1178654,0.04503733088599644,0.03968362348502097,0.032583447141795785,0.028899445874733354,0.03097877324198729,0.028254244456690933,0.046046679488957555,0.020993198121571816
0.1183846,0.0454501954336463,0.039741471011825694,0.03222271096691048,0.02905510131552463,0.0308666934908755,0.028328332395694055,0.045697511454801616,0.02110231626155885
0.1189038,0.04586404614906696,0.039797975754054714,0.03186438252335111,0.029211154607356325,0.030755586495883783,0.02840352543272819,0.045347586326344225,0.021211931133433094
0.1194231,0.0462788286671349,0.039853147581051074,0.03150856087626912,0.029367597777153254,0.03064549166344062,0.02847982126610094,0.044996983251352034,0.021322046331104946
0.1199423,0.046694487850842036,0.039906996631328996,0.031155343933063018,0.02952442256972329,0.03053644779966968,0.028557216794129158,0.04464578098535358,0.02143266537195739
0.1204615,0.0471109678043643,0.039959533310610154,0.03080482842256826,0.029681620449188872,0.03042849309943408,0.028635708118548844,0.044294057870887936,0.021543791696977024
0.1209808,0.04752821188650678,0.040010768289701,0.030457109874686788,0.029839182600475845,0.030321665135597895,0.028715290548204188,0.043941891816965124,0.021655428670835513
0.1215,0.04794616272452321,0.04006071250220712,0.030112282600459547,0.02999709993085795,0.030216000848508357,0.02879595860301393,0.04358936027874743,0.021767579581918873
0.1220192,0.04836476222830751,0.04010937714208098,0.02977043967258498,0.03015536307155551,0.030111536535702473,0.02887770601821305,0.04323654023746083,0.021880247642302363
0.1225385,0.04878395160495439,0.04015677366100018,0.029431672906386437,0.03031396237938713,0.03000830784184189,0.028960525748867816,0.04288350818054529,0.021993435987668702
0.1230577,0.049203671373686225,0.04020291376557403,0.0290960728412312,0.030472887938473373,0.029906349748879832,0.029044409974661983,0.042530340082052344,0.02210714767716764
0.1235769,0.04962386138114252,0.04024780941437702,0.028763728722403726,0.03063212956199163,0.029805696566463806,0.029129350104951792,0.042177111383298486,0.022221385693215277
0.1240962,0.05004446081702843,0.04029147281480842,0.028434728483435517,0.030791676793981513,0.02970638192257776,0.029215336784087345,0.04182389697378221,0.022336152941231677
0.1246154,0.05046540823011827,0.04033391641977753,0.028109158728893788,0.03095151891120013,0.029608438754427178,0.029302359896997726,0.04147077117237256,0.02245145224931559
0.1251346,0.050886641544609756,0.04037515292421479,0.027787104717631027,0.03111164492502645,0.029511899299570366,0.02939040857503694,0.04111780770877658,0.022567286367855165
0.1256538,0.05130809807682479,0.04041519526140864,0.027468650346497227,0.031272043583413865,0.029416795087299104,0.02947947120208766,0.04076507970529308,0.022683657969073543
0.1261731,0.051729714552252046,0.040454056599168065,0.027153878134516286,0.03143270337288994,0.029323156930271464,0.029569535420919668,0.04041265965885981,0.022800569646508173
0.1266923,0.05215142712292695,0.04049175033581057,0.026842869207527934,0.03159361252060201,0.029231014916399657,0.02966058813979975,0.04006061942340108,0.022918023914422835
0.1272115,0.05257317138514449,0.04052829009597501,0.02653570328329629,0.03175475899640749,0.029140398400995637,0.02975261553934975,0.03970903019248241,0.023036023207151392
0.1277308,0.05299488239750029,0.040563689726258796,0.026232458657085827,0.0319161305150074,0.029051335999176968,0.0298456030796495,0.03935796248227905,0.023154569878372253
0.12825,0.05341649469925561,0.04059796329067891,0.025933212187705383,0.032077714538122,0.028963855578535567,0.029939535507581362,0.03900748611486452,0.02327366620031283
0.1287692,0.05383794232902215,0.04063112506595627,0.02563803928402063,0.03223949827670743,0.02887798425207193,0.030034396864413296,0.03865767020182551,0.023393314362883375
0.1292885,0.05425915884376277,0.04066318953662342,0.025347013891935253,0.03240146869321259,0.02879374837139747,0.030130170493617416,0.0383085831282092,0.023513516472739818
0.1298077,0.054680077338104115,0.040694171389955944,0.02506020848184085,0.032563612503875704,0.028711173520207644,0.030226839048921227,0.037960292536808736,0.02363427455227518
0.1303269,0.055100630463957766,0.0407240855107284,0.02477769403653548,0.032725916181060875,0.028630284508028504,0.030324384502589005,0.037612865312792565,0.023755590538539127
0.1308462,0.05552075045044613,0.0407529469757964,0.02449954003961066,0.03288836595563482,0.028551105364239143,0.030422788153931103,0.037266367568682804,0.023877466282085164
0.1313654,0.05594036912412958,0.04078077104850721,0.024225814464306362,0.033050947819384946,0.028473659332372454,0.03052203063803929,0.036920864629687904,0.023999903545745067
0.1318846,0.05635941792953105,0.040807573172941945,0.02395658376283353,0.0332136475274803,0.028397968864696338,0.03062209193474646,0.03657642101939431,0.024122904003330108
0.1324038,0.056777827949954354,0.0408333689679933,0.023691912856163403,0.03337645060097733,0.028324055617077265,0.030722951377809303,0.03623310044582171,0.02424646923825896
0.1329231,0.05719552992859188,0.04085817422128356,0.023431865124282934,0.03353934232937299,0.028251940444128095,0.030824587664312616,0.03589096578784614,0.024370600742112097
0.1334423,0.05761245428991724,0.040882004882928334,0.023176502396915228,0.03370230777320801,0.028181643394641645,0.03092697886429391,0.03555007908199499,0.02449529991311262
0.1339615,0.05802853116135778,0.04090487705915212,0.02292588494470399,0.033865331766723517,0.028113183707311595,0.0310301024305868,0.03521050150961767,0.024620568054533453
0.1344808,0.05844369039524148,0.04092680700576248,0.022680071470860617,0.03402839892057404,0.028046579806742154,0.031133935208881643,0.034872293384435406,0.02474640637303063
0.135,0.058857861591012355,0.04094781112149,0.022439119103272603,0.03419149362460039,0.02798184929974787,0.03123845344800196,0.03453551414047357,0.02487281597690227
0.1355192,0.059270974117707806,0.0409679059412015,0.022203083387071443,0.03435460005066532,0.027919008971944922,0.031343632810394956,0.034200222320379635,0.02499979787427274
0.1360385,0.05968295713669092,0.040987108128994344,0.021972018277658358,0.0345177021555551,0.027858074784635364,0.03144944838283478,0.03386647556412975,0.025127352971201364
0.1365577,0.060093739624630355,0.04100543447117959,0.02174597613418571,0.03468078368394965,0.027799061871985435,0.03155587468733721,0.03353433059812655,0.02525548206971485
0.1370769,0.060503250396719686,0.041022901869161736,0.021525007713492035,0.03484382817146375,0.027741984538499243,0.03166288569228428,0.0332038432246909,0.025384185865762805
0.1375962,0.06091141813012777,0.04103952733222265,0.021309162164488245,0.03500681894776158,0.027686856256788732,0.031770454823757545,0.0328750683119498,0.025513464947095617
0.1381154,0.06131817138767124,0.04105532797021692,0.02109848702299259,0.03516973913974647,0.027633689665640847,0.03187855497707837,0.03254805978412241,0.025643319791064177
0.1386346,0.06172343864169935,0.04107032098618562,0.020893028207011784,0.035332571674827694,0.027582496568382582,0.03198715852855351,0.03222287061220601,0.025773750762341126
0.1391538,0.06212714829818156,0.04108452366889516,0.020692830012465656,0.03549529928426576,0.02753328793154455,0.03209623734742387,0.03189955280506318,0.02590475811056349
0.1396731,0.06252922872098725,0.04109795338530748,0.020497935109352602,0.03565790450659754,0.027486073883823507,0.03220576280801436,0.031578157400911515,0.026036341967896816
0.1401923,0.06292960825634712,0.04111062757298743,0.020308384538353142,0.03582036969114229,0.027440863715344217,0.03231570580208236,0.03125873445921667,0.026168502346521273
0.1407115,0.0633282152574854,0.041122563732453064,0.020124217707868902,0.035982677001589296,0.027397665877221075,0.032426036751362186,0.030941333052989378,0.02630123913604026
0.1412308,0.06372497810941163,0.04113377941947401,0.019945472391494377,0.036144808419667655,0.02735648798141954,0.03253672562030307,0.030626001261486915,0.02643455210081228
0.14175,0.06411982525386098,0.04114429223732342,0.019772184725918945,0.03630674574889846,0.027317336800917507,0.03264774192899769,0.03031278616331897,0.026568440877206907
0.1422692,0.06451268521437155,0.041154119828988214,0.01960438920925671,0.036468470618429186,0.027280218270166485,0.03275905476629852,0.030001733829957994,0.026702904970785632
0.1427885,0.0649034866214874,0.04116327986934309,0.019442118699801877,0.03662996448694991,0.02724513748585231,0.03287063280311878,0.02969288931965372,0.026837943753408547
0.1433077,0.06529215823807565,0.0411717900572932,0.019285404415207538,0.03679120864669061,0.027212098707955126,0.0329824443059149,0.029386296671751484,0.026973556460268066
0.1438269,0.06567862898474573,0.04117966810789103,0.019134275932085828,0.03695218422749856,0.027181105361108425,0.03309445715034713,0.02908199890141366,0.02710974218685117
0.1443462,0.06606282796535949,0.041186931744433,0.01898876118602759,0.037112872200994705,0.027152160036256708,0.03320663883511463,0.02878003799474349,0.027246499885832335
0.1448654,0.06644468449261987,0.04119359869054123,0.018848886472039764,0.03727325338480739,0.027125264492611385,0.03331895649596115,0.028480454904310306,0.027383828363899902
0.1453846,0.06682412811372644,0.041199686662236674,0.018714676445398815,0.03743330844688187,0.02710041965990434,0.033431376919847405,0.02818328954507499,0.027521726278519187
0.1459038,0.06720108863608516,0.04120521336000933,0.018586154122918506,0.03759301790986364,0.02707762564093837,0.03354386655928571,0.02788858079071441,0.027660192134636108
0.1464231,0.06757549615305987,0.04121019646089183,0.01846334088463041,0.03775236215555331,0.027056881714433562,0.033656391546832566,0.02759636647034339,0.027799224281325394
0.1469423,0.06794728106975245,0.04121465361054243,0.018346256475875462,0.0379113214294307,0.027038186338168495,0.03376891770973449,0.027306683365632644,0.02793882090838742
0.1474615,0.06831637412879805,0.04121860241534383,0.01823491900980486,0.03806987584524539,0.027021537152415006,0.03388141058472217,0.02701956720832084,0.028078980042897796
0.1479808,0.06868270643616145,0.041222060434523755,0.018129344970288543,0.038228005389670985,0.027006930983665023,0.03399383543294804,0.026735052678118855,0.02821969954571386
0.1485,0.06904620948692067,0.04122504517230397,0.01802954921522951,0.03838568992702002,0.026994363848647753,0.03410615725506222,0.0264531734010041,0.028360977107942248
0.1490192,0.06940681519102365,0.04122757407008388,0.017935544980282096,0.038542909204016644,0.02698383095863544,0.03421834080642143,0.02617396194790267,0.02850281024737199
0.1495385,0.0697644558990037,0.04122966449866515,0.017847343882972287,0.03869964285462414,0.026975326724035457,0.03433035061242555,0.025897449833756806,0.028645196304877725
0.1500577,0.07011906442763971,0.041231333750524055,0.01776495592721802,0.03885587040492489,0.026968844759266506,0.03444215098397624,0.02562366751697533,0.02878813244079778
0.1505769,0.07047057408554755,0.041232599032138086,0.017688389508247308,0.039011571278050744,0.02696437788791639,0.034553706033051856,0.025352644399264296,0.02893161563129216
0.1510962,0.07081891869868882,0.04123347745637367,0.01761765141791191,0.03916672479916235,0.026961918148178794,0.034664979688392945,0.025084408825835385,0.029075642664685368
0.1516154,0.07116403263578426,0.04123398603494179,0.017552746850394096,0.03932131020047635,0.026961456798566256,0.03477593571129222,0.024818988085989285,0.029220210137799144
0.1521346,0.07150585083361932,0.04123414167092842,0.01749367940830397,0.039475306626339864,0.02696298432389666,0.03488653771148332,0.02455640841407133,0.029365314452280078
0.1526538,0.07184430882223039,0.041233961151406644,0.017440451109164753,0.03962869313835185,0.02696649044155039,0.03499674916312229,0.02429669499079678,0.029510951810926868
0.1531731,0.07217934274996048,0.04123346114013723,0.017393062392283283,0.03978144872053108,0.026971964107995204,0.03510653342085611,0.02403987194494295,0.029657118214022265
0.1536923,0.07251088940837402,0.04123265817036418,0.01735151212600287,0.03993355228453059,0.026979393525575556,0.03521585373597231,0.023785962355405435,0.029803809455674672
0.1542115,0.07283888625702113,0.041231568637711866,0.01731579761533564,0.04008498267489827,0.026988766149563262,0.03532467327262353,0.02353498825361562,0.02995102112017481
0.1547308,0.07316327144804191,0.041230208793189754,0.017285914609971323,0.04023571867438344,0.027000068695465937,0.03543295512412073,0.023286970626316687,0.03009874857837324
0.15525,0.07348398385060198,0.041228594736310735,0.017261857312659383,0.04038573900928913,0.02701328714658962,0.03554066232928866,0.023041929418695078,0.030246986984084862
0.1557692,0.07380096307515054,0.041226742408328555,0.017243618387961367,0.040535022354869735,0.02702840676185189,0.035647757888876835,0.02279988353786437,0.030395731270526707
0.1562885,0.0741141494974923,0.04122466758559971,0.017231188971370246,0.040683547340774,0.027045412083841664,0.035754204782019156,0.022560850856698365,0.03054497614679553
0.1568077,0.07442348428266464,0.04122238587307481,0.01722455867879354,0.040831292556532735,0.027064286947121808,0.035859965982735026,0.022324848218009986,0.030694716094391554
0.1573269,0.07472890940861064,0.04121991269792437,0.01722371561639699,0.040978236557090854,0.027085014486770507,0.03596500447646465,0.022091891439072503,0.030844945363794528
0.1578462,0.07503036768963885,0.04121726330330373,0.01722864639080554,0.041124357868382935,0.027107577147157353,0.03606928327663092,0.02186199531647941,0.0309956579710981
0.1583654,0.07532780279966003,0.0412144527422616,0.01723933611965844,0.04126963499295143,0.027131956690949807,0.03617276544122012,0.021635173631339127,0.031146847694708248
0.1588846,0.0756211592951915,0.04121149587179673,0.01725576844251521,0.04141404641560632,0.02715813420834559,0.03627541408937325,0.02141143915480067,0.03129850807211123
0.1594038,0.0759103826381197,0.041208407347067204,0.017277925532109325,0.041557570609124836,0.027186090126526397,0.03637719241797989,0.021190803653906118,0.03145063239671628
0.1599231,0.07619541921821193,0.04120520161575627,0.017305788105946254,0.0417001860399894,0.02721580421932797,0.03647806371826583,0.020973277897765697,0.031603213714778
0.1604423,0.07647621637536933,0.04120189291259918,0.017339335438242592,0.04184187117416194,0.027247255617121734,0.03657799139236592,0.020758871664051094,0.0317562448224033
0.1609615,0.07675272242161306,0.04119849525407468,0.017378545372202816,0.04198260448289214,0.027280422816902825,0.03667693896987315,0.020547593745802478,0.03190971826264737
0.1614808,0.07702488666279687,0.04119502243326511,0.017423394332630217,0.04212236444855739,0.027315283692579306,0.03677487012435459,0.020339451958544634,0.03206362632270321
0.162,0.07729265942003977,0.04119148801488862,0.017473857338868297,0.04226112957053156,0.027351815505457403,0.03687174868982487,0.020134453147707503,0.032217961031189075
0.1625192,0.07755599205087316,0.04118790533050688,0.017529908018068963,0.042398878371080355,0.02738999491491754,0.03696753867716736,0.0199326031963462,0.03237271415553808
0.1630385,0.07781483697009753,0.0411842874739116,0.01759151861878375,0.042535589401280154,0.027429797989275723,0.03706220429049317,0.019733907033155588,0.03252787719949397
0.1635577,0.07806914767034406,0.041180647296692754,0.01765866002487419,0.042671241246958015,0.027471200216824934,0.037155709943427775,0.01953836864077418,0.03268344140071712
0.1640769,0.07831887874233717,0.04117699740399151,0.01773130176973746,0.04280581253465,0.027514176517050796,0.037248020275314826,0.01934599106437218,0.03283939772850459
0.1645962,0.07856398589485403,0.04117335015044021,0.017809412050843364,0.04293928193757517,0.027558701252015927,0.0373391001673267,0.01915677642051829,0.03299573688162812
0.1651154,0.0788044259743771,0.041169717636292014,0.017892957744578622,0.043071628181622516,0.027604748237906988,0.03742891475847088,0.018970725906319826,0.033152449286293885
0.1656346,0.0790401569844355,0.04116611170374232,0.01798190442139445,0.04320283005134827,0.027652290756738463,0.03751742946148138,0.018787839808830604,0.033309525094227944
0.1661538,0.07927113810463048,0.041162543933444186,0.018076216361253346,0.04333286639598131,0.027701301568207225,0.03760460997858442,0.018608117514720916,0.03346695418089133
0.1666731,0.07949732970934072,0.04115902564121936,0.018175856569370895,0.043461716135434446,0.027751752921692158,0.037690422317127055,0.01843155752020385,0.03362472614382859
0.1671923,0.07971869338610323,0.04115556787496663,0.01828078679224838,0.04358935826632035,0.027803616568393474,0.0377748328050578,0.01825815744121209,0.03378283030115378
0.1677115,0.07993519195366569,0.04115218141176876,0.018390967533991876,0.04371577186797082,0.02785686377360692,0.03785780810624777,0.01808791402381916,0.03394125569017753
0.1682308,0.08014678947970738,0.04114887675519892,0.018506358072913474,0.04384093610845873,0.027911465329128263,0.03793931523564077,0.017920823154898933,0.03409999106617875
0.16875,0.08035345129822621,0.04114566413282727,0.018626916478410117,0.043964830250621985,0.027967391565783803,0.03801932157422048,0.01775687987301728,0.034259024901324556
0.1692692,0.08055514402659039,0.04114255349392804,0.01875259962811553,0.044087433658088926,0.028024612366082818,0.03809779488378287,0.01759607837954938,0.034418345383741576
0.1697885,0.08075183558225386,0.04113955450738694,0.01888336322532055,0.044208725801304485,0.02808309717698811,0.038174703321502225,0.01743841205001644,0.03457794041674191
0.1703077,0.08094349519913546,0.04113667655980873,0.019019161816657162,0.04432868626355624,0.02814281502280084,0.03825001545427903,0.01728387344563539,0.03473779761820669
0.1708269,0.08113009344366229,0.04113392875382443,0.0191599488100414,0.044447294746999634,0.02820373451815605,0.03832370027285877,0.01713245432507523,0.03489790432012994
0.1713462,0.08131160223047827,0.041131319906597276,0.019305676492870304,0.04456453107868151,0.028265823881125456,0.03839572720571109,0.016984145656413693,0.035058247568325256
0.1718654,0.08148799483781904,0.041128858548526694,0.01945629605046789,0.04468037521656116,0.02832905094642397,0.03846606613265967,0.016838937629288012,0.03521881412229745
0.1723846,0.08165924592255468,0.04112655292214912,0.019611757584775142,0.044794807255528035,0.02839338317871657,0.038534687398253935,0.016696819667233378,0.03537959045528119
0.1729038,0.08182533153490126,0.04112441098123451,0.01977201013327883,0.04490780743341518,0.028458787686021947,0.03860156182487467,0.016557780440202906,0.03554056275444838
0.1734231,0.08198622913280232,0.04112244039007691,0.01993700168817401,0.04501935613700712,0.028525231233209228,0.03866666072556613,0.016421807877262672,0.035701716921285716
0.1739423,0.08214191759598036,0.04112064852297741,0.020106679215755013,0.04512943390804084,0.02859268025558396,0.038729955916587865,0.016288889179455444,0.03586303857214375
0.1744615,0.08229237723965863,0.041119042463917566,0.020280988676029753,0.04523802144919817,0.028661100872559325,0.03879141972967986,0.016159010832826632,0.03602451303895858
0.1749808,0.08243758982795178,0.041117629006421096,0.020459875042552252,0.04534509963008757,0.028730458901408476,0.038851025024035174,0.01603215862160601,0.03618612537014718
0.1755,0.08257753858692407,0.04111641465360122,0.020643282322468422,0.04545064949321353,0.028800719871093595,0.0389087451979755,0.015908317641538588,0.03634786033167751
0.1760192,0.08271220821731289,0.0411154056183911,0.020831153576770182,0.045554652259931314,0.028871849036167154,0.03896455420032563,0.01578747231335812,0.036509702408314394
0.1765385,0.08284158490691437,0.0411146078239542,0.02102343094075317,0.045657089336385244,0.028943811390740617,0.03901842654148375,0.015669606396396644,0.03667163580504254
0.1770577,0.0829656563426278,0.04111402690427115,0.021220055644673233,0.04575794231942826,0.02901657168251564,0.039070337304184966,0.015554703002323403,0.03683364444866786
0.1775769,0.08308441172215456,0.041113668204899624,0.02142096803459702,0.045857193002520925,0.029090094426872673,0.03912026215395595,0.015442744609006612,0.03699571198959862
0.1780962,0.08319784176534742,0.04111353678390325,0.021626107593441957,0.04595482338160783,0.029164343921011637,0.039168177349258745,0.015333713074491398,0.037157821803807944
0.1786154,0.08330593872520513,0.041113637412945506,0.0218354129622008,0.046050815660968955,0.02923928425813928,0.039214059751322264,0.015227589651087314,0.0373199569949791
0.1791346,0.08340869639850722,0.041113974578544245,0.022048821961346034,0.04614515225904372,0.029314879341697655,0.03925788683366026,0.015124354999558812,0.03748210039683506
0.1796538,0.08350611013608332,0.041114552483482086,0.022266271612409218,0.04623781581422484,0.02939109289962803,0.03929963669127529,0.015023989203412044,0.03764423457565368
0.1801731,0.08359817685271095,0.04111537504836784,0.02248769815973042,0.04632878919061905,0.029467888498664448,0.03933928804954822,0.014926471783271368,0.03780634183296967
0.1806923,0.08368489503663487,0.041116445913343715,0.02271303709237277,0.046418055483771016,0.02954522955865101,0.03937682027281297,0.014831781711338858,0.03796840420846446
0.1812115,0.08376626475870115,0.04111776843993308,0.022942223166197276,0.04650559802634684,0.02962307936687675,0.039412213372616335,0.014739897425930126,0.038130403483044785
0.1817308,0.08384228768109837,0.04111934571302332,0.023175190426092934,0.046591400393772874,0.02970140109242187,0.03944544801566239,0.01465079684607971,0.03829232118211056
0.18225,0.0839129670656984,0.0411211805429783,0.023411872228357222,0.04667544640982543,0.029780157800508886,0.039476505531440796,0.014564457386209229,0.0384541385790122
0.1827692,0.08397830778198904,0.041123275467875225,0.023652201263221977,0.04675772015216649,0.029859312466852056,0.03950536791953836,0.014480855970851426,0.03861583669869748
0.1832885,0.08403831631459119,0.04112563275586079,0.023896109577519475,0.04683820595782011,0.029938827991998415,0.03953201785663275,0.014399969049423202,0.038777396321547614
0.1838077,0.08409300077035324,0.04112825440762191,0.024143528597483633,0.04691688842858412,0.030018667215653588,0.03955643870316738,0.014321772611040647,0.038938797987401956
0.1843269,0.08414237088501603,0.04113114215896658,0.0243943891516808,0.046993752436371286,0.030098792930985486,0.03957861450970642,0.014246242199369073,0.03910002199977065
0.1848462,0.08418643802944213,0.04113429748351103,0.024648621494064764,0.047068783128473894,0.030179167898898778,0.03959853002296853,0.014173352927500977,0.03926104843023408
0.1853654,0.08422521521540415,0.041137721595469544,0.024906155327150264,0.04714196593274579,0.030259754862273034,0.03961617069153817,0.014103079492854878,0.03942185712302794
0.1858846,0.08425871710092687,0.04114141545254339,0.025166919825299436,0.04721328656269528,0.03034051656015733,0.03963152267125324,0.01403539619208801,0.03958242769981231
0.1864038,0.08428695999517968,0.04114537975890573,0.02543084365811542,0.047282731022482774,0.030421415741914037,0.03964457283026766,0.013970276936015998,0.03974273956462289
0.1869231,0.08430996186291559,0.041149614968278986,0.025697855013937437,0.04735028561181651,0.030502415181304924,0.03965530875378765,0.013907695264532704,0.039902771909002384
0.1874423,0.08432774232845419,0.04115412128710133,0.025967881623431548,0.04741593693074001,0.030583477690512728,0.03966371874848028,0.013847624361523644,0.04006250371730966
0.1879615,0.0843403226792061,0.041158898677778735,0.02624085078327148,0.04747967188430493,0.030664566134091402,0.039669791846552935,0.013790037069766338,0.040221913772204104
0.1884808,0.08434772586873679,0.04116394686201898,0.026516689379903785,0.0475414776871229,0.030745643442838384,0.0396735178095021,0.013734905905811102,0.04038098066030229
0.189,0.08434997651936792,0.0411692653242442,0.026795323913391927,0.04760134186779018,0.030826672627582118,0.03967488713152988,0.013682203074835824,0.04053968277800403
0.1895192,0.08434710092431426,0.04117485331507866,0.027076680521333746,0.047659252273179395,0.030907616792878255,0.03967389104262636,0.01363190048546831,0.040697998337484276
0.1900385,0.08433912704935392,0.04118070985490842,0.027360685002847062,0.04771519707259268,0.030988439150608137,0.0396705215113159,0.013583969764569884,0.040855905372847535
0.1905577,0.08432608453402984,0.04118683373750977,0.027647262842618113,0.047769164761771246,0.031069103033473593,0.039664771247065356,0.01353838227197411,0.04101338174644099
0.1910769,0.08430800469238031,0.04119322353374365,0.027936339235007688,0.04782114416675654,0.03114957190838268,0.039656633702351674,0.013495109115174778,0.04117040515532248
0.1915962,0.0842849205131963,0.04119987759531308,0.028227839108209814,0.047871124447599375,0.03122980938972137,0.03964610307438649,0.013454121163957613,0.04132695313787959
0.1921154,0.08425686665980357,0.04120679405858132,0.02852168714845787,0.04791909510191335,0.03130977925250705,0.03963317430649495,0.013415389064970551,0.04148300308059571
0.1926346,0.0842238794693676,0.041213970848448474,0.028817807824273105,0.04796504596826972,0.031389445445420106,0.039617843089145524,0.013378883256227686,0.041638532224959154
0.1931538,0.08418599695171942,0.04122140568228476,0.02911612541075046,0.048008967229431265,0.031468772103710504,0.03960010586062759,0.01334457398154231,0.04179351767451144
0.1936731,0.0841432587877008,0.0412290960739187,0.02941656401387676,0.048050849415422786,0.031547723561976715,0.039579959807372965,0.01331243130488461,0.04194793640203068
0.1941923,0.08409570632702719,0.041237039337679006,0.029719047594876175,0.048090683406436005,0.03162626436681442,0.039557402863917526,0.013282425124659832,0.042101765256846155
0.1947115,0.08404338258566717,0.04124523259248892,0.030023499994578054,0.04812846043556652,0.03170435928933269,0.039532433712498476,0.013254525187902972,0.042254980972280136
0.1952308,0.08398633224273727,0.04125367276601189,0.030329844957802134,0.04816417209138041,0.03178197333753552,0.039505051782282946,0.013228701104386321,0.042407560173212656
0.19575,0.08392460163691112,0.04126235659884763,0.030638006157756123,0.0481978103203076,0.03185907176856686,0.03947525724822338,0.013204922360636511,0.04255947938376495
0.1962692,0.08385823876234193,0.04127128064877737,0.03094790722044062,0.04822936742885933,0.03193562010081756,0.03944305102953526,0.013183158333857876,0.04271071503509694
0.1967885,0.08378729326409752,0.04128044129505734,0.031259471749056404,0.048258836085666786,0.03201158412589285,0.03940843478779314,0.013163378305759114,0.04286124347331399
0.1973077,0.0837118164331065,0.041289834742759116,0.03157262334840892,0.048286209323338214,0.03208692992043912,0.03937141092464148,0.013145551476280196,0.04301104096747779
0.1978269,0.08363186120061396,0.041299457027155345,0.03188728564930501,0.04831148054013209,0.03216162385782877,0.03933198257911774,0.013129646977216419,0.04316008371771617
0.1983462,0.08354748213214468,0.041309304018149064,0.032203382332936493,0.04833464350144454,0.03223563261970179,0.03929015362458626,0.013115633885736572,0.04330834786342645
0.1988654,0.0834587354209716,0.041319371424744455,0.03252083715524549,0.04835569234110985,0.032308923207362776,0.03924592866528236,0.013103481237792161,0.04345580949156683
0.1993846,0.0833656788810871,0.04132965479955664,0.03283957397126593,0.04837462156251341,0.032381462953031785,0.039199313032467625,0.013093158041414732,0.04360244464502997
0.1999038,0.08326837193967528,0.04134014954335783,0.033159516759436056,0.04839142603951803,0.03245321953094749,0.03915031278019792,0.013084633289898256,0.04374822933109283
0.2004231,0.08316687562908363,0.0413508509096568,0.033480589645876066,0.048406101017204994,0.03252416096832091,0.03909893468070678,0.0130778759748636,0.043893139529936086
0.2009423,0.0830612525782939,0.04136175400930847,0.03380271692862538,0.04841864211243258,0.03259425565613793,0.03904518621940733,0.013072855099202082,0.04403715120322675
0.2014615,0.0829515670038924,0.04137285381515014,0.03412582310183334,0.048429045314215734,0.03266347235980889,0.03898907558951752,0.01306953968989515,0.04418024030275707
0.2019808,0.0828378847005418,0.04138414516666079,0.034449832879897446,0.04843730698393143,0.032731780229663304,0.03893061168631511,0.013067898810707199,0.04432238277913237
0.2025,0.08272027303095714,0.041395622774639526,0.03477467122154289,0.04844342385535483,0.03279914881128786,0.038869804101030414,0.013067901574748577,0.044463554590500526
0.2030192,0.08259880091539056,0.0414072812258993,0.03510026335383695,0.04844739303453177,0.03286554805570563,0.03880666311438644,0.01306951715690592,0.04460373171131521
0.2035385,0.08247353882063042,0.04141911498797197,0.035426534796131795,0.048449211999493674,0.03293094832939446,0.03874119968979692,0.013072714806136955,0.04474289014112516
0.2040577,0.08234455874852145,0.041431118413820404,0.03575341138392895,0.048448878599820944,0.03299532042414236,0.038673425466232966,0.013077463857626977,0.04488100591338148
0.2045769,0.08221193422401375,0.041443285746553746,0.036080819292658904,0.048446391056061335,0.03305863556673786,0.0386033527507696,0.013083733744804232,0.045018055104255064
0.2050962,0.08207574028274933,0.04145561112414145,0.036408685061368865,0.04844174795900934,0.03312086542849297,0.03853099451082344,0.013091494011211484,0.04515401384145622
0.2056154,0.08193605345819502,0.041468088584122105,0.03673693561631179,0.04843494826885281,0.033181982134596485,0.03845636436609333,0.01310071432223099,0.04528885831304862
0.2061346,0.08179295176833118,0.041480712068303,0.037065498294429754,0.048425991314192646,0.03324195827329525,0.03837947658021601,0.013111364476660116,0.045422564776250174
0.2066538,0.0816465147019053,0.04149347542744625,0.03739430086672467,0.04841487679094093,0.0333007669049009,0.03830034605214909,0.013123414418134761,0.045555109566213066
0.2071731,0.08149682320425934,0.041506372425937625,0.03772327156150937,0.04840160476110273,0.03335838157061972,0.038218988307293575,0.013136834246397769,0.04568646910477608
0.2076923,0.08134395966273913,0.041519396746434144,0.03805233908753186,0.048386175651446234,0.03341477630120313,0.03813541948836796,0.013151594228409365,0.04581661990918227
0.2082115,0.08118800789169378,0.04153254199448673,0.0383814326569658,0.0483685902520659,0.033469925625416404,0.03804965634604563,0.013167664809296698,0.045945538600755544
0.2087308,0.08102905311707229,0.04154580170313441,0.03871048200826005,0.04834884971484258,0.033523804578323026,0.03796171622936715,0.013185016623139435,0.04607320191353022
0.20925,0.0808671819606246,0.04155916933746681,0.039039417428840144,0.048326955551804746,0.03357638870938266,0.03787161707593867,0.013203620503588387,0.04619958670282763
0.2097692,0.08070248242371371,0.04157263829915184,0.03936816977765431,0.048302909633394446,0.03362765409036041,0.037779377401927446,0.013223447494314111,0.04632466995377427
0.2102885,0.08053504387074535,0.04158620193092572,0.03969667050755681,0.04827671418664188,0.03367757732304545,0.0376850162918652,0.01324446885928235,0.046448428789756
0.2108077,0.08036495701222145,0.0415998535210427,0.04002485168752093,0.04824837179325227,0.03372613554677745,0.0375885533882697,0.013266656092853251,0.046570840480803226
0.2113269,0.08019231388742315,0.04161358630768168,0.04035264602467387,0.048217885387608614,0.03377330644577917,0.03749000888109484,0.013289980929701349,0.04669188245190161
0.2118462,0.08001720784672872,0.04162739348330732,0.040679986886145575,0.048185258254694156,0.03381906825629454,0.0373894034970193,0.013314415354553308,0.04681153229122285
0.2123654,0.07983973353357122,0.04164126819898282,0.04100680832072321,0.048150494027938036,0.033863399773531665,0.03728675848858348,0.01333993161174058,0.046929767758269784
0.2128846,0.07965998686604053,0.041655203568631505,0.041333045080302784,0.04811359668698784,0.03390628035841132,0.03718209562318458,0.013366502214564289,0.047046566791929985
0.2134038,0.07947806501813381,0.04166919267324444,0.04165863264112907,0.048074570555412484,0.03394768994412172,0.0370754371719393,0.01339409995446977,0.047161907518431787
0.2139231,0.07929406640065863,0.04168322856503057,0.041983507224814615,0.04803342029833898,0.03398760904248086,0.03696680589842344,0.01342269791002824,0.047275768259196965
0.2144423,0.07910809064179287,0.0416973042715062,0.04230760581912842,0.047990150920026495,0.03402601875010777,0.03685622504729761,0.013452269455723158,0.047388127538584256
0.2149615,0.07892023856730598,0.04171141279952022,0.042630866198544386,0.047944767761381,0.03406290075440445,0.03674371833282803,0.013482788270538865,0.04749896409151787
0.2154808,0.07873061218044583,0.04172554713921158,0.042953226944539395,0.047897276497413876,0.034098237339350024,0.03662930992731096,0.013514228346349202,0.04760825687099508
0.216,0.07853931464149608,0.041739700267895835,0.04327462746563089,0.04784768313464787,0.03413201139110914,0.036513024449409175,0.013546563996104061,0.04771598505546743
0.2165192,0.07834645024700869,0.041753865153877495,0.04359500801714309,0.047795994008473654,0.03416420640345659,0.036394886952408625,0.013579769861811898,0.047822128056090187
0.2170385,0.0781521244087165,0.04176803476018535,0.043914309720691366,0.04774221578046057,0.03419480648302043,0.03627492291240322,0.013613820922316456,0.04792666552383573
0.2175577,0.07795644363213054,0.04178220204822804,0.044232474583373815,0.04768635543562486,0.03422379635434587,0.03615315821641524,0.013648692500866066,0.04802957735646737
0.2180769,0.07775951549482676,0.04179635998136753,0.04454944551665913,0.04762842027965895,0.034251161364782054,0.036029619150458846,0.013684360272473824,0.04813084370537132
0.2185962,0.07756144862442602,0.04181050152840832,0.04486516635495976,0.047568417936125394,0.034276887489193934,0.03590433238755374,0.013720800271067063,0.0482304449822455
0.2191154,0.07736235267627144,0.04182461966700072,0.045179581873879486,0.04750635634361879,0.034300961334501265,0.03577732497569583,0.013757988896424548,0.048328361865644605
0.2196346,0.07716233831080622,0.041838707386956525,0.0454926378081246,0.047442243752899176,0.034323370144046544,0.0356486243257914,0.013795902920899907,0.04842457530738171
0.2201538,0.07696151717065455,0.04185275769347587,0.045804280869068,0.047376088723999905,0.034344101801793765,0.035518258199561094,0.013834519495929941,0.04851906653878712
0.2206731,0.07676000185740776,0.041866763610284116,0.04611445876195575,0.047307900123312936,0.034363144836359556,0.035386254697419725,0.013873816158326507,0.04861181707682586
0.2211923,0.07655790590811755,0.04188071818267809,0.04642312020274575,0.047237687120654084,0.034380488424878154,0.03525264224633764,0.013913770836350762,0.04870280873007533
0.2217115,0.0763553437714975,0.041894614480480895,0.04673021493456839,0.04716545918631041,0.03439612239670136,0.03511744958768925,0.013954361855568684,0.04879202360456511
0.2222308,0.07615243078383362,0.04190844560090476,0.047035693743799414,0.04709122608807163,0.034410037236934664,0.034980705765093954,0.013995567944486873,0.04887944410948092
0.22275,0.07594928314460415,0.04192220467132138,0.0473395084757353,0.04701499788824701,0.03442222408981027,0.03484244011225455,0.014037368239967683,0.048965052962734255
0.2232692,0.07574601789180853,0.04193588485193884,0.04764161204986191,0.04693678494066901,0.03443267476189772,0.03470268224079827,0.014079742292422943,0.04904883319639967
0.2237885,0.0755427528770047,0.041949479338384145,0.04794195847470758,0.04685659788768478,0.03444138172515243,0.03456146202812532,0.014122670070785558,0.04913076816202071
0.2243077,0.075339606740054,0.041962981364190015,0.04824050286227186,0.04677444765713596,0.034448338119802316,0.034418809605270106,0.014166131967258388,0.049210841535785754
0.2248269,0.07513669888357215,0.04197638420318426,0.04853720144202207,0.04669034545932755,0.034453537757072376,0.034274755344780264,0.014210108801839897,0.04928903732357462
0.2253462,0.07493414944708526,0.041989681171779744,0.04883201157444965,0.04660430278398635,0.034456975121746794,0.03412932984861891,0.014254581826626138,0.04936533986587656
0.2258654,0.07473207928088942,0.04200286563116292,0.04912489176417923,0.04651633139720911,0.034458645374568005,0.03398256393609551,0.014299532729888677,0.04943973384258053
0.2263846,0.07453060991961276,0.04201593098937846,0.0494158016726235,0.04642644333840045,0.03445854435447185,0.03383448863183081,0.014344943639928154,0.049512204277638076
0.2269038,0.074329863555479,0.0420288707033078,0.0497047021301778,0.046334650917200466,0.034456668580657775,0.03368513515376154,0.01439079712870313,0.049582736543599175
0.2274231,0.07412996301127166,0.042041678280539604,0.049991555147948626,0.046240966710401676,0.03445301525449307,0.03353453490119005,0.014437076215234056,0.04965131636602156
0.2279423,0.0739310317129986,0.042054347281130826,0.050276323929010755,0.046145403558854894,0.034447582261249596,0.03338271944288425,0.014483764368782176,0.04971792982775329
0.2284615,0.07373319366225747,0.042066871319257466,0.0505589728791884,0.046047974564363346,0.034440368171671544,0.03322972050523305,0.014530845511803345,0.04978256337308866
0.2289808,0.07353657340830286,0.04207924406475539,0.050839467617355985,0.045948693086564185,0.03443137224337249,0.033075569960462195,0.014578304022676769,0.04984520381179726
0.2295,0.07334129601981731,0.042091459244552314,0.05111777498525469,0.0458475727397964,0.03442059442205999,0.03292029981491523,0.014626124738208702,0.04990583832302582
0.2300192,0.07314748705638913,0.04210351064399304,0.0513938630568213,0.045744627389953926,0.03440803534258587,0.0327639421974041,0.014674292955911142,0.04996445445907241
0.2305385,0.07295527253970088,0.04211539210806079,0.05166770114702624,0.04563987115132265,0.03439369632982058,0.032606529347633556,0.014722794436055463,0.050021040149032324
0.2310577,0.07276477892443371,0.042127097542497806,0.0519392598202178,0.04553331838339943,0.03437757939935009,0.03244809360470338,0.014771615403500832,0.050075583702315074
0.2315769,0.0725761330688927,0.042138620914828964,0.052208510897969955,0.045424983687691274,0.03435968725799418,0.03228866739569207,0.014820742549297323,0.05012807381203175
0.2320962,0.07238946220535918,0.04214995625529186,0.052475427466431135,0.04531488190449215,0.03434002330414499,0.03212828322432544,0.014870163032063536,0.05017849955825168
0.2326154,0.07220489391017608,0.04216109765767693,0.05273998388317122,0.04520302810963496,0.0343185916279249,0.03196697365973329,0.014919864479138458,0.050226850411127726
0.2331346,0.072022556073572,0.042172039280080995,0.05300215578352419,0.04508943761121566,0.03429539701116286,0.03180477132529699,0.014969834987507267,0.05027311623388906
0.2336538,0.07184257686922947,0.0421827753455778,0.053261920086423095,0.044974125946286546,0.034270444927188226,0.03164170888759081,0.015020063124500743,0.050317287285700715
0.2341731,0.07166508472360357,0.04219330014280912,0.053519254999724326,0.04485710887751586,0.034243741540440985,0.03147781904541956,0.015070537928267812,0.050359354224389516
0.2346923,0.07149020828499632,0.04220360802650026,0.05377414002501737,0.044738402389810576,0.03421529370589712,0.031313134518955246,0.015121248908020872,0.05039930810903648
0.2352115,0.07131807639239375,0.042213693417904076,0.05402655596191626,0.04461802268690001,0.03418510896830799,0.031147688038975285,0.015172186044053593,0.05043714040243618
0.2357308,0.07114881804407285,0.04222355080517796,0.05427648491182824,0.04449598618787792,0.0341531955612526,0.03098151233620501,0.015223339787530888,0.0504728429734244
0.23625,0.07098256236598648,0.04223317474369815,0.05452391028119491,0.044372309523701865,0.03411956240600195,0.030814640130767054,0.015274701060050926,0.050506408099075605
0.2367692,0.07081943857993588,0.04224255985631639,0.05476881678420085,0.04424700953364865,0.03408421911019487,0.030647104121740196,0.015326261252978968,0.05053782846677234
0.2372885,0.07065957597154027,0.04225170083356378,0.055011190444943826,0.04412010326172582,0.03404717596632467,0.030478936976830292,0.015378012226552898,0.050567097176148545
0.2378077,0.07050310385801456,0.042260592433807066,0.0552510185990609,0.04399160795303935,0.03400844395003616,0.030310171322155657,0.015429946308760309,0.05059420774090893
0.2383269,0.07035015155576611,0.042269229483362564,0.0554882898948038,0.04386154105011807,0.03396803471823242,0.03014083973214931,0.015482056293987058,0.05061915409052689
0.2388462,0.07020084834782164,0.04227760687657292,0.055722994293557065,0.04372992018919553,0.033925960606990824,0.029970974719580667,0.015534335441437199,0.050641930571823396
0.2393654,0.07005532345109554,0.042285719575852136,0.05595512306979218,0.04359676319644968,0.03388223462928782,0.02980060872569923,0.015586777473324221,0.05066253195042958
0.2398846,0.06991370598351015,0.042293562611703965,0.05618466881045102,0.043462088084201295,0.03383687047253184,0.029629774110502948,0.015639376572833517,0.05068095341213607
0.2404038,0.06977612493097855,0.04230113108271879,0.056411625413752164,0.043325913047071896,0.03378988249590389,0.029458503143134092,0.015692127381856037,0.05069719056413182
0.2409231,0.06964270911425945,0.04230842015555401,0.05663598808741393,0.043188256458101995,0.03374128572750522,0.029286827992405343,0.015745024998493114,0.05071123943613503
0.2414423,0.06951358715569379,0.04231542506490268,0.05685775334628847,0.043049136864830605,0.033691095861311644,0.029114780717458877,0.015798064974332515,0.050723096481418574
0.2419615,0.06938888744583216,0.042322141113455045,0.05707691900940188,0.042908572985336665,0.03363932925393389,0.028942393258561197,0.01585124331149577,0.05073275857773222
0.2424808,0.06926873810996191,0.042328563671857174,0.057293484196395926,0.0427665837042428,0.033586002921183224,0.028769697428036253,0.01590455645945702,0.05074022302812389
0.243,0.06915326697454321,0.042334688178670886,0.05750744932336761,0.042623188068681525,0.03353113453444144,0.0285967249013395,0.015958001311633774,0.050745487561662486
0.2435192,0.06904260153356327,0.04234051014033863,0.05771881609810377,0.0424784052842241,0.03347474241683431,0.028423507208275394,0.016011575201750592,0.050748550334064536
0.2440385,0.06893686891481865,0.04234602513115688,0.057927587514708376,0.04233225471077212,0.03341684553920732,0.028250075724360797,0.01606527589997734,0.05074940992822742
0.2445577,0.06883619584613575,0.042351228793261184,0.058133767847621295,0.042184755858412165,0.03335746351590263,0.02807646166233676,0.01611910160884428,0.0507480653546718
0.2450769,0.06874070862153966,0.04235611683662583,0.058337362645027674,0.04203592838323439,0.03329661660033658,0.027902696063830997,0.01617305095893691,0.05074451605189629
0.2455962,0.06865053306738182,0.04236068503908079,0.058538378721657944,0.04188579208311685,0.033234325680376826,0.027728809791173384,0.0162271230043736,0.05073876188664721
0.2461154,0.06856579450843625,0.04236492924634831,0.05873682415097924,0.041734366893478106,0.03317061227351885,0.027554833519366544,0.016281317218069424,0.050730803154105955
0.2466346,0.06848661773397464,0.0423688453721012,0.058932708256779355,0.04158167288300145,0.03310549852186138,0.027380797728213502,0.016335633486789288,0.05072064057799671
0.2471538,0.0684131269638293,0.04237242939804439,0.059126041604145155,0.04142773024933456,0.03303900718688047,0.027206732694604135,0.01639007210599369,0.050708275310616564
0.2476731,0.0683454458144532,0.04237567737402136,0.05931683598983801,0.04127255931476879,0.032971161644002,0.027032668484961987,0.016444633774480237,0.05069370893279016
0.2481923,0.06828369726498602,0.04237858541814648,0.05950510443206928,0.04111618052190222,0.03290198587697254,0.026858634947852827,0.016499319588824286,0.05067694345375025
0.2487115,0.06822800362333455,0.04238114971696392,0.059690861159679594,0.04095861442929057,0.03283150447202872,0.026684661706756364,0.016554131037622193,0.05065798131094554
0.2492308,0.06817848649227615,0.04238336652563356,0.05987412160072642,0.040799881707089765,0.032759742611865504,0.026510778153002217,0.016609069995540737,0.050636825369777066
0.24975,0.06813526673559311,0.042385232168143896,0.06005490237048485,0.040640003132693836,0.032686726069403704,0.026337013438871543,0.01666413871717653,0.050613478923263726
0.2502692,0.06809846444424537,0.04238674303755163,0.06023322125886752,0.04047899958637188,0.0326124812013575,0.02616339647086549,0.016719339830729138,0.0505879456916378
0.2507885,0.06806819890258871,0.042387895596247414,0.06040909721727015,0.040316892046907395,0.03253703494160266,0.02598995590314175,0.016774676331491743,0.05056022982187083
0.2513077,0.06804458855464522,0.04238868637624658,0.06058255034484994,0.04015370158724343,0.03246041479434602,0.025816720131120182,0.01683015157516316,0.050530335887130046
0.2518269,0.06802775097043225,0.04238911197950364,0.06075360187424496,0.039989449370136924,0.032382648827096745,0.0256437172852586,0.01688576927098499,0.050498268886164994
0.2523462,0.06801780281235612,0.04238916907824892,0.060922274156742874,0.03982415664382545,0.032303765663439885,0.02547097522499948,0.01694153347470754,0.05046403424262413
0.2528654,0.06801485980167689,0.0423888544153453,0.061088590646908386,0.03965784473770949,0.03222379447561209,0.025298521532888255,0.01699744858138825,0.0504276378043008
0.2533846,0.06801903668505054,0.042388164804662946,0.06125257588667878,0.03949053505805352,0.032142764976879595,0.02512638350886371,0.01705351931802612,0.05038908584230813
0.2539038,0.06803044720115507,0.04238709713146944,0.061414255488937634,0.03932224908370891,0.03206070741371808,0.024954588164720775,0.01710975073603568,0.05034838505018206
0.2544231,0.06804920404740751,0.042385648352832886,0.0615736561205765,0.03915300836186147,0.031977652557793834,0.024783162218745953,0.01716614820356397,0.05030554254291151
0.2549423,0.06807541884677841,0.04238381549803512,0.06173080548505455,0.038982834503806234,0.03189363169774576,0.02461213209052541,0.017222717397653894,0.050260565855894564
0.2554615,0.06810920211471092,0.042381595668992085,0.061885732304465854,0.038811749180752045,0.031808676630767876,0.0244415238959257,0.017279464296257298,0.05021346294381962
0.2559808,0.06815066322615083,0.04237898604067849,0.06203846630112345,0.03863977411965795,0.03172281965399194,0.024271363442246938,0.01733639517010103,0.05016424217946981
0.2565,0.06819991038269409,0.04237598386155358,0.062189038178669366,0.03846693109910355,0.03163609355567008,0.024101676223548057,0.017393516574409237,0.05011291235244934
0.2570192,0.06825705057985802,0.042372586453984847,0.06233747960271897,0.03829324194519516,0.03154853160615725,0.023932487416143906,0.017450835340485006,0.05005948266783021
0.2575385,0.06832218957448268,0.04236879121466649,0.06248382318104793,0.038118728527509846,0.03146016754869359,0.023763821874273817,0.017508358567154568,0.05000396274471795
0.2580577,0.06839543185226862,0.04236459561502933,0.06262810244332956,0.037943412755079196,0.03137103558998682,0.023595704125941523,0.017566093612077248,0.049946362614735416
0.2585769,0.06847688059545776,0.04235999720163904,0.06277035182043057,0.0377673165724146,0.03128117039059504,0.023428158368926123,0.017624048082924434,0.04988669272042414
0.2590962,0.0685666376506634,0.042354993596579675,0.06291060662327261,0.03759046195557565,0.031190607055110803,0.023261208466964042,0.017682229828430863,0.049824963913563315
0.2596154,0.06866480349685614,0.04234958249781957,0.06304890302126742,0.03741287090828326,0.03109938112214739,0.023094877946101884,0.017740646929321528,0.04976118745340704
0.2601346,0.0687714772135114,0.042343761679557106,0.06318527802033319,0.03723456545807851,0.03100752855412832,0.02292918999121991,0.01779930768911754,0.04969537500484064
0.2606538,0.06888675644892435,0.04233752899254364,0.0633197694404997,0.03705556765252824,0.03091508572688141,0.02276416744272594,0.017858220624824235,0.0496275386364569
0.2611731,0.06901073738869726,0.04233088236438133,0.06345241589311028,0.036875899555477855,0.030822089419038703,0.022599832793419306,0.017917394457504995,0.04955769081855272
0.2616923,0.06914351472440437,0.04232381979979377,0.0635832567576283,0.03669558324335179,0.030728576801244106,0.022436208185524404,0.017976838102744197,0.04948584442104666
0.2622115,0.0692851816224382,0.04231633938086719,0.06371233215805659,0.03651464080150153,0.030634585425170727,0.022273315407893287,0.018036560661002767,0.04941201271131738
0.2627308,0.06943582969304114,0.04230843926726002,0.06383968293897829,0.036333094320601035,0.03054015321234994,0.022111175893376654,0.018096571407869907,0.049336209351963006
0.26325,0.06959554895952554,0.04230011769637854,0.06396535064122798,0.036150965893089075,0.030445318442814645,0.02194981071636245,0.01815687978421452,0.04925844839848145
0.2637692,0.06976442782768459,0.04229137298351603,0.06408937747720238,0.03596827760965816,0.03035011974355917,0.02178924059048131,0.018217495386239936,0.04917874429687207
0.2642885,0.0699425530553965,0.04228220352195265,0.06421180630582057,0.035785051555789454,0.030254596076818754,0.021629485866477973,0.018278427955445452,0.0490971118811593
0.2648077,0.07013000972242317,0.04227260778301313,0.06433268060714391,0.03560130980833346,0.03015878672817158,0.021470566530247672,0.018339687368498274,0.049013566370839305
0.2653269,0.07032688120040502,0.042262584316079474,0.06445204445666647,0.03541707443213615,0.030062731294466828,0.021312502201036528,0.018401283627019267,0.04892812336825087
0.2658462,0.07053324912305252,0.04225213174855569,0.06456994249928719,0.03523236747671044,0.029966469671582282,0.021155312129804617,0.0184632268472859,0.04884079885587151
0.2663654,0.07074919335653537,0.04224124878578184,0.06468641992297566,0.035047210972952936,0.029870042042015384,0.020999015197750485,0.018525527249855803,0.04875160919353985
0.2668846,0.07097479197006956,0.04222993421089494,0.06480152243214386,0.034861626929905895,0.02977348886231223,0.02084362991499558,0.018588195149114348,0.048660571115605115
0.2674038,0.07121012120670232,0.04221818688463418,0.06491529622073668,0.034675637331564355,0.029676850850339383,0.020689174419427116,0.018651240942750055,0.04856770172800459
0.2679231,0.07145525545429486,0.04220600574508864,0.06502778794505505,0.034489264133728145,0.029580168972404005,0.020535666475697687,0.018714675101161954,0.048473018505269985
0.2684423,0.0717102672167026,0.04219338980738562,0.06513904469632596,0.0343025292608986,0.02948348443022775,0.020383123474380156,0.01877850815680335,0.048376539287463355
0.2689615,0.0719752270851528,0.042180338163318475,0.06524911397303387,0.034115454603219554,0.029386838647780186,0.020231562431276152,0.01884275069346683,0.04827828227704339
0.2694808,0.07225020370981954,0.0421668499809129,0.065358043653029,0.03392806201346195,0.02929027325797733,0.020080999986876652,0.018907413335515474,0.04817826603566235
0.27,0.0725352637715964,0.042152924503931224,0.06546588196542809,0.03374037330405135,0.02919383008925085,0.01993145240597301,0.018972506737065457,0.04807650948089385
0.2705192,0.0728304719540682,0.042138561051314465,0.06557267746232404,0.03355241024413732,0.029097551151993355,0.019782935577416724,0.019038041571125385,0.04797303188289092
0.2710385,0.07313589091568276,0.04212375901656234,0.06567847899032038,0.03336419455670342,0.029001478624885065,0.01963546501402616,0.019104028518698062,0.04786785286097397
0.2715577,0.07345158126212457,0.04210851786705139,0.06578333566190749,0.03317574791571648,0.028905654841107027,0.0194890558526384,0.019170478257850787,0.04776099238014755
0.2720769,0.07377760151889165,0.04209283714329156,0.06588729682669688,0.032987091943313555,0.028810122274445956,0.019343722854304257,0.019237401452760605,0.047652470747544654
0.2725962,0.0741140081040769,0.04207671645812146,0.06599041204253057,0.03279824820702506,0.028714923525295748,0.019199480404624533,0.019304808742741195,0.047542308608797185
0.2731154,0.07446085530135485,0.04206015549584217,0.06609273104648225,0.032609238217032606,0.028620101306560557,0.01905634251422537,0.019372710731258177,0.04743052694433072
0.2736346,0.07481819523317403,0.04204315401128946,0.06619430372576686,0.032420083423460026,0.028525698429464376,0.01891432281937063,0.019441117974939658,0.04731714706558156
0.2741538,0.07518607783415548,0.042025711828843876,0.06629518008857564,0.03223080521369614,0.02843175778927211,0.018773434582708973,0.019510040972588946,0.04720219061113367
0.2746731,0.07556455082469761,0.04200782884137784,0.06639541023485296,0.03204142490974792,0.02833832235092748,0.018633690694153403,0.019579490154206385,0.047085679542772804
0.2751923,0.07595365968478798,0.04198950500913893,0.06649504432703178,0.03185196376562261,0.028245435134613566,0.018495103671890844,0.019649475870027272,0.046967636141454654
0.2757115,0.07635344762802342,0.04197074035856815,0.06659413256074412,0.03166244296473741,0.028153139201242194,0.01835768566351936,0.019720008379582748,0.04684808300318355
0.2762308,0.07676395557584036,0.04195153498105236,0.066692725135523,0.031472883617355396,0.02806147763787871,0.018221448447310464,0.0197910978407906,0.04672704303479796
0.27675,0.07718522213195897,0.041931889031610346,0.06679087222551204,0.03128330675804623,0.027970493543108998,0.018086403433594068,0.019862754299082897,0.04660453944965868
0.2772692,0.07761728355704524,0.04191180272751204,0.06688862395019864,0.031093733343170067,0.02788023001235554,0.017952561666263547,0.01993498767657728,0.04648059576323517
0.2777885,0.07806017374359706,0.041891276346831215,0.06698603034518685,0.030904184248383405,0.027790730123149296,0.01781993382439842,0.020007807761298704,0.04635523578858549
0.2783077,0.07851392419106126,0.04187031022693235,0.06708314133302509,0.03071468026616523,0.02770203692036404,0.017688530224002193,0.020081224196458334,0.04622848363172486
0.2788269,0.07897856398118992,0.041848904762893095,0.06718000669410379,0.03052524210336205,0.027614193401419882,0.01755836081985277,0.02015524646979617,0.04610036368687799
0.2793462,0.07945411975364507,0.04182706040586425,0.06727667603763787,0.03033589037875018,0.027527242501462615,0.01742943520746295,0.02022988390299378,0.04597090063161086
0.2798654,0.07994061568186163,0.041804777661369766,0.06737319877274833,0.030146645620613678,0.027441227078525553,0.017301762625148223,0.020305145641163487,0.04584011942183781
0.2803846,0.08043807344917887,0.041782057087549646,0.0674696240796567,0.029957528264336057,0.02735618989868063,0.017175351956199302,0.0203810406424201,0.04570804528670056
0.2809038,0.08094651222525055,0.04175889929334889,0.06756600088100566,0.029768558650004023,0.02727217362118543,0.017050211731156575,0.020457577667541228,0.04557470372331619
0.2814231,0.08146594864274392,0.041735304936655684,0.0676623778133188,0.029579757020021122,0.027189220783632898,0.016926350130183756,0.02053476526972205,0.04544012049139173
0.2819423,0.08199639677433744,0.041711274722391896,0.06775880319861177,0.029391143516729425,0.027107373787110315,0.016803774985537902,0.020612611784430426,0.045304321607702966
0.2824615,0.08253786811002689,0.04168680940055894,0.06785532501616687,0.02920273818003737,0.027026674881374096,0.01668249378413296,0.020691125319368064,0.0451673333404357
0.2829808,0.08309037153474993,0.04166190976424214,0.06795199087448249,0.02901456094505212,0.026947166150046747,0.016562513670193995,0.020770313744543516,0.045029182203387835
0.2835,0.08365391330633926,0.04163657664757679,0.06804884798340914,0.028826631639715182,0.026868889495842187,0.01644384144799931,0.020850184682462677,0.044889894950030824
0.2840192,0.08422849703381513,0.041610810923679166,0.06814594312648305,0.028638969982440338,0.026791886625825365,0.016326483584707837,0.020930745498442465,0.04474949856742911
0.2845385,0.08481412365602924,0.04158461350254594,0.06824332263346851,0.02845159557975344,0.026716199036712004,0.016210446213269284,0.02101200329105335,0.044608020270016285
0.2850577,0.08541079142067179,0.04155798532892534,0.06834103235311989,0.028264527923933823,0.02664186800021403,0.016095735135414544,0.021093964882696402,0.044465487493227075
0.2855769,0.08601849586365531,0.04153092738016327,0.06843911762617433,0.028077786390657555,0.026568934548436056,0.01598235582472407,0.02117663681032044,0.044321927886984094
0.2860962,0.08663722978888874,0.041503440664027516,0.06853762325858637,0.027891390236642933,0.026497439459328174,0.015870313429771753,0.021260025316284768,0.044177369309038754
0.2866154,0.08726698324845647,0.04147552621651253,0.06863659349501569,0.027705358597298866,0.02642742324220008,0.01575961277734193,0.021344136339372873,0.04403183981816571
0.2871346,0.08790774352321731,0.04144718509962736,0.06873607199257992,0.02751971048437697,0.026358926123301433,0.01565025837571704,0.021428975505962355,0.04388536766721048
0.2876538,0.08855949510383875,0.04141841839916875,0.0688361017948842,0.027334464783628235,0.02629198803147312,0.015542254418033473,0.02151454812135612,0.04373798129599025
0.2881731,0.08922221967228279,0.04138922722248127,0.06893672530634,0.027149640252465267,0.02622664858387419,0.015435604785703013,0.02160085916127992,0.043589709324048015
0.2886923,0.08989589608375922,0.04135961269620583,0.06903798426678584,0.026965255517630935,0.026162947071788907,0.015330313051897347,0.021687913263550976,0.04344058054326083
0.2892115,0.09058050034916254,0.04132957596401809,0.06913991972642292,0.026781329072874373,0.026100922446518484,0.015226382485093002,0.021775714719922432,0.0432906239103029
0.2897308,0.09127600561800901,0.04129911818435762,0.06924257202107893,0.026597879276635036,0.026040613305361726,0.015123816052674245,0.021864267468108316,0.04313986853896456
0.29025,0.09198238216189009,0.04126824052814919,0.06934598074781391,0.026414924349735365,0.025982057877688758,0.015022616424591606,0.02195357508399341,0.0429883436923286
0.2907692,0.09269959735845841,0.04123694417651692,0.06945018474088141,0.02623248237308245,0.02592529401111193,0.01492278597707378,0.022043640774032622,0.04283607877480609
0.2912885,0.09342761567596292,0.04120523031849264,0.06955522204805946,0.02605057128537894,0.025870359157757906,0.014824326796390825,0.022134467367844142,0.04268310332403408
0.2918077,0.09416639865834953,0.041173100148719596,0.06966112990736496,0.02586920888084321,0.025817290360645184,0.01472724068266665,0.02222605731100072,0.04252944700263878
0.2923269,0.09491590491094375,0.041140554865152786,0.06976794472416606,0.02568841280693875,0.025766124240171405,0.014631529153738932,0.022318412658023402,0.042375139589868036
0.2928462,0.0956760900867316,0.04110759566675746,0.06987570204870665,0.0255082005621127,0.025716896980715085,0.014537193449064604,0.022411535065581842,0.04222021097309739
0.2933654,0.0964469068732552,0.04107422375120731,0.06998443655405767,0.02532858949354342,0.025669644317356438,0.014444234533669113,0.02250542578590542,0.042064691139214266
0.2938846,0.09722830498013868,0.04104044031258394,0.07009418201450941,0.0251495967948972,0.02562440152272195,0.0143526531021377,0.02260008566040926,0.041908610165885096
0.2944038,0.09802023112725983,0.04100624653907931,0.07020497128441934,0.024971239504094026,0.025581203393957194,0.01426244958264689,0.022695515113539153,0.04175199821270999
0.2949231,0.09882262903358219,0.040971643610702865,0.07031683627752994,0.024793534501082695,0.02554008423983236,0.014173624141034439,0.02279171414683941,0.041594885512269676
0.2954423,0.0996354394066616,0.040936632696994914,0.07042980794677071,0.02461649850562552,0.025501077867984896,0.014086176684905773,0.02288868233324768,0.04143730236106977
0.2959615,0.10045859993284174,0.040901214954747994,0.07054391626455846,0.024440148075093076,0.02546421757230348,0.014000106867775058,0.0229864188116208,0.04127927911038707
0.2964808,0.10129204526815223,0.04086539152573792,0.07065919020360957,0.02426449960226958,0.02542953612045761,0.013915414093238786,0.023084922281495703,0.04112084615702321
0.297,0.1021357070299236,0.04082916353446623,0.07077565771827793,0.024089569313169624,0.025397065741576876,0.01383209751917972,0.02318419099808944,0.04096203393397066
0.2975192,0.10298951378913337,0.040792532085915746,0.07089334572643127,0.023915373264867156,0.025366838114084075,0.01375015606199897,0.023284222767542318,0.040802872900996295
0.2980385,0.10385339106349836,0.04075549826332078,0.07101228009187853,0.023741927343337653,0.025338884353686027,0.013669588400873877,0.023385014942407856,0.040643393535147496
0.2985577,0.10472726131132816,0.04071806312595335,0.07113248560736003,0.023569247261314607,0.02531323500152611,0.013590392982039276,0.023486564417393437,0.0404836263211857
0.2990769,0.10561104392615574,0.040680227706926426,0.07125398597811183,0.023397348556161445,0.025289920012502354,0.01351256802308959,0.023588867625355232,0.04032360174195223
0.2995962,0.10650465523216114,0.040641993011015266,0.07137680380601477,0.023226246587760013,0.025268968743755008,0.013436111517299208,0.02369192053355081,0.04016335026867101
0.3001154,0.10740800848040506,0.040603360012497404,0.07150096057433822,0.023055956536416813,0.02525040994332734,0.013361021237958402,0.02379571864015269,0.04000290235119271
0.3006346,0.1083210138458888,0.040564329653011946,0.07162647663308794,0.022886493400788164,0.02523427173900356,0.013287294742722045,0.02390025697102599,0.0398422884081848
0.3011538,0.10924357842545726,0.04052490283943863,0.07175337118496714,0.022717871995825475,0.025220581627327498,0.013214929377968341,0.024005530076772988,0.039681538817271746
0.3016731,0.1101756062365619,0.040485080441797064,0.07188166227195852,0.022550106950741795,0.025209366462805707,0.013143922283164739,0.024111532030047345,0.03952068390512943
0.3021923,0.11111699821690024,0.04044486329116675,0.07201136676253543,0.022383212707000714,0.02520065244729837,0.01307427039523829,0.024218256423140457,0.03935975393753827
0.3027115,0.11206765222494817,0.04040425217762878,0.07214250033950895,0.022217203516328807,0.02519446511960133,0.013005970452947647,0.024325696365842267,0.039198779109399305
0.3032308,0.11302746304140142,0.040363247848230206,0.0722750774885179,0.02205209343875262,0.025190829345222446,0.012939019001253984,0.024433844483578694,0.03903778953471843
0.30375,0.11399632237154164,0.040321851004972493,0.07240911148716764,0.021887896340661375,0.025189769306355282,0.01287341239568822,0.024542692915827738,0.038876815236564014
0.3042692,0.11497411884854225,0.040280062302825825,0.0725446143948233,0.021724625892896348,0.025191308492053158,0.012809146806711816,0.024652233314816065,0.03871588613700378
0.3047885,0.11596073803772909,0.040237882347771155,0.07268159704306278,0.021562295568868017,0.025195469688606413,0.012746218224068524,0.02476245684449787,0.038555032047027045
0.3053077,0.11695606244180992,0.0401953116948722,0.07282006902679342,0.0214009186427017,0.025202274970125838,0.012684622461124425,0.024873354179817606,0.038394282656458376
0.3058269,0.1179599715070861,0.040152350846379546,0.07296003869603677,0.021240508187412573,0.02521174568933507,0.012624355159193421,0.024984915506258053,0.038233667523868926
0.3063462,0.11897234163065953,0.04010900024986899,0.07310151314838442,0.021081077073110598,0.025223902468574883,0.012565411791845484,0.025097130519675204,0.03807321606649144
0.3068654,0.11999304616864694,0.04006526029641643,0.07324449822212795,0.020922637965235736,0.025238765191022274,0.012507787669194853,0.025209988426421248,0.037912957550144843
0.3073846,0.12102195544541305,0.04002113131881148,0.0733889984900655,0.020765203322823767,0.02525635299212732,0.012451477942165627,0.02532347794375695,0.037752921079174336
0.3079038,0.1220589367638333,0.03997661358981197,0.07353501725398692,0.02060878539680275,0.025276684251271005,0.012396477606732195,0.02543758730055444,0.037593135586412564
0.3084231,0.12310385441659574,0.03993170732044161,0.07368255653983934,0.02045339622832006,0.025299776583647175,0.012342781508132191,0.02555230423829147,0.03743362982316758
0.3089423,0.1241565696985514,0.039886412658332884,0.07383161709357466,0.02029904764709973,0.025325646832371974,0.012290384345049815,0.025667616012338017,0.03727443234924311
0.3094615,0.12521694092012076,0.03984072968611769,0.0739821983776802,0.020145751269829915,0.025354311060824166,0.012239280673767535,0.025783509393535898,0.037115571522996625
0.3099808,0.1262848234217634,0.039794658419867575,0.07413429856839325,0.01999351849858002,0.025385784545219763,0.012189464912284434,0.025899970670071982,0.03695707549144013
0.3105,0.12736006958951693,0.03974819880758587,0.07428791455360031,0.019842360519247076,0.025420081767424493,0.01214093134439953,0.026016985649645358,0.03679897218038891
0.3110192,0.12844252887160967,0.03970135072775345,0.07444304193142125,0.01969228830003102,0.025457216408007587,0.01209367412375853,0.0261345396619287,0.03664128928466257
0.3115385,0.12953204779615102,0.03965411398792982,0.07459967500947828,0.019543312589938477,0.025497201339540424,0.012047687277862528,0.026252617561323896,0.03648405425834285
0.3120577,0.13062846998990232,0.03960648832341083,0.07475780680484974,0.01939544391731488,0.025540048620143387,0.012002964712037135,0.026371203730011856,0.03632729430509227
0.3125769,0.13173163619813005,0.03955847339594408,0.07491742904470787,0.019248692588404826,0.02558576948728443,0.011959500213360562,0.026490282081296203,0.036171036368537475
0.3130962,0.1328413843055416,0.03951006879250284,0.07507853216764007,0.019103068685940795,0.025634374351832603,0.011917287454549128,0.026609836063240435,0.03601530712272113
0.3136154,0.13395754935830348,0.039461274024118906,0.07524110532565241,0.01895858206776041,0.025685872792369772,0.011876319997798767,0.026729848662598008,0.035860132962626044
0.3141346,0.1350799635871405,0.039412088524774784,0.07540513638685416,0.018815242365452692,0.02574027354976367,0.011836591298581023,0.026850302409034587,0.035705539994775326
0.3146538,0.13620845643151427,0.039362511650355356,0.07557061193882202,0.01867305898303382,0.025797584522005364,0.011798094709392156,0.02697117937964163,0.035551554027912345
0.3151731,0.13734285456487794,0.03931254267765925,0.0757375172926421,0.018532041095653158,0.025857812759314147,0.011760823483454084,0.027092461203740266,0.035398200563764394
0.3156923,0.13848298192100444,0.039262180803470104,0.07590583648762789,0.018392197648330368,0.025920964459512856,0.011724770778366027,0.027214129067974248,0.03524550478789379
0.3162115,0.13962865972138552,0.03921142514368832,0.07607555229671209,0.01825353735472455,0.025987044963676507,0.011689929659706062,0.027336163721690634,0.03509349156064033
0.3167308,0.14077970650369867,0.03916027473252403,0.07624664623250978,0.01811606869593655,0.02605605875205704,0.011656293104581978,0.027458545482606754,0.03494218540815903
0.31725,0.1419359381513405,0.03910872852175243,0.07641909855405013,0.017979799919345514,0.026128009440286745,0.011623854005131181,0.02758125424276172,0.03479161051355722
0.3177692,0.14309716792402558,0.03905678538003309,0.0765928882741736,0.017844739037480784,0.02620289977586281,0.011592605171969604,0.027704269474750673,0.03464179070813545
0.3182885,0.14426320648945096,0.0390044440922952,0.07676799316759113,0.01771089382693033,0.02628073163491522,0.011562539337589776,0.027827570238239865,0.03449274946273664
0.3188077,0.14543386195602798,0.0389517033591908,0.07694438977960132,0.017578271827286728,0.026361506019260062,0.011533649159708434,0.02795113518676058,0.03434450987920824
0.3193269,0.146608939906683,0.03889856179661887,0.07712205343546114,0.017446880340131612,0.026445223053740047,0.011505927224564087,0.028074942574779854,0.03419709468198264
0.3198462,0.14778824343372976,0.03884501793532264,0.07730095825040531,0.017316726428059537,0.02653188198385399,0.01147936605016507,0.028198970265045836,0.034050526209780746
0.3203654,0.14897157317481635,0.038791070220563086,0.07748107714030864,0.017187816913741893,0.026621481173676634,0.01145395808948874,0.028323195736205863,0.03390482640744431
0.3208846,0.15015872734994934,0.03873671701187139,0.07766238183298521,0.017060158379031673,0.02671401810407031,0.011429695733632362,0.02844759609069499,0.03376001681790245
0.3214038,0.15134950179959675,0.03868195658288297,0.07784484288011768,0.016933757164109716,0.02680948937118983,0.011406571314916313,0.028572148062892797,0.03361611857427766
0.3219231,0.15254369002387136,0.03862678712125533,0.07802842966980905,0.016808619366673116,0.026907890685281887,0.011384577109940163,0.02869682802754606,0.03347315239213695
0.3224423,0.1537410832227949,0.03857120672867209,0.07821311043974909,0.016684750841166458,0.02700921686978029,0.011363705342592097,0.028821612008454584,0.03333113856189332
0.3229615,0.15494147033764175,0.03851521342093507,0.07839885229098707,0.016562157198056697,0.027113461860698337,0.011343948187012079,0.028946475687417393,0.0331900969413628
0.3234808,0.15614463809336096,0.038458805128146104,0.07858562120230202,0.01644084380315241,0.027220618706319564,0.011325297770509044,0.029071394413436084,0.033050046948482
0.324,0.15735037104207367,0.038401979694980444,0.0787733820451613,0.01632081577696834,0.02733067956718805,0.011307746176432371,0.02919634321217211,0.03291100755419097
0.3245192,0.15855845160764243,0.03834473488105313,0.07896209859925829,0.016202077994136192,0.027443635716399496,0.011291285446997782,0.029321296795654362,0.03277299727548592
0.3250385,0.15976866013130864,0.03828706836137954,0.07915173356861953,0.016084635082862675,0.027559477540194145,0.011275907586067776,0.029446229572233425,0.03263603416864608
0.3255577,0.160980774918394,0.03822897772693133,0.07934224859827148,0.015968491424435915,0.027678194538852494,0.011261604561886667,0.029571115656778495,0.03250013582263905
0.3260769,0.16219457228606082,0.03817046048528877,0.07953360429145712,0.01585365115278133,0.027799775327894773,0.01124836830977029,0.02969592888111282,0.03236531935270853
0.3265962,0.16340982661212708,0.03811151406139028,0.07972576022739204,0.01574011815406813,0.027924207639585214,0.011236190734750427,0.029820642804683262,0.0322316013941486
0.3271154,0.1646263103849312,0.0380521357983801,0.0799186749795499,0.015627896066367684,0.02805147832474203,0.011225063714174033,0.029945230725459415,0.03209899809626826
0.3276346,0.16584379425424262,0.0379923229585547,0.08011230613446628,0.015516988279364957,0.02818157335485399,0.011214979100257384,0.0300696656910575,0.031967525116550384
0.3281538,0.16706204708321298,0.037932072724408954,0.0803066103110506,0.015407397934124292,0.028314477824504414,0.011205928722595423,0.030193920510084068,0.03183719761500878
0.3286731,0.16828083600136365,0.03787138219978269,0.08050154318039465,0.015299127922910747,0.028450175954103055,0.011197904390626595,0.030317967763694532,0.03170803024874718
0.3291923,0.16949992645860537,0.03781024841110872,0.08069705948606659,0.015192180889068192,0.028588651092926284,0.011190897896053566,0.03044177981736129,0.03158003716672397
0.3297115,0.17071908228028543,0.03774866830876313,0.0808931130648788,0.015086559226955247,0.02872988572246559,0.011184901015220279,0.03056532883284612,0.031453232004726134
0.3302308,0.1719380657232583,0.03768663876851885,0.0810896568681175,0.014982265081940081,0.028873861460084232,0.011179905511445702,0.03068858678037134,0.031327627880556215
0.33075,0.1731566375329754,0.0376241565931033,0.08128664298322215,0.014879300350454946,0.02902055906298177,0.011175903137314643,0.03081152545098404,0.031203237389435798
0.3312692,0.17437455700158933,0.03756121851386109,0.08148402265590156,0.014777666680111337,0.029169958432465837,0.011172885636925952,0.03093411646910759,0.031080072599628993
0.3317885,0.1755915820270677,0.03749782119252224,0.08168174631267373,0.014677365469876498,0.029322038618530336,0.011170844748098327,0.031056331305274337,0.030958145048289483
0.3323077,0.1768074691733113,0.03743396122307675,0.08187976358381556,0.014578397870312006,0.029476777824739054,0.011169772204533971,0.03117814128903324,0.030837465737534486
0.3328269,0.17802197373127018,0.03736963513375595,0.0820780233267079,0.014480764783875116,0.029634153413413494,0.01116965973794017,0.031299517622025874,0.030718045130748918
0.3333462,0.17923484978105075,0.037304839389120895,0.08227647364956121,0.014384466865283439,0.029794141911123492,0.011170499080108913,0.031420431391224,0.03059989314912303
0.3338654,0.1804458502550055,0.037239570392258114,0.08247506193550609,0.01428950452194354,0.029956719014479022,0.011172281964954595,0.031540853582321664,0.03048301916842657
0.3343846,0.1816547270017957,0.037173824487082625,0.08267373486703235,0.014195877914443926,0.030121859596221323,0.011175000130509772,0.031660755093274415,0.030367432016022513
0.3349038,0.18286123085141578,0.03710759796074813,0.08287243845076006,0.014103586957112781,0.03028953771161141,0.011178645320879022,0.0317801067479782,0.030253139968123087
0.3354231,0.18406511168116776,0.03704088704616401,0.08307111804252566,0.014012631318640788,0.0304597266051137,0.011183209288150848,0.031898879310079904,0.03014015074729089
0.3359423,0.18526611848257168,0.03697368792461856,0.08326971837276577,0.013923010422769227,0.03063239871737234,0.011188683794267703,0.03201704349691146,0.0300284715201876
0.3364615,0.18646399942919747,0.03690599672850769,0.08346818357218119,0.013834723449043494,0.03080752569247759,0.011195060612854182,0.03213456999353925,0.0299181088955727
0.3369808,0.1876585019454016,0.03683780954416809,0.08366645719766355,0.013747769333632105,0.030985078385519317,0.011202331531003529,0.03225142946692027,0.029809068922554458
0.3375,0.18884937277595198,0.03676912241481386,0.08386448225846689,0.01366214677021123,0.031165026870424477,0.011210488351022719,0.032367592580156174,0.02970135708909525
0.3380192,0.19003635805652144,0.03669993134357535,0.08406220124260662,0.013577854210914826,0.031347340448075106,0.01121952289213636,0.032483030006836396,0.029594978320773097
0.3385385,0.19121920338502996,0.036630232296639385,0.08425955614346826,0.01349488986735034,0.031531987654703136,0.011229426992149785,0.03259771244546108,0.029489936979800905
0.3390577,0.19239765389381402,0.03656002120648982,0.08445648848660844,0.013413251711680023,0.03171893627055821,0.011240192509071713,0.03271161063393441,0.029386236864304888
0.3395769,0.19357145432260067,0.03648929397524776,0.08465293935673088,0.013332937477767799,0.03190815332884422,0.011251811322696818,0.03282469536411863,0.029283881207863127
0.3400962,0.19474034909226345,0.036418046478110803,0.08484884942482021,0.01325394466239172,0.03209960512492021,0.011264275336148518,0.03293693749643879,0.02918287267930526
0.3406154,0.19590408237933843,0.03634627456689086,0.08504415897541724,0.013176270526521858,0.03229325722576102,0.011277576477382298,0.03304830797452797,0.029083213382773886
0.3411346,0.19706239819127833,0.036273974073649934,0.08523880793401921,0.013099912096663488,0.03248907447967275,0.011291706700649745,0.0331587778399027,0.02898490485804822
0.3416538,0.19821504044242444,0.03620114081443365,0.08543273589458908,0.013024866166265355,0.032687021026258,0.011306657987923506,0.033268318246657824,0.028887948081130325
0.3421731,0.19936175303067422,0.03612777059310196,0.08562588214715852,0.01295112929719272,0.03288706030662533,0.0113224223502833,0.03337690047616998,0.028792343465093927
0.3426923,0.2005022799148229,0.036053859205256486,0.08581818570550952,0.012878697821264808,0.03308915507383753,0.01133899182926311,0.03348449595179903,0.028698090861195954
0.3432115,0.20163636519255562,0.03597940244226404,0.08600958533492012,0.012807567841856164,0.033293267403592584,0.011356358498159805,0.03359107625357644,0.028605189560250443
0.3437308,0.2027637531790654,0.03590439609537549,0.08620001957996005,0.012737735235561393,0.03349935870513132,0.011374514463303398,0.03369661313286982,0.028513638294264593
0.34425,0.20388418848627068,0.03582883595993905,0.0863894267923226,0.0126691956539226,0.03370738973236551,0.011393451865289301,0.033801078527012744,0.028423435238336656
0.3447692,0.20499741610260463,0.03575271783970684,0.08657774515867875,0.01260194452521882,0.03391732059522016,0.011413162880172975,0.03390444457388924,0.028334578012815262
0.3452885,0.2061031814733477,0.03567603755123355,0.08676491272854073,0.012535977056316651,0.03412911077118362,0.01143363972062739,0.034006683626462454,0.028247063685719713
0.3458077,0.2072012305814746,0.03559879092836545,0.0869508674421218,0.012471288234581246,0.03434271911705926,0.011454874637063732,0.034107768267237284,0.028160888775420802
0.3463269,0.20829131002898524,0.03552097382681792,0.08713554715817953,0.012407872829846716,0.03455810388091212,0.011476859918715733,0.03420767132264694,0.028076049253581592
0.3468462,0.20937316711868884,0.03544258212883934,0.08731888968182967,0.012345725396444946,0.03477522271420384,0.011499587894688017,0.03430636587735358,0.02799254054835763
0.3473654,0.21044654993641065,0.03536361174795901,0.0875008327923186,0.01228484027529171,0.03499403268410907,0.011523050934968715,0.03440382528845349,0.027910357547855896
0.3478846,0.2115112074335893,0.03528405863381611,0.08768131427074137,0.012225211596028929,0.03521449028600644,0.01154724145140666,0.03450002319957717,0.027829494603851822
0.3484038,0.21256688951023311,0.03520391877706691,0.08786027192769325,0.012166833279221865,0.03543655145613715,0.01157215189865346,0.03459493355487478,0.027749945535763522
0.3489231,0.2136133470982027,0.03512318821436673,0.08803764363084216,0.012109699038609869,0.035660171584423944,0.011597774775070657,0.03468853061287761,0.027671703634882597
0.3494423,0.21465033224478766,0.035041863033423104,0.08821336733240967,0.012053802383409333,0.035885305527443435,0.011624102623602311,0.03478078896022612,0.027594761668860584
0.3499615,0.21567759819654408,0.03495993937811638,0.08838738109654778,0.011999136620667263,0.03611190762154437,0.01165112803261324,0.034871683525255145,0.027519111886450266
0.3504808,0.21669489948335938,0.0348774134536837,0.08855962312659875,0.011945694857663926,0.036339931696104374,0.011678843636693205,0.03496118959142711,0.027444746022500785
0.351,0.2177019920027116,0.03479428153196199,0.08873003179222463,0.011893470004362895,0.03656933108691782,0.011707242117427288,0.03504928281060391,0.0273716553032056
0.3515192,0.21869863310408846,0.03471053995668563,0.08889854565639314,0.01184245477590678,0.036800058649707396,0.011736316204132747,0.03513593921614814,0.027299830451602034
0.3520385,0.2196845816735319,0.03462618514883398,0.0890651035022059,0.011792641695156817,0.037032066773752335,0.011766058674562617,0.035221135235844414,0.027229261693320995
0.3525577,0.22065959821827238,0.03454121361202395,0.08922964435955455,0.011744023095274605,0.037265307395626245,0.01179646235557635,0.03530484770463149,0.027159938762585427
0.3530769,0.22162344495141695,0.03445562193794254,0.08939210753158983,0.011696591122344273,0.037499732013038196,0.01182752012377783,0.0353870538771359,0.02709185090845582
0.3535962,0.22257588587665333,0.034369406811814183,0.0895524326209877,0.011650337738033433,0.03773529169877088,0.011859224906121131,0.03546773143999784,0.027024986901320935
0.3541154,0.2235166868729317,0.03428256501789755,0.08971055955599636,0.011605254722291498,0.037971937114710023,0.011891569680484456,0.035546858523980096,0.02695933503963171
0.3546346,0.2244456157790827,0.03419509344500662,0.08986642861624689,0.011561333676083904,0.03820961852595982,0.011924547476212728,0.03562441371585068,0.02689488315687625
0.3551538,0.22536244247833068,0.034106989092050295,0.09001998045830985,0.01151856602416095,0.03844828581503915,0.01195815137462937,0.03570037607002984,0.026831618628793494
0.3556731,0.22626693898265762,0.03401824907358524,0.09017115614097966,0.011476943017859904,0.03868788849615399,0.011992374509517978,0.03577472511999201,0.026769528380822923
0.3561923,0.22715887951697417,0.033928870625376265,0.09031989715026817,0.011436455737939099,0.03892837572954139,0.012027210067574626,0.03584744088941299,0.026708598895787663
0.3567115,0.22803804060305075,0.033838851109958705,0.09046614542408865,0.011397095097442625,0.039169696335881084,0.012062651288831702,0.03591850390305263,0.026648816221808036
0.3572308,0.22890420114316345,0.03374818802219721,0.09060984337661113,0.011358851844594236,0.03941179881077058,0.012098691467054189,0.03598789519736298,0.02659016598044248
0.35775,0.22975714250340729,0.03365687899483526,0.09075093392227036,0.011321716565718946,0.039654631339260074,0.012135323950109312,0.03605559633081201,0.026532633375052704
