Time,Rectus Femoris right,Rectus Femoris left,Hamstrings right,Hamstrings left,TibilaisÂ Anterior right,TibilaisÂ Anterior left,Gastrocnemius right,Gastrocnemius left
0.0,-0.005817626398951883,-0.04955044511825332,0.046239588151068586,-0.021473296602872984,0.00514522333999394,0.010698363881816098,-0.0035154388322861632,0.018929935728074315
0.0004655,-0.00581244908615437,-0.047355735267312106,0.046521990692098864,-0.020445876552446316,0.005569628544193615,0.01166102850450689,-0.0033694049081351126,0.01928463351969383
0.000931,-0.005808001048127802,-0.04515744597028063,0.04680605476046723,-0.019420738734639353,0.005999214217240263,0.012626098552400584,-0.003222791504512171,0.019641157586649412
0.0013966,-0.0058042566702781765,-0.04295582384891702,0.047091737964764076,-0.01839801444092824,0.00643396846324032,0.013593460263520131,-0.003075603691858001,0.019999482997603294
0.0018621,-0.005801189391028581,-0.040751116410351264,0.04737899727008307,-0.0173778341143878,0.006873878275637544,0.014562999185271238,-0.0029278464862253083,0.02035958465162898
0.0023276,-0.0057987716962371256,-0.03854357198881577,0.04766778900721667,-0.016360327304255903,0.007318929531393513,0.015534600203645565,-0.002779524847292468,0.02072143728830016
0.0027931,-0.0057969751139081835,-0.036333439687477855,0.04795806888183976,-0.015345622620882035,0.007769106985386963,0.01650814757265566,-0.0026306436764593666,0.02108501549788181
0.0032586,-0.005795770209203608,-0.034120969320408735,0.048249791983647344,-0.01433384769108961,0.00822439426503326,0.01748352494398685,-0.0024812078150284102,0.021450293731617442
0.0037241,-0.0057951265797605445,-0.031906411354722206,0.04854291279541299,-0.013325129113980915,0.00868477386512539,0.018460615396851395,-0.0023312220424735915,0.02181724631210637
0.0041897,-0.005795012851322387,-0.029690016852915092,0.04883738520193716,-0.01231959241721313,0.009150227142897937,0.019439301468030207,-0.002180691074800466,0.022185847443765044
0.0046552,-0.0057953966736893495,-0.027472037415440534,0.049133162498856985,-0.011317362013773225,0.009620734313315624,0.020419465182087728,-0.0020296195629998406,0.022556071223366395
0.0051207,-0.005796244716995039,-0.025252725123544113,0.04943019740129303,-0.010318561159278943,0.010096274444588002,0.021400988081745682,-0.0018780120915979043,0.02292789165065104
0.0055862,-0.005797522668315338,-0.02303233248239184,0.04972844205231238,-0.009323311909832373,0.010576825453912024,0.02238375125840166,-0.0017258731773054546,0.023301282639004016
0.0060517,-0.0057991952286158095,-0.020811112364518124,0.050027848031191265,-0.008331735080451954,0.011062364103444293,0.023367635382778768,-0.0015732072677687706,0.023676218026190826
0.0065172,-0.005801226110043731,-0.018589317953620867,0.05032836636146363,-0.007343950204107836,0.011552865996504846,0.024352520735692787,-0.0014200187404245727,0.0240526715851462
0.0069828,-0.005803578033570731,-0.016367202688729744,0.050629947518745715,-0.006360075491384614,0.012048305574014422,0.025338287238923597,-0.0012663119014613717,0.024430617034809164
0.0074483,-0.005806212726991849,-0.01414502020877233,0.05093254143832946,-0.005380227790794439,0.012548656111167348,0.026324814486177867,-0.0011120909848893591,0.024810028050997673
0.0079138,-0.005809090923286689,-0.011923024297561315,0.0512360975225403,-0.0044045225497624085,0.013053889714342301,0.027311981774130422,-0.0009573601517208251,0.025190878277315955
0.0083793,-0.005812172359348092,-0.009701468829224026,0.051540564647856175,-0.003433073776304913,0.013563977318253364,0.028299668133532036,-0.000802123489262904,0.02557314133608763
0.0088448,-0.005815415775083569,-0.00748060771409341,0.05184589117178558,-0.0024659940014202897,0.014078888683343943,0.029287752360371608,-0.00064638501052425,0.025956790839307475
0.0093103,-0.0058187789128944685,-0.005260694845077075,0.05215202493950258,-0.001503394242209663,0.014598592393426207,0.03027611304708095,-0.0004901486537370285,0.02634180039960439
0.0097759,-0.005822218517537577,-0.003041984044518577,0.052458913290237275,-0.0005453839657443828,0.015123055853568849,0.03126462861377061,-0.0003334182819953808,0.026728143641208166
0.0102414,-0.005825690336373606,-0.0008247290115626361,0.05276650306342082,0.00040792894630510074,0.015652245288236118,0.032253177339485434,-0.00017619768301128087,0.02711579421091229
0.0107069,-0.0058291491200067,0.0013908167299661333,0.05307474060458474,0.001356438232265525,0.016186125739681322,0.03324163739346883,-1.8490568988459343e-05,0.02750472578902509
0.0111724,-0.0058325486233188825,0.0036043998831632182,0.053383571771015145,0.002300039284270146,0.016724661066598256,0.03422988686642524,0.00013969942338517996,0.027894912100301324
0.0116379,-0.005835841606903129,0.005815767429116502,0.05369294193716256,0.0032386291812699797,0.017267813943034033,0.035217803801770656,0.00029836873282646165,0.028286326924846412
0.0121034,-0.005838979838898523,0.008024666677445374,0.054002795999808936,0.004172106721236492,0.017815545857567013,0.03620526622686156,0.00045751387322719443,0.028678944108985336
0.012569,-0.005841914097230795,0.01023084531630174,0.054313078382994,0.005100372452545749,0.01836781711275356,0.03719215218419276,0.0006171314333060191,0.029072737576088442
0.0130345,-0.0058445941722613136,0.012434051461828402,0.054623733042703834,0.006023328704534463,0.018924586824847472,0.03817833976255478,0.0007772180761422619,0.02946768133734619
0.0135,-0.005846968869847455,0.014634033707070563,0.054934703471326424,0.00694087961721885,0.01948581292379591,0.03916370712814132,0.0009377705385923555,0.029863749502485097
0.0139655,-0.005848986014817047,0.01683054117033663,0.05524593270187982,0.007852931170167861,0.02005145215351579,0.04014813255559717,0.001098785630589512,0.030260916290416932
0.014431,-0.005850592454859499,0.019023323543004764,0.055557363312021005,0.008759391210522985,0.020621460072454675,0.04113149445899692,0.0012602602343274284,0.03065915603981324
0.0148966,-0.005851734064836067,0.021212131136772155,0.05586893742784498,0.00966016948015731,0.021195791054440256,0.04211367142274451,0.0014221913033288873,0.031058443219597148
0.0153621,-0.0058523557515116394,0.02339671493034414,0.05618059672748546,0.01055517764196694,0.021774398289822687,0.04309454223238379,0.0015845758614001667,0.03145875243934445
0.0158276,-0.005852401458710329,0.025576826615560523,0.056492282444529376,0.011444329305287973,0.02235723378691414,0.044073985905310656,0.0017474110014722136,0.03186005845958591
0.0162931,-0.0058518141728971075,0.02775221864295666,0.056803935371258156,0.012327540050432304,0.022944248373730134,0.04505188172137758,0.0019106938843295627,0.032262336202002785
0.0167586,-0.005850535929187591,0.029922644266757132,0.057115495861729225,0.013204727452335507,0.023535391700037146,0.04602810925338189,0.0020744217372280034,0.03266556075950768
0.0172241,-0.005848507817788047,0.03208785758930005,0.057426903834711954,0.014075811103310059,0.02413061223971114,0.04700254839742937,0.002238591852402038,0.0330697074062027
0.0176897,-0.005845669990867584,0.034247613604890245,0.057738098776492656,0.014940712634897154,0.024729857293411636,0.047975079403165054,0.002403201585463236,0.03347475160720711
0.0181552,-0.005841961669864426,0.03640166824308006,0.05804901974356343,0.015799355738810417,0.025333072991575837,0.04894558290386295,0.0025682483536906674,0.033880669028346584
0.0186207,-0.00583732115322805,0.03854977841137703,0.05835960536521018,0.016651666186964797,0.025940204297737263,0.04991393994636625,0.0027337296342147105,0.03428743554569627
0.0190862,-0.005831685824598939,0.04069170203737868,0.05866979384601522,0.01749757185058389,0.026551195012173366,0.05088003202086961,0.0028996429620956276,0.034695027254969694
0.0195517,-0.005824992161427584,0.04282719811033589,0.0589795229682906,0.018337002718378886,0.02716598777588636,0.051843741090534995,0.0030659859282984557,0.035103420480745766
0.0200172,-0.005817175744034324,0.04495602672214729,0.05928873009445882,0.019169890913792325,0.027784524074921307,0.05280494962093187,0.0032327561775658707,0.03551259178552597
0.0204828,-0.005808171265111488,0.047077949107788064,0.05959735216939746,0.01999617071130001,0.028406744245025296,0.05376354060929253,0.0033999514061908366,0.03592251797861398
0.0209483,-0.005797912539669282,0.04919272768517723,0.05990532572276442,0.020815778551764426,0.029032587476651495,0.054719397613573084,0.003567569359690984,0.036333176124809824
0.0214138,-0.005786332515426752,0.05130012609448746,0.060212586871320556,0.02162865305683328,0.02966199182031145,0.055672404781310324,0.0037356078303867972,0.0367445435529106
0.0218793,-0.00577336328364913,0.05339990923690159,0.06051907132126596,0.02243473504237672,0.03029489419227902,0.05662244687826513,0.003904064654885828,0.03715659786400975
0.0223448,-0.0057589360904327334,0.055491843312820296,0.06082471437060646,0.023233967530956905,0.03093123038064892,0.05756940931684402,0.004072937711475275,0.037569316939586594
0.0228103,-0.005742981348438531,0.057575695859525204,0.06112945091156679,0.024026295763323484,0.031570935051752874,0.05851317818429138,0.004242224917425392,0.03798267894937754
0.0232759,-0.005725428649075313,0.05965123578830215,0.061433215433067186,0.02481166720892851,0.03221394175693601,0.059453640270646216,0.00441192422620631,0.038396662359020436
0.0237414,-0.005706206775133271,0.061718233421029875,0.06173594202328025,0.02559003157545445,0.032860182939695996,0.06039068309645819,0.0045820336246209506,0.038811245937463164
0.0242069,-0.00568524371386862,0.06377646052623981,0.06203756437228514,0.026361340817349345,0.03350958994318734,0.06132419494025828,0.00475255112985681,0.039226408764127536
0.0246724,-0.0056624666705397345,0.06582569035465306,0.062338015774835866,0.027125549143363736,0.034162093018092955,0.06225406486577928,0.0049234747864595136,0.03964213023581942
0.0251379,-0.005637802082395099,0.06786569767420089,0.06263722913326046,0.027882613023084802,0.034817621330865106,0.06318018274892122,0.005094802663231084,0.04005839007337571
0.0256034,-0.0056111756331131794,0.06989625880453512,0.0629351369605073,0.028632491192463794,0.035476102972337754,0.06410243930445622,0.005266532850055969,0.040475168328039005
0.026069,-0.005582512267694159,0.07191715165103438,0.06323167138335471,0.02937514465833373,0.03613746496671225,0.06502072611246698,0.005438663454657906,0.040892445387550366
0.0265345,-0.005551736207803278,0.0739281557383121,0.06352676414579977,0.0301105367019147,0.03680163328091833,0.06593493564451264,0.005611192599290728,0.041310201981951136
0.027,-0.00551877096756523,0.07592905224323147,0.06382034661264181,0.0308386328813046,0.037468532834352336,0.06684496128951527,0.005784118417366261,0.04172841918908483
0.0274655,-0.005483539369808823,0.07791962402743216,0.06411234977327591,0.03155940103295359,0.038138087508994646,0.0677506973793602,0.005957439050022431,0.04214707843979049
0.027931,-0.005445963562760782,0.07989965566937333,0.06440270424571116,0.03227281127212164,0.03881022015990837,0.06865203921420315,0.006131152642634718,0.042566161522779124
0.0283966,-0.0054059650371872485,0.0818689334958969,0.06469134028082812,0.03297883599231985,0.039484852626121364,0.06954888308747786,0.006305257341274041,0.04298565058918501
0.0288621,-0.005363464643981177,0.08382724561331432,0.06497818776688935,0.03367744986373762,0.04016190574189366,0.07044112631059792,0.006479751289114146,0.043405528156784064
0.0293276,-0.0053183826121934695,0.08577438193802053,0.06526317623431625,0.03436862983065958,0.040841299348372204,0.07132866723734752,0.006654632622791556,0.04382577711387117
0.0297931,-0.005270638567505389,0.08771013422663744,0.0655462348607453,0.03505235510787731,0.04152295230563453,0.07221140528795637,0.006829899468721116,0.04424638072278839
0.0302586,-0.0052201515511395005,0.08963429610569021,0.06582729247637607,0.03572860717610228,0.04220678250512293,0.07308924097285392,0.007005549939370201,0.04466732262309604
0.0307241,-0.00516684003920616,0.09154666310081887,0.06610627756962299,0.0363973697763873,0.04289270688246984,0.07396207591609898,0.007181582129494662,0.04508858683437815
0.0311897,-0.005110621962482346,0.09344703266552838,0.06638311829308231,0.03705862890356444,0.043580641430715474,0.07482981287848081,0.007357994112339629,0.045510157758674084
0.0316552,-0.0050514147266193955,0.09533520420948008,0.06665774246982546,0.03771237279870812,0.04427050121391772,0.07569235578028803,0.007534783935808334,0.04593202018252836
0.0321207,-0.004989135232776041,0.09721097912632738,0.066930077600029,0.03835859194063243,0.04496220038115456,0.07654960972374167,0.007711949618602118,0.046354159278651684
0.0325862,-0.004923699898672974,0.09907416082109932,0.06720005086795133,0.03899727903643257,0.045655652180918264,0.07740148101508888,0.007889489146334897,0.046776560607187406
0.0330517,-0.00485502468006502,0.10092455473713648,0.06746758914926544,0.039628429011080483,0.04635076897590092,0.0782478771863541,0.008067400467625298,0.047199210116578925
0.0335172,-0.004783025092626874,0.10276196838258475,0.06773261901875667,0.040252038996085565,0.0470474622581699,0.07908870701674434,0.008245681490169797,0.047622094144034864
0.0339828,-0.004707616234248229,0.10458621135645423,0.06799506675839408,0.040868108317231665,0.04774564266473191,0.07992388055370543,0.008424330076800112,0.048045199415589136
0.0344483,-0.00462871280773398,0.10639709537425131,0.06825485836578321,0.04147663848140198,0.04844521999348347,0.08075330913362651,0.00860334404152821,0.048468513045753586
0.0349138,-0.004546229143904954,0.10819443429319282,0.06851191956300808,0.042077633162503646,0.04914610321954564,0.08157690540218983,0.0087827211455822,0.04889202253676044
0.0353793,-0.004460079225094407,0.10997804413701147,0.06876617580586973,0.04267109818650407,0.0498482005119803,0.08239458333436339,0.00896245909343642,0.049315715777391904
0.0358448,-0.004370176709035218,0.11174774312036147,0.06901755229352804,0.04325704151559071,0.05055141925088468,0.08320625825403392,0.00914255552883903,0.04973958104139416
0.0363103,-0.0042764349531323725,0.11350335167283296,0.06926597397855305,0.04383547323146613,0.051255666044860884,0.08401184685327731,0.009323008030840296,0.05016360698547287
0.0367759,-0.0041787670391150045,0.1152446924625837,0.06951136557739182,0.04440640551778994,0.05196084674885644,0.08481126721126335,0.009503814109824852,0.050587782646867856
0.0372414,-0.004077085798061871,0.11697159041959608,0.06975365158125627,0.04496985264177921,0.05266686648237172,0.08560443881279159,0.009684971203551041,0.051012097440504806
0.0377069,-0.003971303835793766,0.1186838727585682,0.06999275626743715,0.0455258309349786,0.053373629648029594,0.08639128256645458,0.009866476673200486,0.051436541155722416
0.0381724,-0.0038613335586260293,0.1203813690014476,0.07022860371104912,0.04607435877321144,0.05408103995050239,0.08717172082242444,0.010048327799440917,0.05186110395257368
0.0386379,-0.0037470871994739643,0.12206391099961611,0.0704611177972117,0.04661545655572284,0.054789000415790746,0.08794567738985887,0.010230521778505274,0.052285776357700195
0.0391034,-0.0036284768443036654,0.1237313329557348,0.07069022223367066,0.0471491466835259,0.05549741341084873,0.08871307755392181,0.010413055718289968,0.052710549259778396
0.039569,-0.0035054144589205176,0.12538347144525658,0.07091584056386466,0.047675453536962294,0.056206180663549064,0.08947384809241388,0.010595926634475152,0.0531354139045364
0.0400345,-0.0033778119160873745,0.12702016543761527,0.07113789618044122,0.048194403452489425,0.056915203282982094,0.09022791729200719,0.010779131446669735,0.05356036188934003
0.0405,-0.0032455810229642446,0.12864125631709872,0.07135631233922685,0.04870602469870689,0.057624381780081724,0.09097521496407893,0.010962666974583844,0.05398538515734649
0.0409655,-0.003108633548861167,0.13024658790341492,0.07157101217365494,0.049210347451636355,0.05833361608857122,0.09171567246013716,0.01114652993423131,0.05441047599122446
0.041431,-0.002966881253295832,0.13183600647195992,0.07178191870965576,0.04970740376926972,0.05904280558622128,0.09244922268683285,0.01133071693416472,0.05483562700643992
0.0418966,-0.0028202359143474306,0.1334093607737966,0.07198895488101224,0.05019722756540141,0.0597518491164126,0.09317580012055121,0.011515224471745546,0.055260831144107
0.0423621,-0.002668609357298146,0.13496650205535357,0.07219204354518523,0.05067985458276145,0.06046064500999458,0.09389534082157613,0.011700048929451692,0.055686081663403816
0.0428276,-0.002511913483553642,0.13650728407785362,0.0723911074996115,0.05115532236546679,0.06116909110743151,0.09460778244782168,0.011885186571224865,0.056111372133552904
0.0432931,-0.002350060299833852,0.1380315631364798,0.07258606949847776,0.05162367023080862,0.06187708478122726,0.09531306426812466,0.012070633538859989,0.05653669642536645
0.0437586,-0.0021829619476253096,0.1395391980792877,0.07277685226997349,0.05208493924039396,0.06258452295861924,0.09601112717509232,0.012256385848438857,0.05696204870235662
0.0442241,-0.002010530732886229,0.14103005032587113,0.07296337853402518,0.052539172170660065,0.06329130214453231,0.0967019136974989,0.012442439386810115,0.057387423411412265
0.0446897,-0.0018326791559954887,0.1425039838857874,0.07314557102051436,0.052986413482780256,0.06399731844478293,0.09738536801222443,0.012628789908117577,0.057812815273044306
0.0451552,-0.0016493199419366396,0.14396086537674757,0.07332335248798154,0.053426709291979554,0.06470246758952386,0.09806143595572804,0.01281543303037877,0.05823821927120405
0.0456207,-0.001460366070708002,0.14540056404257587,0.07349664574281833,0.05386010733627847,0.06540664495691903,0.09873006503504844,0.013002364232115475,0.05866363064267987
0.0460862,-0.0012657308079498755,0.146822951770941,0.07366537365894939,0.05428665694468275,0.06610974559703807,0.09939120443832307,0.013189578849038094,0.059089044866079354
0.0465517,-0.0010653277357798234,0.14822790311086118,0.07382945919800593,0.05470640900483665,0.0668116642559597,0.10004480504481832,0.013377072070785466,0.05951445765040546
0.0470172,-0.0008590707838269407,0.14961529528998269,0.07398882542999241,0.05511941593015716,0.06751229540007292,0.1006908194344633,0.013564838937721792,0.059939864923236066
0.0474828,-0.000646874260455942,0.1509850082316321,0.07414339555444752,0.05552573162646653,0.06821153324056481,0.10132920189687955,0.01375287433779226,0.06036526281851736
0.0479483,-0.0004286528841718394,0.15233692457163947,0.07429309292210087,0.055925411458140666,0.06890927175808396,0.10195990843989967,0.013941173003438998,0.060790647663981415
0.0484138,-0.0002043218151958922,0.15367092967492976,0.07443784105702629,0.05631851221379117,0.06960540472756907,0.10258289679756774,0.014129729508578945,0.06121601596819873
0.0488793,2.6203312796558586e-05,0.15498691165187903,0.07457756367929211,0.056705092071499784,0.07029982574323278,0.1031981264376151,0.014318538265645253,0.06164136440727669
0.0493448,0.0002630063607858269,0.15628476137443054,0.07471218472810887,0.05708521056362397,0.07099242824369136,0.10380555856840575,0.014507593522693879,0.062066689811215284
0.0498103,0.0005061706523746915,0.15756437249196664,0.07484162838547434,0.057458928541193395,0.07168310553723077,0.10440515614534601,0.014696889360576995,0.06249198914993199
0.0502759,0.0007557789416218317,0.1588256414469322,0.07496581910031513,0.05782630813791713,0.07237175082720065,0.104996883876754,0.0148864196901848,0.06291725951896852
0.0507414,0.0010119133807515045,0.1600684674902055,0.07508468161312391,0.058187412733821595,0.07305825723752785,0.10558070822918522,0.015076178249757315,0.06334249812489325
0.0512069,0.0012746554877491642,0.16129275269621363,0.07519814098109051,0.05854230691853975,0.073742517838342,0.10615659743221204,0.015266158602267677,0.0637677022704137
0.0516724,0.0015440861138528504,0.16249840197778986,0.07530612260372467,0.0588910564542717,0.07442442567170632,0.10672452148265534,0.015456354132878351,0.06419286933921474
0.0521379,0.0018202854109503177,0.16368532310077055,0.07540855224896754,0.05923372823843737,0.07510387377744701,0.10728445214826737,0.01564675804647157,0.06461799678053816
0.0526034,0.0021033327988920552,0.16485342669832842,0.07550535607978874,0.05957039026604156,0.07578075521907447,0.10783636297086541,0.015837363365255278,0.0650430820935205
0.053069,0.0023933069327305412,0.1660026262850387,0.07559646068126523,0.059901111591771854,0.07645496310978922,0.10838022926891511,0.016028162926445717,0.06546812281130608
0.0535345,0.0026902856698962294,0.16713283827067368,0.07568179308813763,0.06022596229184958,0.07712639063856513,0.10891602813956257,0.0162191493800278,0.06589311648495236
0.054,0.0029943460373209425,0.16824398197372023,0.07576128081283909,0.06054501342565393,0.07779493109630212,0.10944373846011374,0.016410315186594335,0.06631806066714502
0.0544655,0.0033055641985194565,0.1693359796346143,0.07583485187399151,0.060858336997139294,0.07846047790203978,0.10996334088896001,0.016601652615265333,0.06674295289574006
0.054931,0.003624015420640187,0.17040875642868605,0.07590243482536319,0.06116600591606632,0.07912292462922328,0.11047481786594834,0.016793153741688546,0.06716779067715012
0.0553966,0.003949774041495937,0.17146224047880917,0.07596395878528156,0.06146809395906754,0.07978216503201199,0.11097815361219397,0.01698481044612257,0.06759257146959234
0.0558621,0.00428291343658573,0.17249636286774858,0.07601935346649447,0.06176467573056854,0.08043809307162092,0.1114733341293335,0.0171766144116039,0.06801729266621567
0.0563276,0.004623505986118756,0.1735110576502012,0.07606854920647198,0.06205582662358606,0.08109060294268491,0.1119603471982156,0.017368557122199434,0.06844195157812502
0.0567931,0.004971623042051453,0.17450626186452511,0.0761114769981412,0.06234162278042413,0.08173958909963473,0.1124391823770255,0.01756062986134596,0.06886654541732039
0.0572586,0.005327334895148741,0.17548191554415282,0.07614806852104555,0.06262214105328939,0.08238494628307398,0.11290983099883985,0.01775282371027831,0.06929107127956867
0.0577241,0.005690710742080378,0.17643796172868387,0.07617825617291937,0.06289745896484601,0.08302656954614507,0.1133722861686091,0.017945129546547835,0.06971552612722579
0.0581897,0.006061818652563402,0.17737434647465147,0.07620197310166858,0.06316765466873031,0.08366435428087203,0.11382654275956597,0.01813753804263304,0.07013990677202657
0.0586552,0.006440725536561613,0.17829101886595713,0.07621915323774721,0.06343280691004509,0.08429819624446774,0.11427259740905903,0.01833003966464416,0.07056420985785947
0.0591207,0.006827497111553104,0.17918793102396613,0.07622973132691958,0.06369299498585257,0.08492799158559222,0.11471044851381268,0.018522624671123606,0.07098843184354287
0.0595862,0.007222197869876851,0.1800650381172578,0.07623364296339723,0.06394829870568476,0.08555363687054883,0.11514009622461471,0.018715283111944203,0.07141256898561928
0.0600517,0.007624891046169495,0.18092229837102394,0.07623082462333913,0.06419879835208946,0.08617502910940573,0.11556154244043411,0.018908004827307087,0.0718366173211836
0.0605172,0.00803563858490353,0.18175967307611107,0.07622121369870379,0.06444457464122992,0.08679206578203048,0.11597479080197287,0.01910077944684133,0.07226057265076169
0.0609828,0.008454501108038233,0.18257712659770256,0.07620474853144088,0.06468570868355533,0.08740464486402635,0.11637984668465562,0.019293596388807212,0.0726844305212552
0.0614483,0.008881537882794884,0.18337462638363855,0.07618136844801036,0.06492228194455944,0.08801266485256005,0.1167767171910601,0.019486444859405108,0.0731081862089685
0.0619138,0.009316806789567929,0.1841521429723714,0.07615101379421618,0.06515437620564393,0.08861602479207123,0.11716541114279196,0.019679313852191876,0.0735318347027334
0.0623793,0.00976036428998394,0.1849096500005566,0.07611362597034192,0.06538207352510332,0.08921462429985394,0.11754593907180574,0.019872192147606528,0.07395537068714707
0.0628448,0.01021226539512041,0.18564712421027765,0.07606914746657499,0.0656054561992477,0.08980836359150089,0.11791831321117484,0.02006506831260693,0.07437878852593789
0.0633103,0.010672563633896494,0.18636454545590292,0.07601752189870607,0.06582460672367964,0.09039714350620086,0.1182825474853118,0.020257930700419126,0.07480208224547423
0.0637759,0.011141311021647967,0.18706189671057127,0.07595869404409032,0.0660396077547415,0.09098086553188023,0.11863865749964018,0.020450767450400874,0.07522524551843059
0.0642414,0.011618558028898678,0.18773916407230237,0.07589260987785669,0.06625054207114876,0.09155943183018055,0.11898666052971846,0.020643566488020924,0.07564827164762566
0.0647069,0.012104353550340882,0.18839633676972578,0.07581921660935151,0.06645749253582517,0.09213274526126594,0.1193265755098165,0.02083631552495582,0.07607115355004695
0.0651724,0.012598744874036812,0.1890334071674227,0.07573846271880236,0.06666054205795514,0.09270070940845739,0.11965842302094333,0.021029002059305926,0.07649388374107617
0.0656379,0.013101777650853826,0.1896503707708719,0.07565029799418822,0.06685977355526854,0.0932632286026936,0.11998222527832463,0.021221613375932737,0.07691645431892954
0.0661034,0.013613495864145415,0.19024722623099052,0.07555467356830181,0.06705526991657322,0.09382020794682155,0.12029800611832772,0.021414136546919482,0.07733885694932677
0.066569,0.014133941799690297,0.1908239753482598,0.07545154195598971,0.06724711396455069,0.09437155333972087,0.1206057909848312,0.021606558432157343,0.07776108285040172
0.0670345,0.014663156015901778,0.1913806230764241,0.07534085709155584,0.06743538841883019,0.09491717150026781,0.12090560691503495,0.021798865680059537,0.0781831227778678
0.0675,0.015201177314319496,0.19191717752575047,0.0752225743663134,0.06762017585935666,0.0954569699911442,0.12119748252470662,0.02199104472840552,0.0786049670104508
0.0679655,0.0157480427103957,0.1924336499658356,0.0750966506662704,0.06780155869006758,0.09599085724249784,0.12148144799285981,0.022183081805317535,0.07902660533560205
0.068431,0.016303787404588203,0.1929300548279449,0.07496304440993316,0.06797961910289368,0.09651874257545981,0.12175753504585946,0.02237496293037166,0.07944802703550516
0.0688966,0.016868444753772076,0.19340640970686876,0.07482171558621181,0.06815443904209788,0.09704053622552437,0.12202577694094988,0.022566673915845485,0.07986922087339011
0.0693621,0.017442046242982262,0.19386273536228055,0.07467262579241188,0.06832610016896666,0.09755614936579637,0.12228620844920131,0.022758200368104553,0.08029017508016796
0.0698276,0.01802462145749916,0.19429905571958192,0.07451573827229499,0.06849468382686755,0.09806549413011073,0.1225388658378712,0.022949527689129817,0.08071087734139978
0.0702931,0.018616198055289256,0.19471539787021955,0.0743510179541913,0.06866027100668602,0.09856848363602781,0.12278378685217785,0.023140641078188202,0.08113131478461287
0.0707586,0.019216801739812845,0.19511179207145746,0.07417843148914573,0.0688229423126546,0.0990650320077088,0.12302101069648375,0.023331525533648402,0.08155147396697687
0.0712241,0.019826456233210853,0.19548827174558783,0.07399794728907955,0.06898277792858659,0.09955505439867465,0.12325057801488701,0.023522165854943926,0.0819713408633519
0.0716897,0.02044518324988275,0.19584487347856347,0.0738095355649481,0.06913985758452659,0.10003846701445249,0.12347253087121901,0.023712546644685285,0.08239090085472077
0.0721552,0.02107300247046762,0.19618163701803226,0.07361316836487537,0.06929426052382931,0.1005151871351134,0.12368691272844663,0.023902652310923055,0.08281013871701705
0.0726207,0.021709931516240486,0.1964986052707559,0.07340881961224505,0.06944606547067783,0.10098513313770582,0.12389376842747739,0.024092467069563493,0.08322903861036034
0.0730862,0.022355985923936023,0.19679582429939416,0.07319646514372795,0.06959535059805184,0.10144822451858847,0.12409314416536596,0.024281974946938137,0.08364758406871066
0.0735517,0.023011179121012033,0.19707334331863632,0.0729760827472251,0.06974219349615625,0.10190438191566707,0.12428508747292105,0.02447115978252886,0.08406575798995301
0.0740172,0.023675522401365157,0.1973312146906639,0.07274765219970558,0.06988667114132012,0.10235352713053947,0.12446964719171184,0.02466000523184968,0.08448354262642285
0.0744828,0.024349024901511487,0.19756949391992862,0.07251115530491806,0.07002885986537616,0.10279558315055266,0.12464687345047326,0.02484849476948665,0.08490091957588275
0.0749483,0.0250316935772448,0.19778823964723172,0.07226657593095505,0.07016883532553059,0.10323047417077609,0.12481681764091095,0.02503661169229697,0.08531786977296048
0.0754138,0.025723533180785383,0.1979875136430911,0.07201390004764888,0.07030667247473377,0.10365812561589421,0.1249795323929079,0.02522433912276844,0.08573437348105799
0.0758793,0.026424546238432413,0.19816738080038235,0.07175311576377837,0.07044244553256171,0.10407846416202152,0.12513507154913775,0.025411660012540183,0.08615041028474116
0.0763448,0.027134733028732982,0.19832790912623924,0.07148421336406527,0.0705762279566181,0.10449141775844271,0.12528349013909176,0.02559855714608549,0.08656595908262006
0.0768103,0.02785409156118098,0.1984691697331988,0.07120718534593938,0.07070809241446657,0.10489691564927994,0.12542484435252987,0.025785013144557455,0.0869809980807292
0.0772759,0.028582617555459208,0.19859123682957328,0.0709220264560514,0.07083811075610238,0.10529488839508888,0.12555919151236858,0.025971010469797946,0.08739550478641707
0.0777414,0.029320304421238046,0.1986941877090321,0.07062873372651203,0.07096635398697212,0.10568526789438482,0.12568659004702162,0.02615653142851018,0.08780945600275405
0.0782069,0.0300671432385442,0.19877810273937557,0.07032730651083562,0.07109289224155023,0.10606798740509923,0.12580709946221286,0.026341558176595205,0.08822282782346744
0.0786724,0.030823122738713023,0.1988430653504829,0.07001774651956656,0.07121779475748072,0.10644298156596664,0.12592078031228293,0.026526072723652257,0.08863559562841122
0.0791379,0.031588229285937894,0.1988891620214182,0.06970005785556556,0.07134112985029242,0.10681018641784107,0.12602769417101403,0.026710056937642886,0.08904773407957862
0.0796034,0.03236244685943008,0.1989164822666794,0.06937424704893332,0.07146296488869584,0.10716953942494131,0.1261279036019985,0.026893492549718657,0.08945921711766396
0.080069,0.03314575703620245,0.19892511862157647,0.06904032309154871,0.07158336627046932,0.10752097949602339,0.12622147212857782,0.027076361159212182,0.08987001795918023
0.0805345,0.03393813897449029,0.19891516662672498,0.06869829747119865,0.07170239939894232,0.10786444700547873,0.12630846420337946,0.02725864423879109,0.09028010909413883
0.081,0.034739569397822384,0.19888672481164213,0.06834818420527672,0.07182012866008292,0.1081998838143561,0.12638894517747845,0.027440323139774625,0.09068946228429643
0.0814655,0.03555002257975504,0.1988398946774315,0.0679899998740281,0.07193661740019681,0.10852723329130547,0.12646298126921182,0.027621379097612406,0.09109804856197387
0.081931,0.03636947032928182,0.19877478067854368,0.0676237636533183,0.07205192790424499,0.10884644033344111,0.12653063953267266,0.027801793237524925,0.0915058382294511
0.0823966,0.037197881976931337,0.19869149020359986,0.06724949734690351,0.07216612137478624,0.10915745138712132,0.12659198782591066,0.027981546580305293,0.09191280085894135
0.0828621,0.03803522436156554,0.19859013355526509,0.06686722541818044,0.07227925791155153,0.10946021446864095,0.1266470947788654,0.028160620048281633,0.09231890529314724
0.0833276,0.03888146181789057,0.19847082392915905,0.06647697502139427,0.07239139649165605,0.1097546791848322,0.12669602976105696,0.02833899447143946,0.09272411964640073
0.0837931,0.03973655616469231,0.19833367739179228,0.06607877603228321,0.07250259495045525,0.11004079675356888,0.1267388628490585,0.02851665059370333,0.09312841130638864
0.0842586,0.040600466693808776,0.19817881285751854,0.06567266107813916,0.07261290996305036,0.11031852002416864,0.12677566479377395,0.028693569079376837,0.09353174693646424
0.0847241,0.041473150159851334,0.19800635206449535,0.06525866556726417,0.07272239702644907,0.11058780349768788,0.12680650698754328,0.02886973051973986,0.09393409247854534
0.0851897,0.04235456077068703,0.19781641954964702,0.064836827717803,0.07283111044238669,0.11084860334710318,0.1268314614310979,0.029045115439801882,0.09433541315659831
0.0856552,0.04324465017869436,0.1976091426226256,0.06440718858593254,0.07293910330081294,0.11110087743737315,0.1268506007003876,0.029219704305209964,0.09473567348070715
0.0861207,0.04414336747280483,0.19738465133876582,0.06396979209338993,0.0730464274640491,0.11134458534537395,0.12686399791329991,0.029393477529309747,0.09513483725172606
0.0865862,0.04505065917134266,0.19714307847102994,0.0635246850543208,0.07315313355161981,0.11157968837970127,0.12687172669629404,0.029566415480357846,0.09553286756651348
0.0870517,0.045966469215675244,0.19688455948094236,0.06307191720142982,0.07325927092576363,0.11180614960033067,0.12687386115096946,0.02973849848888382,0.09592972682374509
0.0875172,0.046890738964686714,0.19660923248851414,0.0626115412114158,0.07336488767762567,0.11202393383812799,0.1268704758205908,0.029909706855199975,0.09632537673030285
0.0879828,0.047823407190087174,0.19631723824116198,0.062143612729673024,0.07347003061413519,0.11223300771420086,0.12686164565658967,0.03008002085705718,0.09671977830823673
0.0884483,0.04876441007256982,0.1960087200816276,0.06166819039424114,0.07357474524557067,0.1124333396590819,0.12684744598506512,0.030249420757444797,0.09711289190229515
0.0889138,0.04971368119882838,0.19568382391490688,0.061185335858985584,0.07367907577381427,0.11262489993173408,0.1268279524733042,0.030417886812532633,0.09750467718801976
0.0893793,0.05067115155944681,0.19534269817420025,0.06069511381599201,0.07378306508129756,0.11280766063836907,0.12680324109634483,0.030585399279752824,0.09789509318039956
0.0898448,0.051636749547673125,0.1949854937858979,0.06019759201715882,0.07388675472063998,0.11298159575106935,0.1267733881036031,0.030751938426019212,0.0982840982430783
0.0903103,0.052610400959089115,0.19461236413361677,0.05969284129497428,0.0739901849049812,0.11314668112620574,0.1267384699855878,0.03091748453608182,0.098671650098109
0.0907759,0.053592028992187256,0.19422346502130952,0.059180935582466426,0.074093394499008,0.11330289452264143,0.12669856344072436,0.031082017921013963,0.09905770583624833
0.0912414,0.05458155424986593,0.1938189546354684,0.05866195193231623,0.07419642101067575,0.11345021561971401,0.12665374534231133,0.031245518926829377,0.0994422219277823
0.0917069,0.055578894741853735,0.19339899350645032,0.0581359705351264,0.0742993005836244,0.11358862603498633,0.1266040927056308,0.03140796794322672,0.09982515423387563
0.0921724,0.05658396588807345,0.1929637444689529,0.05760307473683996,0.07440206799028802,0.11371810934175713,0.12654968265523514,0.03156934541245863,0.10020645801843471
0.0926379,0.05759668052295573,0.19251337262167115,0.05706335105530413,0.07450475662569675,0.11383865108632131,0.12649059239243157,0.031729631838322406,0.10058608796047477
0.0931034,0.05861694890071263,0.19204804528616748,0.056516889195975986,0.07460739850196928,0.11395023880496946,0.12642689916298588,0.03188880779526918,0.10096399816697985
0.093569,0.05964467870158015,0.19156793196498595,0.05596378206676744,0.07471002424349331,0.11405286204071564,0.12635868022506644,0.03204685393762812,0.10134014218624432
0.0940345,0.060679775039039305,0.19107320429904173,0.05540412579202696,0.07481266308279104,0.11414651235974123,0.12628601281744964,0.032203751008942134,0.10171447302168368
0.0945,0.06172214046802451,0.19056403602431743,0.05483801972565621,0.07491534285706605,0.11423118336754232,0.12620897412800824,0.03235947985141118,0.10208694314610113
0.0949655,0.06277167499412764,0.19004060292789735,0.05426556646335956,0.07501809000542722,0.1143068707247674,0.12612764126250373,0.03251402141543917,0.10245750451639583
0.095431,0.06382827608380581,0.18950308280337247,0.05368687185402414,0.07512092956678514,0.11437357216273163,0.12604209121370377,0.03266735676928015,0.10282610858869837
0.0958966,0.06489183867560044,0.18895165540565,0.05310204501022801,0.07522388517841562,0.1144312874985934,0.12595240083084633,0.03281946710877942,0.10319270633391713
0.0963621,0.06596225519237478,0.18838650240520213,0.05251119831787373,0.07532697907518465,0.11448001865017862,0.12585864678947026,0.032970333767205116,0.10355724825367955
0.0968276,0.06703941555457653,0.18780780734178898,0.051914447444944035,0.07543023208942813,0.11451976965043664,0.12576090556163275,0.033119938225165534,0.10391968439665072
0.0972931,0.0681232071945319,0.18721575557769068,0.0513119113493761,0.07553366365147955,0.11455054666151199,0.12565925338653236,0.03326826212060758,0.10427996437521111
0.0977586,0.06921351507177716,0.18661053425048413,0.050703712286050306,0.07563729179083815,0.1145723579884155,0.1255537662415552,0.03341528725889163,0.1046380373824748
0.0982241,0.07031022168943343,0.18599233222539818,0.050089975812889195,0.07574113313796976,0.1145852140922781,0.1254445198137616,0.03356099562293815,0.10499385220962858
0.0986897,0.07141320711162959,0.18536134004728208,0.04947083079606176,0.0758452029267317,0.11458912760317065,0.1253315894718289,0.0337053693834414,0.10534735726357185
0.0991552,0.07252234898197832,0.18471774989222117,0.0488464094142881,0.07594951499741351,0.11458411333247308,0.12521505023846552,0.033848390909145765,0.10569850058483723
0.0996207,0.07363752254310994,0.1840617555188332,0.04821684716223912,0.07605408180038434,0.11457018828477594,0.12509497676330952,0.03399004277718007,0.10604722986577135
0.1000862,0.0747586006572675,0.18339355221927753,0.04758228285302589,0.07615891440033808,0.11454737166929731,0.12497144329632524,0.0341303077834456,0.10639349246895616
0.1005517,0.075885453827967,0.18271333677000887,0.046942858619772945,0.0762640224811271,0.11451568491079764,0.12484452366170919,0.0342691689530534,0.10673723544585195
0.1010172,0.07701795022272592,0.18202130738230643,0.046298719916269895,0.07636941435117617,0.11447515165997484,0.124714291232317,0.034406609550806495,0.10707840555564446
0.1014828,0.07815595569686243,0.18131766365260749,0.04565001551669559,0.07647509694946854,0.11442579780332092,0.1245808189046214,0.03454261309172274,0.10741694928427971
0.1019483,0.07929933381836782,0.18060260651267365,0.044996897514408836,0.07658107585209664,0.11436765147242098,0.12444417907421106,0.0346771633515941,0.10775281286367183
0.1024138,0.08044794589385397,0.17987633817961668,0.04433952131979975,0.07668735527937069,0.11430074305267504,0.1243044436118392,0.03481024437757798,0.10808594229106996
0.1028793,0.08160165099557756,0.17913906210581004,0.043678045657195935,0.07679393810347886,0.11422510519142251,0.12416168384003033,0.03494184049881658,0.10841628334857095
0.1033448,0.08276030598954214,0.17839098292871086,0.04301263256081745,0.07690082585669274,0.11414077280544915,0.12401597051025234,0.035071936337080195,0.10874378162276523
0.1038103,0.08392376556467913,0.17763230642061548,0.0423434473697747,0.07700801874011223,0.1140477830878567,0.12386737378066115,0.03520051681743066,0.10906838252450303
0.1042759,0.08509188226310817,0.17686323943837123,0.04167065872210357,0.07711551563294373,0.11394617551427551,0.12371596319442396,0.03532756717890124,0.10939003130876848
0.1047414,0.08626450651147659,0.176083989873067,0.040994438547832045,0.07722331410230582,0.11383599184840049,0.12356180765862843,0.035453072985189314,0.10970867309464861
0.1052069,0.08744148665337802,0.1752947665997236,0.040314962061072726,0.07733141041355614,0.11371727614683144,0.12340497542378429,0.035577020135358135,0.1100242528853855
0.1056724,0.08862266898284905,0.17449577942700564,0.03963240775113565,0.07743979954113321,0.11359007476319789,0.12324553406392558,0.03569939487454382,0.11033671558850074
0.1061379,0.08980789777894296,0.17368723904697628,0.038946957372656126,0.07754847517990618,0.11345443635154909,0.12308355045732162,0.035820183804663716,0.11064600603598365
0.1066034,0.09099701534137869,0.17286935698491354,0.03825879593473217,0.07765742975702533,0.11331041186898937,0.12291909076780509,0.03593937389512181,0.11095206900453691
0.107069,0.0921898620272634,0.17204234554920797,0.03756811168906627,0.07776665444426525,0.11315805457754005,0.12275222042672536,0.03605695249350682,0.11125484923587502
0.1075345,0.09338627628888586,0.17120641778135873,0.03687509611710646,0.07787613917085233,0.11299742004520985,0.12258300411553501,0.036172907336278474,0.111554291457073
0.108,0.09458609471257758,0.17036178740608449,0.036179943916181435,0.07798587263676784,0.11282856614625614,0.12241150574901692,0.03628722655943735,0.1118503404009629
0.1084655,0.09578915205863749,0.16950866878156468,0.035482852984624606,0.07809584232651762,0.11265155306062091,0.1222377884591583,0.03639989870917376,0.11214294082657585
0.108931,0.09699528130231606,0.16864727684982445,0.03478402440588175,0.07820603452335925,0.11246644327252528,0.12206191457967772,0.03651091275249112,0.11243203753962693
0.1093966,0.09820431367585332,0.16777782708727604,0.034083662431596974,0.07831643432397827,0.11227330156820607,0.12188394563121031,0.03662025808779937,0.11271757541303934
0.1098621,0.0994160787115651,0.16690053545542796,0.03338197446367145,0.07842702565360397,0.11207219503277799,0.12170394230715599,0.036727924555474314,0.11299949940750371
0.1103276,0.10063040428597135,0.16601561835177206,0.03267917103528909,0.07853779128155615,0.11186319304620405,0.12152196446019375,0.03683390244837854,0.11327775459206782
0.1107931,0.10184711666495924,0.16512329256085762,0.03197546579090337,0.07864871283721303,0.11164636727835665,0.1213380710894652,0.036938182522339734,0.11355228616475191
0.1112586,0.10306604054997351,0.16422377520556178,0.03127107546517905,0.0787597708263914,0.11142179168315126,0.12115232032842878,0.03704075600658226,0.11382303947318444
0.1117241,0.10428699912522593,0.16331728369856505,0.030566219860882485,0.0788709446481293,0.11118954249173481,0.12096476943338545,0.03714161461410747,0.11408996003525265
0.1121897,0.10550981410591492,0.16240403569404147,0.029861121825714113,0.07898221261186149,0.11094969820471122,0.12077547477267572,0.037240750552018316,0.11435299355976199
0.1126552,0.10673430578744533,0.161484249039573,0.029156007228076652,0.07909355195497808,0.11070233958338767,0.12058449181654654,0.037338156531783566,0.11461208596709743
0.1131207,0.10796029309563829,0.16055814172829846,0.028451104931772598,0.07920493886075604,0.11044754964002701,0.12039187512768615,0.037433825779436825,0.11486718340987959
0.1135862,0.10918759363791945,0.15962593185130744,0.02774664676962458,0.07931634847665323,0.11018541362709335,0.12019767835242436,0.037527752045705354,0.11511823229360695
0.1140517,0.11041602375547425,0.15868783755028973,0.02704286751601224,0.079427754932954,0.10991601902547948,0.12000195421259449,0.037619929616063245,0.11536517929727548
0.1145172,0.11164539857635711,0.15774407697045095,0.026340004858319124,0.07953913136175544,0.1096394555317064,0.11980475449805329,0.037710353320703764,0.11560797139396596
0.1149828,0.1128755320695414,0.156794868213704,0.025638299367282975,0.07965044991628287,0.10935581504408573,0.11960613005985386,0.037799018544425016,0.11584655587138891
0.1154483,0.1141062370998966,0.15584042929214625,0.02493799446624279,0.07976168179052298,0.10906519164783775,0.1194061308040658,0.03788592123642336,0.11608088035237635
0.1159138,0.11533732548407769,0.1548809780818313,0.024239336399275703,0.07987279723916316,0.10876768159915799,0.1192048056862362,0.037971057919988865,0.1163108928153088
0.1163793,0.11656860804731153,0.15391673227684335,0.023542574198216867,0.07998376559782532,0.10846338330822689,0.11900220270648393,0.03805442570209707,0.11653654161446558
0.1168448,0.117799894681064,0.1529479093436818,0.022847959648555384,0.08009455530358325,0.1081523973211576,0.11879836890521864,0.038136022282891556,0.11675777550028547
0.1173103,0.11903099440157036,0.15197472647596258,0.022155747254199668,0.08020513391575257,0.10783482630088016,0.11859335035947607,0.038215845965051724,0.11697454363952445
0.1177759,0.12026171540921109,0.15099740054944308,0.021466194201105834,0.08031546813694289,0.10751077500696189,0.11838719217985962,0.03829389566304038,0.11718679563529666
0.1182414,0.12149186514871368,0.15001614807737837,0.020779560319763073,0.0804255238343622,0.10718035027436784,0.11817993850807779,0.0383701709122261,0.11739448154698424
0.1187069,0.12272125037016066,0.14903118516621647,0.020096108046530406,0.08053526606136358,0.10684366099116806,0.11797163251506747,0.03844467187787516,0.1175975519100012
0.1191724,0.12394967719078215,0.14804272747164116,0.01941610238381977,0.0806446590792242,0.10650081807520018,0.11776231639969209,0.03851739936400826,0.11779595775539632
0.1196379,0.12517695115751165,0.14705099015497047,0.01873981085912083,0.08075366637914731,0.1061519344496967,0.117552031388004,0.03858835482211726,0.11798965062928057
0.1201034,0.12640287731028194,0.14605618783991914,0.01806750348286358,0.08086225070447696,0.10579712501788668,0.11734081773306065,0.038657540359737105,0.11817858261206403
0.120569,0.12762726024603793,0.14505853456973228,0.017399452705115306,0.080970374073117,0.10543650663658198,0.11712871471528376,0.03872495874886812,0.11836270633748865
0.1210345,0.12884990418344264,0.14405824376469678,0.016735933371109207,0.08107799780014509,0.10507019808875812,0.11691576064335135,0.03879061343424344,0.11854197501144248
0.1215,0.13007061302825146,0.14305552818003583,0.016077222675602687,0.08118508252061361,0.10469832005514138,0.11670199285561224,0.038854508541436676,0.11871634243054179
0.1219655,0.1312891904393296,0.14205059986419108,0.015423600116064015,0.08129158821252937,0.1043209950848151,0.11648744772201285,0.0389166488848043,0.11888576300046799
0.122431,0.13250543989528624,0.14104367011749538,0.014775347444686832,0.08139747422000414,0.10393834756485999,0.11627216064652744,0.0389770399752574,0.11905019175404744
0.1228966,0.13371916476169815,0.14003494945123884,0.014132748619232732,0.08150269927656827,0.10355050368904503,0.11605616607008226,0.0390356880278572,0.11920958436906277
0.1233621,0.134930168358895,0.139024647547129,0.01349608975270282,0.08160722152863881,0.10315759142558718,0.11583949747396523,0.03909259996922862,0.11936389718578608
0.1238276,0.13613825403027752,0.13801297321714545,0.012865659061839731,0.08171099855913368,0.10275974048399952,0.11562218738371334,0.039147783444785776,0.11951308722422369
0.1242931,0.13734322521113923,0.1370001343637877,0.012241746814462051,0.08181398741122269,0.10235708228104666,0.1154042673734696,0.039201246825763265,0.11965711220106354
0.1247586,0.13854488549796068,0.1359863379407149,0.011624645275633363,0.0819161446122058,0.10194974990582725,0.11518576807080183,0.039252999216046885,0.11979593054631582
0.1252241,0.13974303871814556,0.13497178991377426,0.011014648652668284,0.08201742619750844,0.10153787808400305,0.11496671916197582,0.03930305045879734,0.11992950141963787
0.1256897,0.1409374890001669,0.1339566952224148,0.010412053038978034,0.08211778773478363,0.10112160314119416,0.11474714939767508,0.03935141114286078,0.12005778472633476
0.1261552,0.142128040844091,0.1329412577414829,0.009817156356758049,0.08221718434810978,0.10070106296556022,0.11452708659915974,0.03939809260895997,0.1201807411330285
0.1266207,0.143314499192447,0.13192568024339532,0.00923025829852026,0.08231557074227354,0.10027639696958746,0.11430655766485731,0.03944310695566018,0.12029833208298918
0.1270862,0.14449666950140902,0.13091016436068487,0.008651660267472704,0.08241290122712684,0.0998477460511009,0.1140855885773785,0.03948646704510392,0.1204105198111217
0.1275517,0.14567435781225826,0.12989491054891594,0.00808166531674928,0.08250912974200791,0.0994152525535216,0.11386420441095152,0.03952818650850853,0.12051726735860212
0.1280172,0.14684737082309102,0.12888011804996613,0.007520578087492498,0.08260420988021708,0.09897906022538705,0.11364242933926963,0.03956827975142086,0.12061853858715743
0.1284828,0.1480155159607386,0.12786598485567247,0.006968704745792172,0.08269809491353798,0.09853931417915371,0.11342028664374575,0.039606761958722723,0.12071429819298247
0.1289483,0.14917860145286396,0.1268527076718414,0.0064263529184830645,0.08279073781679547,0.09809616084929922,0.11319779872216935,0.039643649099380986,0.12080451172028718
0.1294138,0.15033643640020056,0.12584048188262284,0.005893831627804494,0.08288209129244085,0.09764974794974186,0.11297498709776031,0.03967895793093627,0.12088914557446771
0.1298793,0.15148883084889753,0.12482950151524923,0.005371451224924947,0.0829721077951556,0.09720022443059445,0.11275187242861325,0.03971270600372435,0.12096816703489562
0.1303448,0.15263559586293765,0.12381995920514108,0.004859523322334815,0.0830607395564637,0.09674774043426922,0.11252847451752655,0.03974491166482469,0.12104154426731879
0.1308103,0.15377654359659396,0.12281204616137964,0.004358360725110523,0.08314793860934307,0.09629244725095067,0.11230481232220871,0.03977559406173118,0.12110924633586885
0.1312759,0.1549114873668929,0.12180595213254806,0.003868277361053595,0.08323365681282521,0.09583449727345203,0.11208090396585468,0.03980477314574025,0.1211712432146699
0.1317414,0.15604024172605133,0.120801865372943,0.003389588209708703,0.08331784587657262,0.09537404395147105,0.11185676674808512,0.039832469675051975,0.12122750579904443
0.1322069,0.1571626225338563,0.11979997260915895,0.00292260923026532,0.08340045738542219,0.09491124174526054,0.11163241715624085,0.03985870521757981,0.12127800591631226
0.1326724,0.1582784470299559,0.11880045900704948,0.00246765728834837,0.08348144282388283,0.09444624607872919,0.11140787087702614,0.039883502153464395,0.12132271633617901
0.1331379,0.15938753390603022,0.11780350813906944,0.0020250500817041023,0.08356075360057494,0.09397921329198838,0.1111831428084937,0.03990688367728673,0.12136161078070948
0.1336034,0.16048970337780996,0.11680930195200295,0.00159510606478837,0.0836383410725986,0.09351030059336218,0.11095824707236508,0.03992887379997571,0.12139466393388171
0.134069,0.1615847772569097,0.1158180207350817,0.0011781443722654935,0.08371415656981694,0.09303966601087756,0.11073319702667855,0.03994949735040466,0.1214218514507174
0.1345345,0.16267257902244184,0.11482984308849747,0.0007744847414269292,0.08378815141904089,0.09256746834325431,0.11050800527875689,0.03996877997667124,0.12144314996598449
0.135,0.1637529338923763,0.11384494589231242,0.00038444743354006377,0.08386027696810129,0.09209386711041541,0.11028268369848584,0.039986748147054774,0.12145853710246836
0.1354655,0.1648256688946091,0.11286350427576956,8.353154138539468e-06,0.08393048460979435,0.09161902250354098,0.11005724343189364,0.04000342915064473,0.1214679914788096
0.135931,0.16589061293770221,0.11188569158700597,-0.00035347702773338735,0.08399872580568621,0.09114309533469178,0.10983169491502102,0.040018851097633874,0.1214714927169065
0.1363966,0.16694759688125496,0.11091167936317002,-0.0007007217613088655,0.08406495210976266,0.09066624698602939,0.10960604788807095,0.04003304291926922,0.12146902144888157
0.1368621,0.16799645360586632,0.10994163730094447,-0.001033059496904203,0.08412911519191033,0.09018863935866091,0.10938031140982661,0.04004603436745384,0.1214605593236116
0.1373276,0.16903701808264673,0.10897573322747643,-0.0013501685697267,0.08419116686121589,0.08971043482113565,0.10915449387232594,0.04005785601399228,0.12144608901282214
0.1377931,0.1700691274422357,0.10801413307171576,-0.0016517272846679398,0.08425105908907048,0.08923179615762093,0.10892860301578074,0.04006853924947245,0.12142559421674763
0.1382586,0.17109262104328168,0.1070570008361641,-0.0019374140020649987,0.08430874403206719,0.08875288651578415,0.10870264594372787,0.04007811628177655,0.12139905966936046
0.1387241,0.1721073405403386,0.10610449856903746,-0.0022069072244111747,0.08436417405468069,0.08827386935440774,0.1084766291383992,0.04008662013421399,0.1213664711431715
0.1391897,0.17311312995113315,0.10515678633684704,-0.002459885683997035,0.08441730175171884,0.0877949083907633,0.10825055847629707,0.04009408464326886,0.12132781545360545
0.1396552,0.17410983572315553,0.10421402219740442,-0.0026960284314618654,0.08446807997053775,0.08731616754777183,0.10802443924396272,0.04010054445595506,0.12128308046295334
0.1401207,0.1750973067995266,0.10327636217325795,-0.0029150149252349915,0.08451646183301245,0.08683781090097652,0.10779827615392533,0.040106035026772194,0.12123225508390449
0.1405862,0.17607539468409242,0.10234396022556828,-0.0031165251218459485,0.08456240075725646,0.0863600026253541,0.10757207336082088,0.04011059261425588,0.1211753292826592
0.1410517,0.177043953505698,0.10141696822843077,-0.0033002395670820818,0.08460585047908366,0.08588290694199098,0.10734583447767068,0.04011425427711715,0.12111229408162355
0.1415172,0.17800284008159073,0.10049553594365263,-0.00346583948797191,0.08464676507320609,0.08540668806465058,0.10711956259230915,0.040117057869966326,0.12104314156168741
0.1419828,0.17895191397990454,0.09957981099599224,-0.003613006885572358,0.08468509897416147,0.08493151014625751,0.10689326028395067,0.04011904203861832,0.12096786486408624
0.1424483,0.1798910375811749,0.09866993884886813,-0.0037414246285378617,0.08472080699696452,0.08445753722532519,0.10666692963988555,0.04012024621497724,0.1208864581918479
0.1429138,0.18082007613883624,0.09776606278054427,-0.0038507765474492402,0.084753844357477,0.08398493317235264,0.10644057227229457,0.040120710611499515,0.12079891681082695
0.1433793,0.18173889783865319,0.09686832386079895,-0.003940747529880102,0.08478416669249218,0.08351386163621667,0.10621418933517232,0.04012047621523527,0.1207052370503289
0.1438448,0.182647373857037,0.09597686092808409,-0.004011023616178411,0.08481173007953055,0.0830444859905846,0.105987781541349,0.04011958478144834,0.1206054163033282
0.1443103,0.18354537841819962,0.09509181056718216,-0.00406129209594059,0.08483649105634443,0.08257696928037313,0.10576134917960008,0.04011807882681545,0.12049945302628343
0.1447759,0.18443278885009687,0.09421330708736805,-0.004091241605155212,0.08485840664012986,0.08211147416827795,0.1055348921318328,0.04011600162220573,0.12038734673855273
0.1452414,0.18530948563911337,0.09334148250108379,-0.004100562223992915,0.08487743434644517,0.08164816288139844,0.10530840989033725,0.040113397185042386,0.12026909802141213
0.1457069,0.18617535248343964,0.09247646650313344,-0.0040889455752187364,0.0848935322078355,0.08118719715798124,0.10508190157508958,0.04011031027124884,0.12014470851667881
0.1461724,0.18703027634509145,0.0916183864504055,-0.004056084923202558,0.08490665879216316,0.08072873819430575,0.10485536595109404,0.040106786366782214,0.1200141809249417
0.1466379,0.18787414750052278,0.09076736734212926,-0.004001675273502792,0.0849167732206423,0.08027294659173412,0.10462880144575044,0.04010287167875741,0.11987751900340178
0.1471034,0.1887068595897811,0.08992353180067146,-0.003925413472997893,0.08492383518557785,0.07981998230394793,0.10440220616623294,0.04009861312616487,0.11973472756332593
0.147569,0.18952830966415463,0.08908700005287853,-0.0038269983105396767,0.08492780496780729,0.07937000458439268,0.10417557791686638,0.04009405833018514,0.11958581246711952
0.1480345,0.19033839823226142,0.08825788991196921,-0.003706130618101797,0.08492864345384409,0.07892317193395133,0.1039489142164863,0.04008925560410338,0.11943078062502409
0.1485,0.1911370293045283,0.08743631675998169,-0.00356251337239607,0.08492631215272188,0.0784796420488676,0.10372221231576811,0.04008425394282693,0.1192696399914487
0.1489655,0.19192411043600927,0.08662239353077889,-0.003395851796928745,0.08492077321253816,0.07803957176893923,0.10349546921451074,0.04007910301200953,0.11910239956094477
0.149431,0.1926995527674918,0.08581623069361544,-0.003205853464468173,0.08491198943669678,0.0776031170260013,0.10326868167886022,0.04007385313678642,0.11892906936383517
0.1498966,0.19346327106483874,0.08501793623726907,-0.0029922283998948117,0.08489992429984808,0.0771704327927192,0.10304184625845929,0.040068555290125075,0.1187496604615091
0.1503621,0.19421518375651406,0.0842276156547394,-0.0027546891834040236,0.0848845419635253,0.076741673031711,0.1028149593035099,0.04006326108079723,0.11856418494139417
0.1508276,0.1949552129692393,0.08344537192851645,-0.0024929510540317255,0.08486580729147554,0.07631699064501825,0.10258801698173675,0.040058022740978166,0.11837265591161693
0.1512931,0.19568328456172834,0.08267130551642146,-0.0022067320134726877,0.0848436858646826,0.07589653742394423,0.10236101529524136,0.040052893113479676,0.11817508749536261
0.1517586,0.19639932815644834,0.08190551433802176,-0.0018957529301610512,0.08481814399607947,0.07548046399927827,0.10213395009723604,0.040047925638623104,0.11797149482494501
0.1522241,0.1971032771693552,0.08114809376162146,-0.0015597376435824513,0.08478914874494764,0.07506891979192364,0.10190681710864848,0.040043174340758776,0.11776189403559771
0.1526897,0.1977950688375533,0.08039913659182954,-0.0011984130687869067,0.0847566679310007,0.07466205296394676,0.10167961193458729,0.040038693814437885,0.11754630225899838
0.1531552,0.19847464424483038,0.07965873305770638,-0.0008115093010713153,0.08472067014814921,0.07426001037006465,0.10145233008065871,0.040034539210242893,0.11732473761653912
0.1536207,0.19914194834501783,0.0789269708014901,-0.0003987597208000146,0.08468112477794403,0.07386293750958711,0.10122496696912474,0.04003076622028238,0.11709721921235579
0.1540862,0.19979692998312903,0.07820393486790368,4.0098901668577145e-05,0.08463800200269463,0.07347097847882979,0.10099751795489278,0.04002743106335598,0.11686376712612995
0.1545517,0.2004395419142285,0.07748970769404423,0.0005053263009816608,0.08459127281825857,0.07308427592401345,0.10076997834132644,0.040024590469795264,0.11662440240567724
0.1550172,0.20106974081998827,0.07678436909985487,0.0009971786117508954,0.08454090904649793,0.07270297099466466,0.10054234339586732,0.040022301665986054,0.11637914705933634
0.1554828,0.20168748732289368,0.0760879962791798,0.0015159082635034676,0.08448688334739804,0.07232720329753202,0.1003146083654571,0.04002062235857796,0.11612802404817311
0.1559483,0.20229274599806807,0.07540066379140235,0.002061763875658682,0.08442916923084354,0.07195711085103206,0.1000867684917486,0.04001961071838678,0.1158710572780147
0.1564138,0.20288548538269507,0.07472244355366549,0.0026349901525635332,0.08436774106804634,0.07159283004023782,0.09985881902609499,0.040019325363995495,0.11560827159132898
0.1568793,0.20346567798302648,0.07405340483367423,0.0032358277786208737,0.08430257410261997,0.07123449557242313,0.09963075524430531,0.040019825345059386,0.11533969275896448
0.1573448,0.20403330027897276,0.07339361424307973,0.0038645133135440184,0.08423364446129392,0.07088224043317436,0.0994025724611562,0.04002117012532082,0.11506534747176518
0.1578103,0.20458833272628069,0.07274313573144466,0.004521279087771829,0.0841609291642617,0.07053619584308171,0.09917426604464942,0.04002341956533897,0.11478526333207473
0.1582759,0.2051307597563082,0.0721020305807904,0.00520635309807857,0.0840844061351557,0.07019649121502113,0.09894583143000668,0.040026633904939685,0.11449946884514327
0.1587414,0.20566056977341093,0.0714703574007266,0.005919958903413024,0.0840040542106416,0.06986325411203753,0.09871726413339414,0.040030873745390425,0.11420799341044893
0.1592069,0.2061777551499564,0.07084817212416368,0.006662315521001532,0.08391985314962506,0.06953661020584002,0.09848855976536981,0.040036200031304994,0.11391086731294538
0.1596724,0.20668231221898314,0.07023552800360867,0.007433637322749772,0.08383178364206414,0.06921668323591872,0.09825971404404815,0.04004267403228266,0.11360812171424574
0.1601379,0.20717424126452197,0.06963247560804475,0.00823413393197825,0.08373982731738053,0.06890359496929278,0.09803072280797695,0.040050357324285975,0.11329978864375226
0.1606034,0.207653546509596,0.06903906282039425,0.009064010120526598,0.08364396675246444,0.06859746516089897,0.09780158202872218,0.0400593117707616,0.11298590098973976
0.161069,0.20812023610191657,0.06845533483556447,0.009923465706261991,0.08354418547926827,0.06829841151462947,0.09757228782315637,0.04006959950350852,0.11266649249040044
0.1615345,0.2085743220972943,0.06788133415907499,0.010812695451027093,0.08344046799198529,0.06800654964502818,0.09734283646544636,0.04008128290329787,0.1123415977248561
0.162,0.20901582044078557,0.06731710060626504,0.011731888959063243,0.08333279975381068,0.06772199303965418,0.0971132243987353,0.04009442458024883,0.11201125210414377
0.1624655,0.209444750945598,0.0667626713020788,0.012681230575944693,0.08322116720328264,0.06744485302212104,0.09688344824651383,0.04010908735396477,0.11167549186217919
0.162931,0.20986113726978126,0.06621808068142597,0.013660899288059958,0.08310555776020163,0.06717523871582076,0.09665350482367481,0.04012533423343387,0.1113343540467026
0.1633966,0.2102650068907332,0.06568336049011544,0.01467106862267658,0.08298595983112604,0.06691325700834062,0.09642339114724585,0.040143228396698774,0.11098787651021028
0.1638621,0.21065639107755504,0.0651585397863601,0.015711906548625827,0.08286236281444184,0.06665901251658099,0.09619310444679388,0.040162833170299714,0.11063609790087481
0.1643276,0.2110353248612918,0.06464364494285144,0.016783575377644206,0.08273475710500425,0.06641260755258184,0.09596264217449636,0.04018421200849626,0.1102790576534568
0.1647931,0.21140184700309855,0.06413869964940397,0.017886231666408903,0.08260313409834852,0.06617414209006553,0.0957320020148735,0.04020742847227306,0.10991679598021004
0.1652586,0.21175599996037636,0.06364372491617014,0.01902002611930467,0.08246748619446731,0.06594371373170271,0.0955011818941765,0.040232546208135024,0.10954935386178163
0.1657241,0.21209782985092301,0.06315873907742713,0.02018510349195983,0.08232780680115162,0.06572141767710818,0.0952701799894273,0.04025962892669801,0.10917677303810794
0.1661897,0.21242738641514744,0.06268375779593728,0.021381602495589253,0.08218409033689308,0.06550734669157303,0.09503899473710566,0.040288740381081094,0.10879909599930657
0.1666552,0.2127447229763979,0.06221879406788422,0.02260965570218225,0.0820363322333461,0.06530159107553934,0.09480762484147993,0.04031994434510746,0.10841636597656376
0.1671207,0.2130498963994548,0.06176385822838604,0.023869389450573295,0.08188452893734928,0.06510423863482341,0.09457606928257743,0.04035330459132111,0.10802862693301621
0.1675862,0.21334296704723893,0.06131895795758743,0.025160923753433404,0.08172867791250797,0.06491537465159342,0.09434432732379111,0.040388884868827496,0.10763592355462484
0.1680517,0.2136239987357862,0.06088409828733224,0.026484372205219875,0.0815687776403407,0.06473508185610792,0.09411239851911908,0.040426748880966486,0.10723830124103789
0.1685172,0.2138930586875391,0.06045928160841746,0.027839841891122014,0.08140482762099412,0.06456344039922116,0.09388028272003447,0.040466960262826604,0.10683580609643932
0.1689828,0.21415021748300697,0.06004450767842972,0.029227433297040282,0.08123682837353162,0.0644005278256607,0.09364798008198365,0.04050958255860985,0.10642848492037799
0.1694483,0.21439554901084676,0.05963977363016448,0.03064724022063621,0.08106478143580172,0.06424641904808322,0.09341549107051099,0.04055467919885646,0.10601638519857241
0.1699138,0.21462913041642048,0.059245073980627956,0.032099349683490305,0.08088868936389171,0.06410118632191333,0.09318281646700878,0.040602313477539065,0.10559955509368456
0.1703793,0.2148510420488843,0.05886040064062106,0.03358384184440499,0.08070855573117248,0.06396489922097046,0.09294995737409033,0.040652548529035375,0.10517804343605593
0.1708448,0.21506136740686832,0.05848574292490451,0.03510078991388945,0.08052438512693952,0.06383762461388784,0.09271691522058476,0.040705447304988575,0.10475189971439874
0.1713103,0.21526019308280386,0.058121087562943576,0.03665026006986323,0.08033618315465503,0.06371942664132814,0.09248369176615194,0.040761072551063905,0.10432117406643424
0.1717759,0.2154476087059569,0.05776641871023087,0.038232311374615045,0.08014395642979606,0.06361036669399919,0.09225028910551618,0.04081948678361015,0.10388591726947052
0.1722414,0.21562370688422358,0.05742171796018495,0.03984699569305356,0.07994771257731316,0.06351050339147334,0.0920167096723182,0.04088075226623427,0.10344618073091276
0.1727069,0.21578858314474456,0.05708696435662277,0.04149435761228649,0.07974746022870467,0.06341989256181366,0.09178295624258466,0.04094493098629746,0.10300201647869901
0.1731724,0.21594233587339204,0.0567621344068035,0.04317443436256466,0.0795432090187118,0.06333858722200969,0.09154903193781563,0.04101208463134058,0.10255347715165632
0.1736379,0.2160850662531857,0.056447202095041914,0.044887255739627666,0.07933496958163967,0.06326663755922497,0.09131494022769114,0.04108227456544683,0.10210061598977146
0.1741034,0.21621687820169055,0.05614213889688951,0.04663284402848773,0.07912275354730959,0.0632040909128585,0.09108068493239843,0.041155561805549135,0.10164348682437221
0.174569,0.21633787830745102,0.055846913793882146,0.04841121392868891,0.07890657353664766,0.0631509917574217,0.09084627022458265,0.04123200699768992,0.10118214406821441
0.1750345,0.21644817576551414,0.055561493288853354,0.050222372481078456,0.07868644315691488,0.0631073816862322,0.09061170063092405,0.04131167039324052,0.10071664270547141
0.1755,0.2165478823120945,0.05528584142181246,0.0520663189961277,0.07846237699658361,0.06307329939592551,0.09037698103334524,0.04139461182508767,0.1002470382816215
0.1759655,0.21663711215843187,0.05501991978638715,0.053943044983839686,0.07823439061986505,0.0630487806717851,0.09014211666985296,0.04148089068379408,0.09977338689322938
0.176431,0.2167159819238924,0.05476368754683001,0.05585253408528092,0.07800250056089215,0.06303385837389124,0.08990711313501931,0.041570565893740294,0.0992957451776182
0.1768966,0.21678461056836304,0.054517101455588704,0.0577947620057748,0.07776672431756226,0.06302856242408857,0.08967197638010782,0.04166369588925469,0.09881417030242758
0.1773621,0.216843119323988,0.05428011587143943,0.05976969644979409,0.07752708034504364,0.06303291979377221,0.08943671271285017,0.04176033859073855,0.0983287199550537
0.1778276,0.21689163162629463,0.05405268277818325,0.06177729705758978,0.07728358804895029,0.06304695449249215,0.08920132879688031,0.0418605513807929,0.09783945233196789
0.1782931,0.2169302730447552,0.0538347518039049,0.06381751534359353,0.07703626777818909,0.06307068755737567,0.08896583165083269,0.04196439108035424,0.0973464261279116
0.1787586,0.2169591712128293,0.05362627024079377,0.06589029463663065,0.07678514081748354,0.06310413704336806,0.08873022864711168,0.04207191392484632,0.0968497005249678
0.1792241,0.21697845575752986,0.053427183065526754,0.0679955700219802,0.0765302293795784,0.06314731801429194,0.0884945275103395,0.04218317554035575,0.09634933518151245
0.1796897,0.2169882582285553,0.05323743296021248,0.07013326828531852,0.07627155659712993,0.0632002425347258,0.08825873631549046,0.04229823091983976,0.09584539022105132
0.1801552,0.21698871202702763,0.05305696033389685,0.07230330785858176,0.07600914651428725,0.0632629196627027,0.08802286348571996,0.042417134399374584,0.09533792622094917
0.1806207,0.21697995233387632,0.05288570334462935,0.0745055987677831,0.07574302407797055,0.06333535544322946,0.08778691778989764,0.042539939634453405,0.0948270042010589
0.1810862,0.21696211603790597,0.05272359792208969,0.0767400425828198,0.0754732151288526,0.06341755290262716,0.08755090833985468,0.0426666995763428,0.09431268561225827
0.1815517,0.21693534166358536,0.05257057779077407,0.07900653236930501,0.07519974639205029,0.06350951204369387,0.08731484458735539,0.04279746644850715,0.09379503232490145
0.1820172,0.21689976929859417,0.052426574493740226,0.08130495264245888,0.07492264546753287,0.06361122984169097,0.08707873632080343,0.042932291723110624,0.09327410661719333
0.1824828,0.21685554052116254,0.05229151741691,0.08363517932309399,0.07464194082025392,0.06372270024115423,0.08684259366169286,0.04307122609760677,0.09274997116349412
0.1829483,0.21680279832723873,0.05216533381392798,0.08599707969572946,0.07435766177001404,0.06384391415353122,0.08660642706081423,0.043214319471425074,0.0922226890225626
0.1834138,0.21674168705752,0.05204794883157418,0.08839051236886822,0.07406983848106119,0.06397485945564607,0.08637024729422522,0.043361620922764396,0.09169232362574622
0.1838793,0.21667235232438306,0.05193928553572888,0.0908153272374721,0.073778501951436,0.0641155209889922,0.08613406545899567,0.04351317868550238,0.09115893876512635
0.1843448,0.21659494093875195,0.051839264937886584,0.09327136544766917,0.07348368400206912,0.06426588055985331,0.08589789296873598,0.043669040126229706,0.09062259858162633
0.1848103,0.21650960083694332,0.05174780602221616,0.0957584593637275,0.073185417265638,0.0644259169402525,0.0856617415489178,0.04382925172141795,0.09008336755308942
0.1852759,0.21641648100753,0.05166482577316358,0.09827643253732979,0.07288373517519017,0.06459560586972882,0.08542562323199518,0.043993859034729306,0.08954131048233359
0.1857414,0.21631573141826593,0.05159023920359339,0.10082509967918303,0.07257867195254007,0.06477492005794111,0.08518955035233365,0.04416290669447646,0.08899649248518932
0.1862069,0.2162075029431156,0.05152395938346441,0.10340426663299712,0.07227026259644605,0.06496382918809818,0.08495353554095507,0.04433643837124038,0.08844897897852548
0.1866724,0.21609194728943146,0.05146589746903492,0.10601373035186587,0.07195854287057438,0.06516229992121483,0.08471759172010485,0.044514496755653526,0.08789883566826852
0.1871379,0.21596921692532253,0.051415962732592344,0.10865327887708372,0.07164354929125671,0.06537029590119323,0.08448173209764849,0.04469712353635568,0.0873461285374194
0.1876034,0.21583946500725676,0.051374062592701816,0.11132269131943053,0.07132531911504747,0.06558777776072874,0.08424597016130397,0.04488435937812938,0.08679092383407229
0.188069,0.21570284530793776,0.05134010264496813,0.11402173784295686,0.07100389032608743,0.06581470312803957,0.08401031967271606,0.04507624390022149,0.08623328805943865
0.1885345,0.21555951214449556,0.05131398669330491,0.11675017965130065,0.07067930162327987,0.06605102663441917,0.0837747946613789,0.04527281565485733,0.08567328795587978
0.189,0.21540962030702945,0.05129561678170496,0.11950776897656598,0.0703515924072851,0.06629669992261099,0.08353940941841297,0.0454741121059533,0.08511099049495068
0.1894655,0.21525332498753977,0.05128489322650542,0.12229424907079318,0.07002080276733949,0.06655167165600435,0.08330417849020284,0.045680169608034,0.08454646286545783
0.189931,0.21509078170928386,0.051281714649140955,0.12510935420004976,0.06968697346790438,0.06681588752865049,0.08306911667190181,0.045891023385359636,0.08397977246153283
0.1903966,0.21492214625659017,0.05128597800937845,0.12795280964117012,0.06935014593515042,0.06708929027609736,0.08283423900080969,0.046106707511269274,0.08341098687072375
0.1908621,0.21474757460516242,0.05129757863902605,0.13082433168117208,0.06901036224328311,0.06737181968704183,0.08259956074962994,0.04632725488774568,0.082840173862106
0.1913276,0.21456722285290444,0.05131641027610935,0.1337236276193778,0.06866766510071534,0.06766341261579739,0.08236509741961158,0.04655269722520736,0.08226740137441382
0.1917931,0.21438124715129378,0.051342365099507424,0.1366503957722663,0.0683220978360933,0.06796400299557592,0.08213086473358101,0.04678306502253335,0.08169273750419348
0.1922586,0.2141898036373319,0.05137533376404108,0.13960432548108415,0.0679737043841823,0.06827352185258186,0.08189687862886863,0.04701838754732659,0.08111625049397872
0.1927241,0.21399304836609612,0.05141520543600531,0.14258509712224188,0.06762252927161931,0.06859189732091697,0.08166315525013385,0.0472586928164212,0.08053800872048913
0.1931897,0.21379113724391804,0.051461867829137975,0.14559238212052228,0.06726861760253891,0.06891905465829372,0.08142971094209236,0.04750400757663947,0.07995808068285157
0.1936552,0.21358422596221166,0.05151520724101648,0.14862584296512754,0.06691201504407976,0.06925491626255485,0.08119656224214837,0.047754357285803836,0.07937653499084432
0.1941207,0.2133724699319738,0.05157510858987362,0.15168513322859173,0.06655276781177812,0.06959940168899667,0.08096372587293435,0.04800976609400909,0.07879344035316385
0.1945862,0.21315602421897928,0.05164145545182415,0.154769897588585,0.06619092265485527,0.06995242766849308,0.08073121873476072,0.048270256825160014,0.07820886556571356
0.1950517,0.2129350434796915,0.05171413009849282,0.157879771852636,0.06582652684140557,0.07031390812641759,0.08049905789797754,0.04853585095877914,0.0776228794999137
0.1955172,0.21270968189790898,0.05179301353503486,0.16101438298579873,0.06545962814349174,0.07068375420236064,0.08026726059525012,0.04880656861208946,0.07703555109103129
0.1959828,0.21248009312216806,0.0518779855385394,0.16417334914128962,0.06509027482215415,0.07106187427064017,0.0800358442137502,0.049082428522377014,0.076446949326529
0.1964483,0.21224643020392003,0.0519689246968063,0.1673562796941204,0.06471851561234067,0.07144817396160436,0.07980482628726404,0.049363448029638296,0.07585714323443106
0.1969138,0.21200884553650015,0.05206570844748634,0.17056277527775196,0.06434439970776326,0.07184255618372608,0.07957422448821833,0.04964964305951733,0.07526620187170446
0.1973793,0.21176749079490428,0.05216821311757499,0.1737924278237932,0.06396797674568776,0.0722449211464897,0.07934405661962485,0.04994102810653769,0.07467419431265332
0.1978448,0.2115225168763881,0.052276313963249395,0.17704482060476834,0.06358929679166254,0.07265516638407066,0.07911434060694442,0.05023761621763441,0.07408118963732345
0.1983103,0.21127407384190156,0.052389885210038296,0.18031952827997494,0.06320841032419208,0.07307318677980898,0.0788850944898707,0.05053941897599107,0.07348725691991405
0.1987759,0.21102231085837173,0.052508800093314434,0.18361611694445298,0.06282536821936072,0.07349887459147735,0.07865633641403533,0.05084644648518694,0.07289246521719304
0.1992414,0.21076737614184463,0.05263293089909902,0.1869341441810849,0.062440221735412055,0.073932119477344,0.07842808462263548,0.05115870735365922,0.07229688355691244
0.1997069,0.21050941690149721,0.05276214900516765,0.19027315911584447,0.062053022497289195,0.0743728085230307,0.07820035744798663,0.05147620867948519,0.07170058092621952
0.2001724,0.21024857928452964,0.052896324922446995,0.19363270247621112,0.06166382248114091,0.07482082626916549,0.07797317330300296,0.05179895603548956,0.07110362626005971
0.2006379,0.2099850083219476,0.05303532833669152,0.19701230665276545,0.06127267399879844,0.07527605473982972,0.07774655067260822,0.05212695345468188,0.0705060884295666
0.2011034,0.20971884787524397,0.05317902815042937,0.20041149576397946,0.06087962968222801,0.07573837347179858,0.07752050810507997,0.05246020341602974,0.06990803623043461
0.201569,0.20945024058398815,0.05332729252516625,0.2038297857242149,0.06048474246796378,0.07620765954457456,0.0772950642033303,0.05279870683057377,0.06930953837127024
0.2020345,0.20917932781433218,0.05347998892383623,0.2072666843149413,0.06008806558152561,0.0766837876112126,0.07707023761612616,0.05314246302789081,0.06871066346191805
0.2025,0.20890624960844148,0.05363698415348794,0.21072169125918427,0.05968965252182566,0.07716662992993618,0.07684604702925356,0.05349146974291252,0.06811148000175898
0.2029655,0.2086311446348583,0.053798144408194665,0.21419429829921388,0.059289557045567855,0.07765605639654288,0.07662251115662952,0.05384572310310713,0.0675120563679792
0.203431,0.2083541501398059,0.05396333531217646,0.21768398927748225,0.05888783315164368,0.07815193457759803,0.07639964873136659,0.05420521761603226,0.06691246080380828
0.2038966,0.20807540189944107,0.05413242196312222,0.2211902402208188,0.05848453506552829,0.07865412974441487,0.07617747849679436,0.05456994615726689,0.0663127614067257
0.2043621,0.20779503417306275,0.054305268975699206,0.22471251942789108,0.05807971722368093,0.07916250490781934,0.07595601919744259,0.05493989995873031,0.06571302611663535
0.2048276,0.20751317965728378,0.05448174052523736,0.2282502875599388,0.05767343425795409,0.07967692085369725,0.07573528956999064,0.05531506859739587,0.06511332270400715
0.2052931,0.20722996944117086,0.05466170039157512,0.23180299773478744,0.057265740980015835,0.08019723617932092,0.07551530833418758,0.055695439984406826,0.06451371875798641
0.2057586,0.20694553296235724,0.05484501200305316,0.23537009562414857,0.05685669236578982,0.08072330733045241,0.07529609418374743,0.05608100035460172,0.06391428167447132
0.2062241,0.2066599979641311,0.05503153848064213,0.2389510195542128,0.0564463435399175,0.08125498863921984,0.07507766577722402,0.05647173425645671,0.06331507864415974
0.2066897,0.20637349045350006,0.05522114268218978,0.2425452006095408,0.05603474976024729,0.08179213236276321,0.07486004172887054,0.05686762454245213,0.06271617664056622
0.2071552,0.20608613466023193,0.05541368724677277,0.24615206274025725,0.0556219664023551,0.08233458872264576,0.0746432405994885,0.0572686523598709,0.06211764240801026
0.2076207,0.20579805299686968,0.05560903463913786,0.24977102287255237,0.055208048944100634,0.08288220594502674,0.07442728088727228,0.05767479714203668,0.06151954244957678
0.2080862,0.20550936601971848,0.05580704719421711,0.2534014910224938,0.05479305295022367,0.08343483030159088,0.07421218101865508,0.058086036599999384,0.06092194301505065
0.2085517,0.20522019239080297,0.05600758716170123,0.2570428704131516,0.05437703405698413,0.08399230615123017,0.07399795933916284,0.058502346714676336,0.06032491008882787
0.2090172,0.20493064884079412,0.05621051675065506,0.26069455759503796,0.05396004795684967,0.0845544759824729,0.0737846341042826,0.05892370172945715,0.05972850937780784
0.2094828,0.20464085013290725,0.056415698174158764,0.2643559425698625,0.05354215038323462,0.0851211804566543,0.07357222347035183,0.05935007414328052,0.059132806299272644
0.2099483,0.2043509090277743,0.05662299369395784,0.2680264089176023,0.05312339709529403,0.08569225845182288,0.07336074548547558,0.05978143470419094,0.05853786596876061
0.2104138,0.20406093624929653,0.05683226566510483,0.271705333926885,0.05270384386277713,0.08626754710737586,0.07315021808047834,0.060217752403383146,0.05794375318794183
0.2108793,0.20377104045148453,0.05704337658057519,0.27539208872868093,0.05228354645094428,0.0868468818694166,0.07294065905989751,0.06065899446974204,0.05735053243250362
0.2113448,0.2034813281862944,0.057256189115839344,0.27908603843330076,0.05186256060555266,0.08743009653682621,0.0727320860930252,0.061105126364886124,0.05675826784005387
0.2118103,0.20319190387246905,0.05747056617337269,0.2827865422706907,0.05144094203791587,0.08801702330804152,0.07252451670500426,0.061556111778722306,0.0561670231980502
0.2122759,0.20290286976539285,0.05768637092708498,0.28649295373401734,0.0510187464100434,0.08860749282853066,0.07231796826798463,0.06201191262552006,0.05557686193176283
0.2127414,0.20261432592796796,0.05790346686665031,0.2902046207265307,0.050596029319865767,0.08920133423895728,0.07211245799234468,0.06247248904051273,0.054987847092279184
0.2132069,0.20232637020251884,0.05812171784171853,0.2939208857116928,0.05017284628655111,0.08979837522402376,0.07190800291798222,0.06293779937703349,0.05440004134455782
0.2136724,0.2020390981837313,0.058340988105988714,0.29764108586655647,0.049749252735918424,0.09039844206198343,0.07170461990567953,0.06340780020419323,0.053813506955539304
0.2141379,0.20175260319263302,0.05856114236112493,0.30136455323837674,0.04932530398595276,0.09100135967481124,0.07150232562854607,0.06388244630510734,0.05322830578232104
0.2146034,0.20146697625162177,0.05878204580049455,0.3050906149044344,0.04890105523242723,0.09160695167902175,0.07130113656354288,0.06436169067567826,0.052644499260403065
0.215069,0.2011823060605482,0.05900356415270867,0.30881859313505056,0.0484765615346368,0.09221504043712235,0.07110106898309267,0.06484548452394079,0.052062148392011294
0.2155345,0.20089867897386046,0.059225563724944266,0.31254780555976835,0.04805187780124888,0.09282544710968968,0.07090213894677956,0.06533377726997684,0.05148131373450447
0.216,0.2006161789788161,0.05944791144602734,0.3162775653366758,0.04762705877627626,0.09343799170805539,0.07070436229314264,0.0658265165464068,0.05090205538887101
0.2164655,0.20033488767476743,0.0596704749092557,0.3200071813248418,0.047202159025178006,0.0940524931475879,0.07050775463156699,0.06632364819946387,0.05032443298832138
0.216931,0.2000548842535242,0.05989312241494029,0.32373595825983575,0.04677723292109372,0.09466876930155521,0.07031233133427603,0.06682511629065845,0.0497485056869817
0.2173966,0.19977624548079717,0.0601157230126432,0.3274631969322969,0.046352334631216935,0.09528663705555315,0.07011810752842908,0.06733086309903838,0.049174332148694114
0.2178621,0.1994990456787262,0.06033814654309048,0.33118819436952057,0.045927518103313233,0.09590591236248329,0.0699250980883276,0.06784082912405144,0.04860197053592908
0.2183276,0.1992233567094952,0.06056026367973786,0.3349102440200227,0.04550283705238852,0.09652641029806384,0.06973331762773438,0.06835495308901575,0.04803147849881485
0.2187931,0.19894924796003843,0.06078194596996747,0.33862863594104325,0.0450783449475135,0.0971479451168566,0.06954278049230933,0.06887317194520387,0.047462913164289036
0.2192586,0.19867678632784191,0.06100306587589351,0.3423426569889459,0.04465409499880997,0.09777033030879216,0.0693535007521655,0.06939542087654631,0.046896331125376944
0.2197241,0.19840603620784467,0.0612234968147555,0.3460515910124673,0.04423014014460494,0.09839337865617573,0.06916549219454847,0.06992163330496012,0.04633178843060141
0.2201897,0.1981370594804434,0.06144311319887771,0.34975471904876887,0.04380653303875842,0.09901690229115492,0.06897876831664207,0.07045174089630875,0.0457693405735285
0.2206552,0.19786991550060487,0.06166179047517443,0.3534513195222381,0.04338332603817092,0.09964071275363047,0.06879334231850262,0.07098567356699872,0.04520904248245349
0.2211207,0.19760466108808813,0.06187940516418135,0.3571406684459867,0.042960571190476325,0.10026462104959004,0.06860922709612412,0.07152335949121935,0.0446509485102315
0.2215862,0.19734135051877946,0.06209583489859414,0.3608220396259879,0.0425383202219255,0.10088843770984468,0.06842643523463576,0.07206472510883109,0.044095112424257184
0.2220517,0.1970800355171408,0.062310958461297014,0.3644947048677934,0.04211662452546608,0.10151197284914694,0.06824497900163327,0.07260969513390836,0.04354158739659776
0.2225172,0.19682076524977327,0.06252465582286466,0.3681579341857662,0.04169553514902331,0.10213503622566922,0.06806487034064508,0.07315819256394239,0.042990425994283876
0.2229828,0.19656358632009577,0.06273680817852233,0.37181099601476564,0.04127510278398679,0.10275743730082001,0.06788612086473395,0.07371013868970959,0.042441680169762394
0.2234483,0.19630854276413892,0.06294729798455008,0.37545315742421353,0.04085537775390737,0.1033789852993764,0.06770874185023433,0.07426545310581034,0.04189540125151562
0.2239138,0.19605567604745489,0.06315600899411791,0.3790836843344714,0.040436410003408405,0.10399948926990966,0.06753274423062545,0.07482405372188325,0.04135163993485119
0.2243793,0.1958050250631439,0.06336282629253928,0.38270184173545324,0.04001824908731508,0.10461875814548159,0.06735813859053989,0.07538585677449905,0.04081044627286685
0.2248448,0.19555662613099842,0.06356763633193108,0.38630689390739553,0.039600944160005175,0.10523660080458878,0.06718493515990696,0.07595077683973837,0.04027186966759435
0.2253103,0.19531051299776636,0.06377032696526831,0.38989810464370406,0.039184543964984365,0.10585282613233263,0.06701314380823045,0.07651872684645676,0.03973595886132677
0.2257759,0.19506671683853324,0.063970787479822,0.39347473747579337,0.038769096824689014,0.10646724308179231,0.06684277403899981,0.07708961809024023,0.03920276192813327
0.2262414,0.19482526625922236,0.06416890862996864,0.39703605589983154,0.038354650630519016,0.10707966073557862,0.06667383498423349,0.07766336024805395,0.038672326265565604
0.2267069,0.19458618730021163,0.06436458266935931,0.4005813236052993,0.037941252833103234,0.10768988836754619,0.0665063353991529,0.0782398613935864,0.038144698586560596
0.2271724,0.19434950344106436,0.06455770338243629,0.4041098047052698,0.0375289504327999,0.10829773550464211,0.06634028365698529,0.07881902801329085,0.03761992491154273
0.2276379,0.19411523560637114,0.06474816611528471,0.40762076396831065,0.03711778997043431,0.10890301198886836,0.0661756877438932,0.07940076502312556,0.037098050560731045
0.2281034,0.1938834021726992,0.06493586780580611,0.41111346705190926,0.03670781751827613,0.10950552803933616,0.06601255525402865,0.07998497578599317,0.03657912014665441
0.228569,0.19365401897664536,0.06512070701320082,0.41458718073731715,0.03629907867125855,0.11010509431439024,0.0658508933847098,0.0805715621298802,0.036063177566879025
0.2290345,0.19342709932398905,0.06530258394674573,0.41804117316570644,0.03589161853844138,0.11070152197378066,0.06569070893171869,0.08116042436669611,0.035550265996951845
0.2295,0.19320265399994183,0.06548140049385423,0.4214747140755299,0.03548548173472025,0.11129462274086109,0.06553200828471953,0.08175146131181196,0.035040427883563284
0.2299655,0.19298069128048995,0.06565706024740439,0.42488707504097295,0.035080712372783825,0.11188420896479155,0.06537479742279857,0.08234457030429836,0.03453370493793255
0.230431,0.19276121694482612,0.06582946853232256,0.42827752971138383,0.03467735405532096,0.11247009368272519,0.06521908191012704,0.08293964722786239,0.03403013812941857
0.2308966,0.1925442342888664,0.06599853243140877,0.4316453540515651,0.03427544986747933,0.11305209068195801,0.06506486689174988,0.08353658653248304,0.03352976767935962
0.2313621,0.19232974413984685,0.0661641608103911,0.43498982658280916,0.033875042369577106,0.1136300145620211,0.0649121570895032,0.08413528125674449,0.03303263305514441
0.2318276,0.19211774487199385,0.0663262643421963,0.43831022862455615,0.03347617359006887,0.11420368079669385,0.06476095679806336,0.08473562305086671,0.03253877296451738
0.2322931,0.19190823242326063,0.06648475553042389,0.44160584453655255,0.033078885018767046,0.1147729057959174,0.06461126988113094,0.08533750220043218,0.032048225350120765
0.2327586,0.19170120031312254,0.06663954873201197,0.44487596196138546,0.03268321760031979,0.11533750696758668,0.06446309976775319,0.08594080765080737,0.03156102738427548
0.2332241,0.19149663966142008,0.06679056017908257,0.4481198720672673,0.03228921172794608,0.11589730277919902,0.06431644944878855,0.08654542703225744,0.031077215464003077
0.2336897,0.19129453920824077,0.06693770799995555,0.4513368697909411,0.03189690723742854,0.11645211281933632,0.06417132147351731,0.08715124668575212,0.030596825206290458
0.2341552,0.19109488533482694,0.06708091223932,0.45452625408057806,0.03150634340136419,0.11700175785895825,0.06402771794640215,0.08775815168946077,0.03011989144359883
0.2346207,0.19089766208549644,0.06722009487755269,0.45768732813853613,0.03111755892367323,0.1175460599124828,0.06388564052400242,0.08836602588593419,0.029646448219618208
0.2350862,0.1907028511905619,0.06735517984917318,0.46081939966384694,0.030730591934365444,0.11808484229863049,0.06374509041204657,0.08897475190997084,0.029176528785268448
0.2355517,0.19051043209023283,0.06748609306042559,0.4639217810942985,0.03034547998456386,0.11861792970100807,0.06360606836266627,0.08958421121716523,0.028710165594947656
0.2360172,0.1903203819594849,0.06761276240597752,0.46699378984797973,0.0299622600417848,0.11914514822840779,0.06346857467179616,0.09019428411313524,0.0282473903030285
0.2364828,0.19013267573387924,0.06773511778472684,0.4700347485641536,0.02958096848547342,0.11966632547479748,0.06333260917674238,0.09080484978342607,0.027788233760602715
0.2369483,0.18994728613631454,0.06785309111470839,0.47304398534332315,0.02920164110279363,0.12018129057897659,0.06319817125392291,0.09141578632408776,0.027332726012474117
0.2374138,0.18976418370469425,0.06796661634709392,0.4760208339863575,0.028824313084671135,0.12068987428387286,0.06306525981678207,0.0920269707729228,0.02688089629439997
0.2378793,0.18958333682049072,0.0680756294792801,0.4789646342325448,0.028449019022088184,0.12119190899545397,0.06293387331388163,0.09263827914140031,0.026432773030580746
0.2383448,0.18940471173818724,0.06818006856706141,0.48187473199643627,0.02807579290262839,0.12168722884122792,0.06280400972716979,0.09324958644723286,0.025988383831398003
0.2388103,0.18922827261557734,0.06827987373588601,0.4847504796033479,0.027704668107269875,0.12217566972830521,0.06267566657042968,0.09386076674761146,0.025547755491400093
0.2392759,0.18905398154490075,0.06837498719119396,0.48759123602338833,0.027335677407424704,0.12265706940099529,0.06254884088790819,0.09447169317309427,0.025110913987535257
0.2397414,0.18888179858479512,0.06846535322783874,0.49039636710387746,0.026968852962222373,0.12313126749790887,0.06242352925312564,0.09508223796214314,0.024677884477631466
0.2402069,0.18871168179304318,0.06855091823859394,0.49316524580002213,0.026604226316034933,0.1235981056085369,0.06229972776786701,0.09569227249630222,0.024248691299122254
0.2406724,0.18854358726009532,0.06863163072174831,0.49589725240371524,0.02624182839624095,0.1240574273292763,0.06217743206135487,0.09630166733601168,0.023823357968017732
0.2411379,0.18837746914334796,0.06870744128779349,0.4985917747703239,0.025881689511225422,0.12450907831887154,0.0620566372896046,0.09691029225704953,0.023401907178119647
0.2416034,0.18821327970215904,0.06877830266520973,0.5012482085433323,0.025523839348612482,0.12495290635324041,0.0619373381349626,0.09751801628759264,0.02298436080047936
0.242069,0.18805096933358026,0.06884416970535553,0.5038659573767057,0.025168306973727544,0.12538876137965127,0.061819528805827695,0.09812470774588831,0.02257073988309742
0.2425345,0.18789048660878596,0.06890499938646794,0.5064444331548422,0.02481512082828539,0.1258164955702179,0.06170320303655611,0.09873023427852605,0.022161064650863316
0.243,0.18773177831017676,0.06896075081678049,0.5089830562099782,0.024464308729300676,0.12623596337467752,0.06158835408754994,0.09933446289929926,0.02175535450573373
0.2434655,0.18757478946913533,0.06901138523676613,0.5114812555369149,0.024115897868217336,0.12664702157241614,0.061474974745528696,0.0999372600286453,0.021353628027147718
0.243931,0.18741946340441068,0.06905686602051246,0.5139384690049342,0.023769914810253485,0.12704952932370528,0.06136305732398363,0.10053849153365182,0.02095590297267685
0.2443966,0.18726574176110716,0.06909715867623696,0.5163541435667691,0.023426385493958455,0.12744334822011205,0.0612525936638143,0.10113802276861682,0.02056219627890849
0.2448621,0.18711356455025446,0.0691322308459491,0.5187277354644951,0.02308533523097872,0.12782834233404505,0.061143575134147456,0.10173571861614866,0.020172524062560072
0.2453276,0.18696287018893354,0.06916205230426653,0.5210587104322033,0.022746788706029652,0.12820437826739625,0.061035992633338546,0.1023314435287929,0.019786901621822253
0.2457931,0.186813595540935,0.0691865949563918,0.5233465438953144,0.022410769977069814,0.1285713251992392,0.06092983659015674,0.10292506157117087,0.01940534343792871
0.2462586,0.18666567595792583,0.06920583283525589,0.5255907211663907,0.02207730247567489,0.12892905493254292,0.06082509696515418,0.10351643646261569,0.019027863176950197
0.2467241,0.18651904532110064,0.06921974209783403,0.5277907376372963,0.021746409007608054,0.12927744193986052,0.060721763252220895,0.10410543162029047,0.018654473691810405
0.2471897,0.18637363608329402,0.0692283010206395,0.5299460989675571,0.0214181117535837,0.12961636340795202,0.06061982448032665,0.10469191020277308,0.018285187024520973
0.2476552,0.1862293793115303,0.06923148999440049,0.5320563212687633,0.0210924322702213,0.12994569928130267,0.06051926921545157,0.10527573515409125,0.01792001440863299
0.2481207,0.18608620472998708,0.06922929151792571,0.5341209312848613,0.020769391491186076,0.13026533230450002,0.06042008556270716,0.1058567692481922,0.017558966271902093
0.2485862,0.1859440407633491,0.06922169019116402,0.5361394665681753,0.020449009728513295,0.1305751480634356,0.06032226116864935,0.10643487513382986,0.0172020522391642
0.2490517,0.18580281458052889,0.06920867270746393,0.5381114756510049,0.020131306674113076,0.13087503502530015,0.060225783223785,0.10700991537985291,0.016849281135418837
0.2495172,0.18566245213872926,0.06919022784503942,0.5400365182126374,0.019816301401452775,0.13116488457734368,0.06013063846527264,0.10758175252087644,0.01650066098911687
0.2499828,0.1855228782278247,0.06916634645764858,0.5419141652416254,0.019504012367414263,0.13144459106437326,0.06003681317981843,0.1081502491033195,0.01615619903564938
0.2504483,0.18538401651503597,0.06913702146449262,0.5437439991931768,0.019194457414323646,0.1317140518249643,0.05994429320676761,0.10871526773179065,0.015815901721034375
0.2509138,0.18524578958987412,0.0691022478393434,0.5455256141415157,0.01888765377215112,0.13197316722636293,0.0598530639413915,0.1092766711158036,0.01547977470579794
0.2513793,0.1851081190093286,0.06906202259890816,0.5472586159270751,0.01858361806087886,0.1322218406980606,0.05976311033837048,0.10983432211680394,0.015147822869046468
0.2518448,0.18497092534327475,0.06901634479044116,0.5489426222983957,0.018282366293034875,0.13245997876402532,0.05967441691547326,0.1103880837954884,0.014820050312726572
0.2523103,0.18483412822007553,0.06896521547861277,0.5505772630486082,0.017983913876390836,0.13268749107357777,0.059586967757432975,0.11093781945939712,0.014496460366069289
0.2527759,0.18469764637235359,0.06890863773164714,0.5521621801463906,0.017688275616821764,0.13290429043090196,0.05950074652002101,0.11148339271075945,0.014177055590215343
0.2532414,0.18456139768290974,0.06884661660674114,0.5536970278613031,0.01739546572132546,0.13311029282318312,0.059415736434319494,0.1120246674945727,0.013861837783018211
0.2537069,0.18442529923076417,0.06877915913477736,0.5551814728834147,0.017105497801199392,0.13330541744736513,0.059331920311193026,0.11256150814689321,0.013550807984021923
0.2541724,0.18428926733729742,0.06870627430434528,0.5566151944371496,0.01681838487537274,0.13348958673552053,0.05924928054596044,0.11309377944331804,0.013243966479610536
0.2546379,0.18415321761246772,0.06862797304508553,0.5579978843892968,0.0165341393738912,0.1336627263788261,0.05916779912326669,0.11362134664763537,0.012941312808326381
0.2551034,0.1840170650010818,0.06854426821037293,0.5593292473511395,0.01625277314155218,0.13382476535013527,0.05908745762215476,0.11414407556062098,0.012642845766354298
0.255569,0.1838807238290945,0.068455174559355,0.5606090007746749,0.015974297441687848,0.13397563592513953,0.05900823722133718,0.11466183256895765,0.012348563413169132
0.2560345,0.18374410784991235,0.06836070873836285,0.5618368750429087,0.015698722960093503,0.13411527370210996,0.05893011870466636,0.11517448469425422,0.012058463077343757
0.2565,0.18360713029067477,0.06826088926171262,0.5630126135542189,0.015426059809098721,0.1342436176202101,0.05885308246680261,0.11568189964214001,0.01177254136251478
0.2569655,0.1834697038984867,0.06815573649191567,0.5641359728007923,0.015156317531778539,0.13436060997637098,0.0587771085190785,0.1161839458514103,0.011490794153503106
0.257431,0.18333174098657587,0.06804527261931662,0.5652067224411412,0.014889505106301913,0.13446619644071944,0.058702176495557395,0.11668049254319678,0.011213216622586437
0.2578966,0.18319315348034892,0.06792952164117837,0.5662246453667156,0.014625630950414588,0.13456032607055105,0.05862826565928419,0.11717140977013712,0.010939803235920828
0.2583621,0.1830538529633205,0.0678085093402339,0.5671895377626233,0.014364702926053425,0.13464295132283896,0.05855535490872566,0.11765656846551632,0.010670547760108527
0.2588276,0.18291375072288996,0.06768226326272467,0.5681012091624744,0.014106728344089124,0.13471402806527177,0.058483422784397845,0.11813584049235178,0.010405443268909437
0.2592931,0.18277275779594085,0.06755081269594551,0.5689594824973583,0.013851713969194221,0.13477351558581338,0.058412447475677254,0.11860909869239308,0.010144482150093687
0.2597586,0.18263078501423777,0.0674141886453162,0.5697641941389635,0.013599666024833102,0.13482137660078033,0.05834240682779303,0.11907621693500688,0.009887656112432952
0.2602241,0.1824877430495948,0.06727242381099957,0.5705151939368452,0.0133505901983707,0.1348575772614338,0.05827327834899659,0.11953707016591643,0.009634956192828135
0.2606897,0.1823435424587896,0.06712555256408598,0.5712123452498437,0.01310449164629646,0.13488208715908534,0.058205039217905305,0.11999153445576514,0.009386372763571108
0.2611552,0.1821980937281962,0.06697361092236424,0.5718555249716577,0.01286137499956003,0.13489487932871877,0.058137666291016556,0.12043948704847222,0.009141895539738069
0.2616207,0.18205130731811012,0.06681663652569825,0.572444623550579,0.012621244369015093,0.13489593025113228,0.05807113611038869,0.12088080640934877,0.008901513586712104
0.2620862,0.18190309370673774,0.06665466861102862,0.5729795450033934,0.012384103350967589,0.1348852198536081,0.05800542491148491,0.1213153722729419,0.008665215327832404
0.2625517,0.18175336343382326,0.06648774798701827,0.5734602069234617,0.012149955032824592,0.13486273150911895,0.0579405086311763,0.12174306569057401,0.00843298855216757
0.2630172,0.1816020271438855,0.06631591700836055,0.5738865404829943,0.011918801998839946,0.1348284520340822,0.05787636291590036,0.12216376907754392,0.008204820422410315
0.2634828,0.18144899562903963,0.0661392195497679,0.5742584904295421,0.011690646335952673,0.13478237168467513,0.05781296312997122,0.12257736625995645,0.007980697482890842
0.2639483,0.18129417987137872,0.0659577009796586,0.574576015076732,0.011465489639714149,0.13472448415172622,0.0577502843640382,0.12298374252114631,0.0077606056677060695
0.2644138,0.1811374910848951,0.06577140813355857,0.5748390862892795,0.01124333302029996,0.13465478655419827,0.0576883014436893,0.12338278464766152,0.0075445303089618195
0.2648793,0.1809788407569208,0.06558038928723471,0.5750476894623224,0.011024177108602262,0.13457327943128095,0.05762698893819625,0.12377438097477188,0.00733245614512505
0.2653448,0.18081814068907193,0.06538469412957566,0.5752018234951224,0.010808022062398356,0.13447996673311208,0.05756632116939751,0.1241584214314668,0.007124367329483089
0.2658103,0.18065530303768257,0.06518437373523543,0.5753015007591908,0.010594867572591277,0.13437485581014713,0.057506272220715665,0.1245347975849068,0.006920247438706833
0.2662759,0.18049024035371714,0.06497948053705467,0.5753467470609029,0.010384712869517976,0.13425795740119817,0.05744681594630534,0.1249034026842924,0.00672007948151482
0.2667414,0.18032286562215266,0.06477006829827381,0.5753376015986718,0.010177556729320641,0.13412928562016366,0.05738792598032804,0.12526413170411413,0.006523845907434975
0.2672069,0.18015309230082388,0.06455619208455228,0.5752741169147618,0.009973397480376687,0.13398885794147147,0.05732957574635029,0.12561688138674695,0.006331528615660859
0.2676724,0.1799808343587248,0.06433790823580698,0.5751563588418291,0.009772233009782819,0.13383669518425673,0.0572717384668617,0.1259615502843529,0.006143108963999157
0.2681379,0.1798060063137634,0.06411527433788332,0.5749844064442797,0.00957406076988862,0.1336728214952966,0.05721438717290948,0.1262980388000561,0.005958567777905071
0.2686034,0.1796285232699653,0.06388834919407137,0.5747583519545469,0.009378877784875082,0.13349726433072337,0.05715749471384581,0.12662624922835447,0.005777885359602311
0.269069,0.1794483009541236,0.0636571927964796,0.574478300704391,0.009186680657373504,0.1333100544365362,0.057101033767184346,0.1269460857947336,0.005601041497284267
0.2695345,0.17926525575189178,0.06342186629727789,0.5741443710513288,0.008997465575120244,0.1331112258279317,0.05704497684856183,0.12725745469444824,0.0054280154743929394
0.27,0.17907930474331712,0.06318243197982158,0.573756694300305,0.008811228317642876,0.13290081576747176,0.05698929632180091,0.1275602641304379,0.005258786078972148
0.2704655,0.1788903657378111,0.06293895322966779,0.5733154146207197,0.008627964262973355,0.13267886474210783,0.05693396440907064,0.12785442435034403,0.005093331613091488
0.270931,0.1786983573085543,0.06269149450549477,0.5728206889589281,0.00844766839438393,0.13244541643907862,0.05687895320114178,0.12813984768259748,0.004931629902337488
0.2713966,0.1785031988263313,0.062440121309934885,0.5722726869463327,0.008270335307141576,0.13220051772069874,0.056824234667734744,0.12841644857154533,0.004773658305368361
0.2718621,0.17830481049279234,0.06218490016033158,0.5716715908031885,0.008095959215276853,0.13194421859805466,0.05676978066795915,0.1286841436115882,0.004619393723528754
0.2723276,0.17810311337313664,0.06192589855943015,0.5710175952382457,0.007924533958363194,0.13167657220362425,0.056715562960844734,0.12894285158030006,0.004468812610520869
0.2727931,0.17789802942821237,0.061663184966012106,0.5703109073443522,0.00775605300830275,0.1313976347628352,0.05666155321596408,0.12919249347050415,0.004321890982128351
0.2732586,0.177689481546027,0.06139682876548279,0.5695517464901434,0.007590509476115056,0.1311074655645776,0.056607723024147946,0.12943299252127954,0.004178604425989286
0.2737241,0.17747739357266135,0.06112690024042146,0.5687403442079413,0.007427896118724856,0.13080612693068552,0.05655404390829398,0.12966427424787413,0.004038928111414667
0.2741897,0.1772616903425792,0.060853470541103086,0.5678769440779904,0.007268205345745591,0.1304936841844027,0.05650048733426959,0.1298862664705018,0.003902836799248637
0.2746552,0.1770422977083248,0.060576611656000874,0.5669618016091514,0.007111429226255143,0.13017020561784776,0.05644702472190915,0.13009889934200167,0.003770304851766819
0.2751207,0.1768191425695993,0.060296396382278586,0.5659951841161738,0.006957559495560524,0.1298357624584939,0.05639362745610535,0.13030210537433795,0.003641306242608998
0.2755862,0.176592152901708,0.06001289829628128,0.5649773705936626,0.006806587561948303,0.1294904288346774,0.05634026689799428,0.13049581946392,0.0035158145667424164
0.2760517,0.17636125778337064,0.05972619172403331,0.5639086515868561,0.0066585045134176365,0.12913428174014918,0.056286914396233005,0.13067997891572125,0.0033938030504519286
0.2765172,0.17612638742388742,0.059436351711752274,0.56278932905932,0.006513301124392832,0.12876740099768316,0.05623354129836819,0.13085452346617607,0.0032752445613532517
0.2769828,0.17588747318965256,0.05914345399638736,0.5616197162576657,0.0063709678624123784,0.1283898692217555,0.056180118962294016,0.13101939530483267,0.003160111618425579
0.2774483,0.17564444763000805,0.058847574976190746,0.5604001375733918,0.006231494894791379,0.12800177178030947,0.056126618767796954,0.13117453909474222,0.003048376402059846
0.2779138,0.1753972445024298,0.05854879168133049,0.5591309284019491,0.0060948720952543455,0.12760319675562212,0.05607301212818471,0.13131990199156443,0.002940010764118975
0.2783793,0.1751457987970385,0.05824718174455342,0.5578124349991219,0.005961089050535257,0.12719423490429038,0.056019270501996295,0.13145543366137238,0.002834986238006463
0.2788448,0.17489004676042808,0.05794282337190657,0.556445014334819,0.005830135066941806,0.12677497961635653,0.055965365404789774,0.13158108629714185,0.0027332740487396876
0.2793103,0.17462992591880522,0.0576357953135259,0.5550290339443643,0.0057019991768808,0.12634552687359477,0.05591126842100401,0.1316968146339137,0.0026348451230243076
0.2797759,0.17436537510043615,0.0573261768345012,0.553564871777377,0.005576670145341715,0.12590597520698163,0.055856951215890405,0.13180257596262088,0.0025396700993261315
0.2802414,0.17409633445739744,0.05701404768582615,0.5520529160443265,0.005454136476335506,0.12545642565337542,0.05580238554751048,0.13189833014257657,0.002447719337936814
0.2807069,0.17382274548663096,0.05669948807544277,0.5504935650608487,0.0053343864192858725,0.12499698171143127,0.05574754327879485,0.1319840396126229,0.0023589629310297212
0.2811724,0.1735445510503033,0.05638257863938952,0.5488872270899063,0.00521740797537028,0.12452774929677961,0.05569239638965873,0.13205966940094482,0.0022733707127023236
0.2816379,0.17326169539547456,0.05606340041306273,0.5472343201818768,0.005103188903808117,0.1240488366964972,0.05563691698916868,0.13212518713355692,0.002190912269001461
0.2821034,0.17297412417308117,0.0557420348026008,0.545535272012646,0.004991716728093542,0.12356035452290005,0.05558107732775543,0.13218056304147482,0.002111556947927841
0.282569,0.1726817844562397,0.055418563556401096,0.5437905197197876,0.004882978742170649,0.12306241566668731,0.05552484980946648,0.132225769966587,0.002035273869416154
0.2830345,0.17238462475787913,0.05509306873677916,0.5420005097369016,0.004776962016548732,0.12255513524946561,0.05546820700425274,0.13226078336624425,0.0019620319352872343
0.2835,0.17208259504770856,0.05476563269178014,0.5401656976261826,0.004673653404355591,0.12203863057568234,0.05541112166028245,0.13228558131658835,0.0018917998391687646
0.2839655,0.17177564676852777,0.0544363380271521,0.538286547909287,0.00457303954732696,0.12151302108399657,0.05535356671627579,0.132300144514642,0.0018245460763810946
0.284431,0.1714637328518874,0.05410526757849077,0.5363635338965643,0.00447510688173029,0.12097842829811514,0.05529551531385279,0.13230445627918433,0.0017602389537848474
0.2848966,0.17114680773310562,0.053772504383565484,0.5343971375147148,0.004379841644221315,0.1204349757771215,0.05523694080988712,0.13229850255043718,0.0016988465995870683
0.2853621,0.1708248273656482,0.05343813165483554,0.5323878491329355,0.004287229877631955,0.11988278906532339,0.05517781678885817,0.1322822718885871,0.0016403369731027573
0.2858276,0.17049774923487832,0.053102232752166224,0.530336167387611,0.0041972574366882795,0.11932199564164507,0.0551181170751935,0.13225575547116816,0.0015846778744686802
0.2862931,0.17016553237118165,0.05276489115575364,0.5282425990056039,0.004109909993657443,0.11875272486858848,0.055057815745594006,0.13221894708932996,0.0015318369543063897
0.2867586,0.169828137362473,0.052426190439267176,0.5261076586261942,0.0040251730439226086,0.11817510794078687,0.054996887141333835,0.13217184314301386,0.0014817817233313995
0.2872241,0.16948552636609063,0.05208621424321819,0.5239318686217197,0.003943031911485054,0.11758927783317405,0.05493530588052702,0.13211444263506017,0.0014344795619054603
0.2876897,0.16913766312008424,0.051745046248563444,0.521715758916959,0.003863471754392752,0.1169953692487913,0.054873046870352875,0.13204674716426767,0.0013898977295288845
0.2881552,0.16878451295390087,0.051402770150551245,0.5194598668073065,0.0037864775700948406,0.11639351856625334,0.05481008531923203,0.13196876091742654,0.001348003374269872
0.2886207,0.16842604279847412,0.05105946963281801,0.5171647367757838,0.003712034200721447,0.11578386378689594,0.05474639674894514,0.13188049066034388,0.001308763542127802
0.2890862,0.16806222119572142,0.05071522834174277,0.5148309203089331,0.003640126338288423,0.11516654448162711,0.0546819570066861,0.1317819457278816,0.001272145186327443
0.2895517,0.1676930183074535,0.05037012986106649,0.5124589757116395,0.003570738529826594,0.11454170173750496,0.05461674227704236,0.13167313801302516,0.0012381151765410389
0.2900172,0.16731840592370067,0.05002425768678288,0.5100494679209315,0.003503855182435153,0.11390947810406461,0.05455072909389518,0.1315540819550006,0.0012066403080352268
0.2904828,0.16693835747045976,0.04967769520230671,0.5076029683188064,0.0034394605682588567,0.11327001753941751,0.05448389435223376,0.1314247945264568,0.0011776873107397514
0.2909483,0.16655284801686568,0.049330525653925504,0.505120054544131,0.0033775388293887125,0.11262346535614506,0.05441621531987754,0.13128529521972992,0.0011512228582349806
0.2914138,0.16616185428179095,0.04898283212654015,0.5026013103036718,0.0033180739826858445,0.11196996816700938,0.05434766964910148,0.13113560603220586,0.001127213576655301
0.2918793,0.16576535463987613,0.04863469751969939,0.500047325182304,0.00326104992452829,0.11130967383050364,0.054278235388159034,0.1309757514507963,0.0011056260535055901
0.2923448,0.16536332912699409,0.048286204523933306,0.4974586944524552,0.0032064504354804633,0.11064273139626461,0.05420789099269715,0.13080575843554326,0.0010864268463881088
0.2928103,0.16495575944515065,0.047937435597390235,0.4948360188828396,0.003154259184885073,0.1099692910503709,0.05413661533705756,0.13062565640236745,0.0010695824916373091
0.2932759,0.164542628966824,0.047588472942781616,0.49217990454653665,0.0031044597353772525,0.1092895040605502,0.05406438772545844,0.13043547720497378,0.0010550595128601826
0.2937414,0.1641239227387448,0.04723939848463887,0.4894909626284728,0.0030570355473206676,0.10860352272132,0.053991187903050186,0.13023525511592948,0.0010428244293798654
0.2942069,0.16369962748511804,0.04689029384688614,0.48676980923236424,0.003011969983165361,0.10791150029908579,0.0539169960668393,0.13002502680692837,0.0010328437645803093
0.2946724,0.16326973161028815,0.04654124033073263,0.4840170651871779,0.002969246311727099,0.10721359097722186,0.053841792876474566,0.12980483132825604,0.0010250840541499524
0.2951379,0.1628342252008462,0.04619231889288822,0.48123335585317134,0.002928847712387985,0.10650994980116006,0.053765559464889395,0.12957471008747115,0.0010195118542224756
0.2956034,0.16239310002717902,0.04584361012410531,0.47841931092757106,0.00289075727921813,0.10580073262351268,0.053688277448794924,0.12933470682731799,0.0010160937494129432
0.296069,0.16194634954445908,0.04549519422805024,0.47557556424994907,0.0028549580250181797,0.10508609604925626,0.05360992893901832,0.1290848676028866,0.0010147963607478171
0.2965345,0.16149396889307402,0.045147151000506903,0.4727027536073574,0.002821432885282527,0.10436619738100363,0.05353049655068093,0.12882524075803725,0.0010155863534875222
0.297,0.16103595489849623,0.044799559808915444,0.46980152053928104,0.0027901647220830534,0.10364119456439179,0.053449963413210906,0.12855587690110745,0.0010184304448403651
0.2974655,0.16057230607059345,0.0444524995722486,0.4668725101424677,0.0027611363278732723,0.10291124613361258,0.053368313180185256,0.12827682887991967,0.0010232954115667096
0.297931,0.1601030226023825,0.04410604874122811,0.463916370875695,0.0027343304292127635,0.10217651115711282,0.05328553003899581,0.12798815175610934,0.0010301480974724035
0.2983966,0.1596281063682291,0.04376028527888357,0.46093375436453093,0.0027097296904117956,0.10143714918349021,0.0532015987203341,0.12768990277879314,0.0010389554207905559
0.2988621,0.15914756092149773,0.04341528664145605,0.45792531520614665,0.002687316717096049,0.10069332018760985,0.05311650450748999,0.12738214135759893,0.0010496843814508602
0.2993276,0.15866139149165537,0.04307112975964857,0.4548917107742362,0.0026670740596913237,0.09994518451696587,0.05303023324545989,0.12706492903507818,0.0010623020682357417
0.2997931,0.15816960498083432,0.042727891020225756,0.4518336010241001,0.002648984216828133,0.09919290283831217,0.05294277134986094,0.12673832945852348,0.0010767756658226586
0.3002586,0.15767220995985806,0.04238564624796444,0.4487516482979462,0.002633029638666061,0.09843663608458461,0.052854105815648304,0.1264024083512137,0.0010930724617119107
0.3007241,0.15716921666373582,0.042044470687957386,0.4456465171304634,0.002619192730137752,0.0976765454021369,0.052764224225632955,0.12605723348311015,0.0011111598530393263
0.3011897,0.15666063698663119,0.041704438988272065,0.44251887405472073,0.00260745585411243,0.09691279209831166,0.05267311475879741,0.12570287464102783,0.0011310053532732015
0.3016552,0.1561464844763105,0.04136562518296631,0.43936938740844733,0.0025978013344788147,0.0961455375893674,0.052580766198406834,0.1253394035983053,0.0011525765987948744
0.3021207,0.1556267743280769,0.04102810267546261,0.4361987271407445,0.002590211459147352,0.0953749433487816,0.05248716793991271,0.12496689408399761,0.0011758413553623246
0.3025862,0.1551015233781965,0.04069194422228267,0.4330075646192831,0.0025846684829716636,0.09460117085594937,0.05239230999864633,0.1245854217516164,0.0012007675244562303
0.3030517,0.15457075009682292,0.04035722191714376,0.42979657243803604,0.002581154630589141,0.09382438154529708,0.05229618301729917,0.12419506414744098,0.0012273231495079637
0.3035172,0.15403447458042663,0.04002400717541831,0.426566424225595,0.002579652099180625,0.09304473675582957,0.05219877827318722,0.123795900678424,0.0012554764220090852
0.3039828,0.1534927185437357,0.0396923707189579,0.42331779445411716,0.0025801430611491513,0.09226239768112905,0.05210008768529621,0.12338801257971438,0.0012851956875019753
0.3044483,0.15294550531119386,0.03936238256128289,0.42005135824894696,0.0025826096667177847,0.09147752531982406,0.05200010382110452,0.12297148288182033,0.001316449451451301
0.3049138,0.15239285980794268,0.0390341119931387,0.41676779119895174,0.0025870340464466323,0.09069028042654625,0.05189881990318011,0.1225463963774337,0.0013492063849960569
0.3053793,0.15183480855033368,0.03870762756841937,0.4134677691676098,0.00259339831366919,0.0899008234633928,0.05179622981554778,0.12211283958793683,0.0013834353305819335
0.3058448,0.1512713796359766,0.038382997090459156,0.41015196810488874,0.0026016845668482198,0.08910931455191123,0.05169232810982213,0.12167090072961205,0.0014191053074737814
0.3063103,0.15070260273332978,0.03806028759869251,0.40682106385995076,0.0026118748918514227,0.08831591342562409,0.051587110011102,0.12122066967957325,0.0014561855171479404
0.3067759,0.15012850907083836,0.03773956535568263,0.40347573199472386,0.0026239513641471758,0.08752077938310936,0.05148057142362117,0.12076223794143866,0.0014946453485642198
0.3072414,0.14954913142562581,0.037420895834518575,0.4001166475983812,0.0026378960509206443,0.08672407124165239,0.0513727089361505,0.12029569861076288,0.0015344543833173386
0.3077069,0.14896450411174414,0.03710434370658068,0.39674448510277444,0.002653691013110595,0.0859259472914843,0.051263519827146165,0.11982114634024602,0.0015755824006676612
0.3081724,0.1483746629679876,0.03678997282967384,0.39335991809887305,0.0026713183073672937,0.0851265652506216,0.051153002069638964,0.11933867730473692,0.0016179993824510864
0.3086379,0.1477796453452746,0.03647784623652781,0.38996361915426564,0.0026907599879319307,0.08432608222032066,0.05104115433585944,0.11884838916604729,0.0016616755178679686
0.3091034,0.14717949009360168,0.036168026123663655,0.3865562596317844,0.0027119981084381198,0.08352465464116057,0.050927976001593475,0.1183503810375933,0.0017065812081509682
0.309569,0.14657423754857332,0.03586057384062509,0.3831385095093197,0.0027350147236360994,0.08272243824976731,0.05081346715026304,0.11784475344888064,0.0017526870711117293
0.3100345,0.1459639295175105,0.035555549879573344,0.37971103720089344,0.002759791891040386,0.0819195880361918,0.05069762857672646,0.1173316083098491,0.0017999639455662836
0.3105,0.14534860926513932,0.03525301386524392,0.37627450937906537,0.002786311672501736,0.08111625820195367,0.05058046179079253,0.11681104887509194,0.0018483828956390859
0.3109655,0.14472832149886114,0.03495302454526347,0.3728295907987461,0.002814556135704375,0.08031260211876212,0.050461969020442705,0.11628317970796509,0.0018979152149455772
0.311431,0.1441031123536041,0.03465563978082507,0.36937694412249417,0.0028445073555895505,0.07950877228792504,0.05034215321475622,0.1157481066446002,0.0019485324306531867
0.3118966,0.14347302937625583,0.034360916537719804,0.36591722974737345,0.002876147415706523,0.07870492030045642,0.0502210180465333,0.11520593675783487,0.002000206307420699
0.3123621,0.142838121509677,0.034068910877722874,0.3624511056334496,0.0029094584094922033,0.07790119679789186,0.05009856791461238,0.11465677832107309,0.0020529088512159415
0.3128276,0.14219843907629473,0.03377967795033213,0.35897922713400193,0.0029444224414806783,0.07709775143382099,0.04997480794587769,0.11410074077208704,0.002106612313011768
0.3132931,0.1415540337612764,0.03349327198485711,0.355502246827526,0.0029810216284439175,0.07629473283614531,0.04984974399695373,0.11353793467677192,0.0021612891923603493
0.3137586,0.14090495859528426,0.03320974628285655,0.3520208143516004,0.0030192381004649784,0.07549228857006886,0.04972338265558357,0.11296847169286378,0.002216912240845769
0.3142241,0.14025126793681272,0.032929153210922386,0.3485355762386897,0.0030590540019450408,0.07469056510182895,0.04959573124168767,0.11239246453363069,0.002273454465414937
0.3146897,0.1395930174541115,0.032651544193808134,0.34504717575395255,0.0031004514925455947,0.07388970776317318,0.04946679780810026,0.11181002693154664,0.0023308891315868174
0.3151552,0.13893026410670004,0.03237696970789937,0.34155625273512175,0.003143412748067113,0.07308986071658836,0.04933659114098051,0.1112212736019568,0.0023891897665399716
0.3156207,0.13826306612647923,0.032105479275024135,0.33806344343452016,0.0031879199612655272,0.07229116692128662,0.049205120759895714,0.11062632020674251,0.0024483301620784174
0.3160862,0.137591482998449,0.03183712145660083,0.3345693803632739,0.0032339553426078095,0.0714937680999529,0.049072396917573834,0.11002528331799323,0.002508284377475819
0.3165517,0.13691557544104074,0.03157194384812094,0.3310746921377805,0.0032815011209679627,0.07069780470625804,0.04893843059932223,0.1094182803816927,0.0025690267421980347
0.3170172,0.13623540538607526,0.03130999307396387,0.3275800033284879,0.003330539544264748,0.06990341589314032,0.048803233522109496,0.10880542968142501,0.0026305318585040415
0.3174828,0.1355510359583581,0.031051314782540935,0.32408593431103566,0.003381052880042499,0.06911073948185849,0.048666818133306866,0.10818685030210562,0.002692774603925277
0.3179483,0.1348625314549245,0.0307959536417652,0.32059310111980815,0.003433023415996424,0.06831991193181836,0.04852919760908553,0.1075626620937417,0.002755730133623424
0.3184138,0.1341699573239477,0.030543953334843794,0.31710211530394616,0.0034864334604438546,0.06753106831117446,0.04839038585246587,0.10693298563522537,0.002819373882626681
0.3188793,0.13347338014332447,0.030295356556389024,0.3136135837858602,0.0035412653427429374,0.06674434226820762,0.04825039749101481,0.10629794219816298,0.0028836815679445394
0.3193448,0.13277286759895163,0.030050205008844477,0.3101281087222873,0.0035975014136603077,0.06595986600347906,0.04810924787418714,0.10565765371074393,0.0029486291905610794
0.3198103,0.13206848846270786,0.029808539399222053,0.30664628736792887,0.003655124045689315,0.06517777024276113,0.04796695307030765,0.10501224272165251,0.003014193037306794
0.3202759,0.13136031257015363,0.029570399436146203,0.3031687119417051,0.0037141156333203892,0.06439818421074392,0.047823529863191425,0.10436183236402659,0.0030803496826089364
0.3207414,0.13064841079796197,0.029335823827201592,0.29969596949565935,0.0037744585932651398,0.0636212356055173,0.04767899574840012,0.10370654631946874,0.0031470759901203777
0.3212069,0.12993285504109162,0.029104850276580822,0.2962286417865428,0.0038361353646357717,0.06284705057382678,0.04753336892913251,0.10304650878211549,0.0032143491142269565
0.3216724,0.12921371818971347,0.028877515483029085,0.292767305150108,0.0038991284090814024,0.06207575368710157,0.04738666831174769,0.10238184442277229,0.0032821465014333316
0.3221379,0.1284910741059,0.028653855138083002,0.2893125303781366,0.003963420210882838,0.06130746791825255,0.04723891350091978,0.10171267835312271,0.003350445891627363
0.3226034,0.12776499760008667,0.028433903924601208,0.2858648825982245,0.004028993277007366,0.060542314619237474,0.04709012479442327,0.10103913609002212,0.0034192253192231073
0.323069,0.12703556440731326,0.028217695515584416,0.28242492115634615,0.004095830137125131,0.05978041349939039,0.046940323177548364,0.10036134351988632,0.003488463114182578
0.3235345,0.12630285116325185,0.028005262573282882,0.27899319950221557,0.0041639133435886514,0.05902188260451191,0.046789530317146444,0.09967942686318666,0.003558137902916519
0.324,0.12556693538002803,0.02779663674858932,0.27557026507746285,0.004233225471377065,0.05826683829671669,0.046637768555306165,0.09899351263906292,0.003628228609064544
0.3244655,0.12482789542184095,0.027591848680715424,0.2721566592066395,0.004303749118006712,0.057515395235034364,0.0464850609026616,0.09830372763006623,0.003698714454155107
0.324931,0.1240858104803872,0.027390927997150094,0.26875291699106796,0.004375466903409681,0.05676766635676,0.04633143103133402,0.09761019884704386,0.0037695749581458503
0.3253966,0.12334076055009444,0.027193903313897518,0.2653595672055478,0.0044483614697819664,0.05602376285954954,0.04617690326750981,0.09691305349417804,0.003840789939844902
