Time,Rectus Femoris right,Rectus Femoris left,Hamstrings right,Hamstrings left,TibilaisÂ Anterior right,TibilaisÂ Anterior left,Gastrocnemius right,Gastrocnemius left
0.0,0.016126277123275315,0.003201794251082133,0.044771167035414235,-0.009690625599317642,-0.02318223281271979,-0.018962740958908226,0.013009389760272943,-0.02925885104676931
0.0004655,0.015252285526588713,0.0026221583516479324,0.049284581934950625,-0.010486468329670415,-0.024426131670329587,-0.02017775249450562,-0.00311814217759415,-0.029753315835164794
0.000931,0.017303117687387504,-0.0005182679943278234,0.04701962622414094,-0.010822620578153124,-0.02331639535691125,-0.020630882312612495,-0.022090484064935627,-0.030847844286240475
0.0013966,0.01945696110989302,-0.0015133539284216588,0.03363003153222425,-0.01055328684734582,-0.021955724066825107,-0.019739716317498192,-0.03122492033412554,-0.03141043526492381
0.0018621,0.019265527161576763,-0.0014176734405576992,0.020442193842863065,-0.010947372838423237,-0.020346972838423235,-0.019051163881855612,-0.03554630493448133,-0.030324940742365143
0.0023276,0.018684246178078862,3.544244073940475e-05,0.012013619582143514,-0.011528653821921137,-0.020928253821921136,-0.01774332495770916,-0.037580788376723975,-0.029453019267118293
0.0027931,0.018487568962846538,0.002191348188295818,-0.0030291245934986988,-0.013544607259937575,-0.02391576370687255,-0.015479070960249698,-0.04094585181170418,-0.028651007259937574
0.0032586,0.0182956,0.0031792419262508128,-0.02105073200877195,-0.014257341926250814,-0.027645809631254067,-0.013124239473827973,-0.0414464766736704,-0.02770988711062378
0.0037241,0.01978787995969384,0.002969275297235828,-0.041917600681042465,-0.01360459309288379,-0.028633420346676205,-0.0130299171146055,-0.03871164834981346,-0.02806597237153517
0.0041897,0.020300346759254885,-0.0005571998664602757,-0.05808743453834247,-0.014232857697443837,-0.02676786806104092,-0.013870538420449316,-0.033550542436095884,-0.030148026907668494
0.0046552,0.020883806259216674,-0.004061168421569949,-0.06394024381451674,-0.014873670839477784,-0.023753039543394402,-0.014353843384703241,-0.02970899615869116,-0.031561177098694465
0.0051207,0.02293136725252695,-0.007758000427551891,-0.06224174255435686,-0.013955903829709543,-0.01929019613262244,-0.01608616936232366,-0.026626695742738567,-0.030978888510871373
0.0055862,0.024094755072214407,-0.007947534783356781,-0.04977039275071142,-0.013607340945127775,-0.01578407862362479,-0.017062881518765022,-0.029834459058950227,-0.03021907862362479
0.0060517,0.025342997019669033,-0.005242965461704086,-0.046397241295361866,-0.013885224284442272,-0.013600207273522676,-0.01700128000874944,-0.036273452700229004,-0.02932511999125056
0.0065172,0.0253452,-0.004320418046854588,-0.048407154731365906,-0.01378430917492492,-0.0135958,-0.016364212031236395,-0.04010193097188837,-0.028196424062472785
0.0069828,0.023736834176151887,-0.004411985211029219,-0.03147452771375819,-0.0129244,-0.0142672,-0.01698226660499867,-0.03985415464636581,-0.028233712143636847
0.0074483,0.023331,-0.004683542753631708,-0.00850594087623056,-0.012403956381770437,-0.014166108176883239,-0.01853148092060578,-0.04464984907767068,-0.02841645452074055
0.0079138,0.02300783215003028,-0.005493206953549708,0.0007377913190525195,-0.012339179804770097,-0.013971076971435153,-0.020300780780919618,-0.04863040695354971,-0.027445579804770096
0.0083793,0.024390060599079586,-0.0077600665797387105,-0.0005865967640916315,-0.012227019700460208,-0.012304960599079583,-0.021574659101380626,-0.042563689516107284,-0.02599061970046021
0.0088448,0.0250095,-0.0082246,-0.013632643259715064,-0.012448160115870657,-0.013117440042134785,-0.02127286576100402,-0.03162697997893261,-0.02626002012640435
0.0093103,0.02508448639184951,-0.0082246,-0.039958351789646795,-0.010658879393832102,-0.014090773693222734,-0.020366767083089658,-0.02532804738644547,-0.026052538617519713
0.0097759,0.023316862925558908,-0.009775832630210287,-0.07551924032379445,-0.009935073459883018,-0.015249708312208708,-0.023044491800537553,-0.01556449908550831,-0.025826003755231638
0.0102414,0.022069705683075508,-0.010879402221930078,-0.09302859170037975,-0.010255627120790834,-0.016747750119378627,-0.026093941581001118,0.0099031,-0.026074172640451906
0.0107069,0.024519419011032894,-0.01859390877768088,-0.07991774883217977,-0.008637490494483552,-0.021318107857237943,-0.028250718090589957,0.030051046950820278,-0.026920779340688598
0.0111724,0.0263523,-0.024724039004224537,-0.036776915112746236,-0.008676999717598844,-0.021993567394109508,-0.026158414406743352,0.03467833928662569,-0.027262457203371674
0.0116379,0.02543097517766026,-0.0284172067590875,0.019974022586717474,-0.009317625352526237,-0.020450264370892885,-0.023432468344740054,0.03171561703566837,-0.028011347335224507
0.0121034,0.026733932505402087,-0.02503390501417568,0.07631128002049725,-0.009156107500632157,-0.01740555500463582,-0.0220508475066664,0.018874342503582223,-0.02709483000519137
0.012569,0.026626268878725413,-0.019370898474476785,0.10022540818919862,-0.00814229183830055,-0.016555368878725413,-0.020470592091592656,0.011739114544583582,-0.02553686071702596
0.0130345,0.025730727588367926,-0.015490219549594349,0.08589683646625618,-0.00694823678449057,-0.01565982758836793,-0.017933180640857787,0.011589902124245991,-0.023447264372858496
0.0135,0.022517434115567465,-0.011444527863341325,0.05395841554871117,-0.008359134559256779,-0.011731489194442411,-0.016832355294810843,0.013541986176297288,-0.024332373861667138
0.0139655,0.01977456733357901,-0.00880209547819678,0.020589083176450917,-0.011920817086844365,-0.005110024491535425,-0.016762017218492006,0.015060076752437035,-0.027313620101379846
0.014431,0.023303123284307857,0.0014425325527589368,-0.005628389297377517,-0.01337736601306966,-0.003297599282914298,-0.016076184477128098,0.012063882516337075,-0.029570048792716543
0.0148966,0.023656160827847373,0.009762578751118791,-0.028693417879783058,-0.013906908598310536,-0.008439925751443245,-0.016624126114768416,0.011868117196621073,-0.029917599636674827
0.0153621,0.023985242582502158,0.011177270330008635,-0.04431069165354338,-0.013772181264217717,-0.01476325676098077,-0.01916544066001727,0.01573981099002591,-0.028443710934209082
0.0158276,0.021728061366898282,0.007210882317645646,-0.05037851327346087,-0.013482468390506172,-0.01764445049025895,-0.02201118122818131,0.014906270351541977,-0.0284513993463214
0.0162931,0.02066935712737499,0.007898443419518331,-0.05848873751457585,-0.012257771709759165,-0.017628971709759165,-0.023652384870722503,0.011634088807350819,-0.0280308
0.0167586,0.018918072655707583,0.0078889,-0.08161167882811177,-0.013980427344292418,-0.014169345311415168,-0.021939358418161376,0.010142077213089653,-0.028318704557382068
0.0172241,0.018162132118269284,0.0066812291451826215,-0.12600839321550217,-0.015817223562866117,-0.009384210461108752,-0.019770198964037693,-0.004324676437133882,-0.02821232827543934
0.0176897,0.0172885,0.00593103110765663,-0.13880901615075902,-0.01627201148205723,-0.007590754071771086,-0.019983488517942773,-0.032911513217734924,-0.027713877035885542
0.0181552,0.015255953050940475,-0.003040168806058798,-0.10407705693273368,-0.016397437384172087,-0.010448527540093507,-0.020263872180715348,-0.057862082531930585,-0.024974139464664265
0.0186207,0.016201197256338448,-0.00959360504696012,-0.06693904564282256,-0.01419587992225027,-0.007219087602781195,-0.01934855883218021,-0.05825839012626125,-0.026421089224031667
0.0190862,0.014672650734167366,-0.01780289742869214,-0.0476800486197185,-0.01333857569014075,-0.00529485966197049,-0.019028035084507375,-0.04383476556160675,-0.030262986464788876
0.0195517,0.006796195592481382,-0.02758311640100481,-0.027460186351036878,-0.013565937706934617,0.0006376317456910738,-0.017392767228743274,-0.03549807050894424,-0.03309989396775735
0.0200172,-0.0012305489354260076,-0.033916493278734354,-0.0009186638913628604,-0.013906869663936717,0.0042609663033038965,-0.01482457302456954,-0.02579767075402503,-0.030577742688506257
0.0204828,-0.011935984012028528,-0.03736378430771675,0.013096004069658681,-0.014145753921814568,0.005006508440030564,-0.013399264548287318,0.0014916598797147193,-0.02872088401202853
0.0209483,-0.02705767006690981,-0.040624175081296524,-0.0033301162856062263,-0.013940847378149141,0.0028203327620154,-0.015647389512596567,0.03777705582044345,-0.029354905243701716
0.0214138,-0.04881037563431764,-0.03837436033568776,-0.018173887293983067,-0.014037385611997839,-0.005575086328012971,-0.016971945494144953,0.0578279309115302,-0.027438232275698568
0.0218793,-0.06392253598384048,-0.0352763367064237,-0.017911493340445204,-0.013607668998437702,-0.010417638332633719,-0.016905324006249188,0.06332491466214285,-0.02451613497656555
0.0223448,-0.07208144687652748,-0.018841315555518708,-0.006383521813938893,-0.01236422031479122,-0.016781885894749608,-0.01726889375305496,0.026847564080810713,-0.018995906172136614
0.0228103,-0.06340802368365482,-0.0011157095358177557,0.013536896905451705,-0.01073234123781932,-0.019322717524361363,-0.01680482090088566,-0.010891050461857947,-0.015135608300322734
0.0232759,-0.05568376839157865,0.004866151461336018,0.023470057141821973,-0.01089245506186236,-0.0196384,-0.016316889876275283,-0.014761150618623594,-0.017782450618623595
0.0237414,-0.05474045430900342,-0.001504565360583376,0.007691836095690875,-0.013044492683776875,-0.014439685852978501,-0.013335409109880954,-0.002009814625996886,-0.024356643411914
0.0242069,-0.05567072677719702,-0.007499662426527285,-0.0477477707108788,-0.015158301924142449,-0.008991425073904106,-0.014029652218033312,0.0033552670086765585,-0.02602998572237159
0.0246724,-0.050699351997897546,-0.009386887226845102,-0.12223118203962745,-0.0172885,-0.008748081664944167,-0.015191317882416858,-0.010592809313245967,-0.02553648978147608
0.0251379,-0.04292408593017533,-0.007782746311621041,-0.16248441327529578,-0.017253115437207013,-0.013817588807521758,-0.01746542281396493,-0.026266105325684394,-0.024515022813964935
0.0256034,-0.036890249992893205,-0.007127476523468767,-0.14415031718100588,-0.016983509565433597,-0.018899265209824146,-0.018598485214796852,-0.036955029128028574,-0.025985890434566405
0.026069,-0.026824965207958455,-0.006784338656660782,-0.08367090703100563,-0.01486280760165642,-0.021672621417794777,-0.020460588022218954,-0.0496779462583172,-0.03136304778236498
0.0265345,-0.018312710485358007,-0.005917754513477555,-0.0285300932661228,-0.019973974794875077,-0.021411494724525696,-0.0213597066682866,-0.04893869728958459,-0.033789254096140045
0.027,-0.008824571551063575,-0.0064961137957457,0.0029105089635075255,-0.018888401286167537,-0.01868838791914435,-0.02122402930638145,-0.026623741815959615,-0.031537758612762895
0.0274655,0.00036594943374540034,-0.009310029412886306,0.013567826467784233,-0.01825419705871137,-0.017807717643918343,-0.020102785293556847,0.004254422965961168,-0.029874911765154524
0.027931,0.006346544899898521,-0.012157972413890055,0.006447968965274861,-0.017969402758610996,-0.009833477241107846,-0.01867881379305497,0.01735487593462366,-0.031014088965556023
0.0283966,0.01201298092074618,-0.012914303744240718,-0.00850721097568478,-0.01637223623555671,0.006177497473947979,-0.014817481010420809,0.032422556968737574,-0.036082348429430186
0.0288621,0.012815200510725891,-0.011558121194506514,-0.016882363583519546,-0.015344736416480452,0.01589874238901303,-0.0129244,0.04867749082111773,-0.039858930954673764
0.0293276,0.01375067852482802,-0.01127908825532029,-0.01584613523403913,-0.016303525503546863,0.0150917662434524,-0.01292992972817272,0.05524085449877269,-0.04322579871875945
0.0297931,0.018050298036755036,-0.012200435293590365,-0.013082094119228905,-0.016917756862393576,0.010024403275546588,-0.0130834418253048,0.051094838569136956,-0.045682632668987116
0.0302586,0.022431896149781465,-0.012592423761226603,-0.013486971044578055,-0.01744040007970058,0.011613413805722568,-0.0129244,0.0395082136463214,-0.045533148114741025
0.0307241,0.020712887851520412,-0.013786572935483344,-0.014661254731238126,-0.017581804611120244,0.02557795561062703,-0.0149386,0.019412570611449055,-0.046872295388879756
0.0311897,0.008993548514923106,-0.01521867900668372,-0.010583604849507967,-0.017276021251590522,0.04197139476308067,-0.014639199225177273,0.008086248773197349,-0.047215500129137125
0.0316552,0.0024509762184485454,-0.016498789867608214,0.0007946970167844966,-0.017133749050922475,0.051642938638988466,-0.011225683244407937,0.0026815151369792333,-0.04778441945926534
0.0321207,0.0061746115161329385,-0.01507127445852395,0.017304555414760496,-0.0171206,0.04913598380875269,-0.00843687913363832,0.0009453395668191604,-0.04660033956681916
0.0325862,0.01602820062022055,-0.01256635171270016,0.03163066720468545,-0.016998453717941186,0.02729972623875004,-0.008178946282058815,0.002355818411683004,-0.037499927364673204
0.0330517,0.022588160049509004,-0.011399366817595541,0.03843041553525515,-0.017538503883813786,0.0009003275062884728,-0.00900312652713001,0.0020463841247703157,-0.034651665385650454
0.0335172,0.02714433871780478,-0.013747912905934927,0.03469957539736322,-0.0169528,-0.013995090714059749,-0.0097162802227387,-0.001745323397255976,-0.04678005970044688
0.0339828,0.030782984697392657,-0.014917573253454951,0.02367690044483759,-0.016959808915515018,-0.017153892870659056,-0.009539364337939935,-0.006255957950847605,-0.05686235096466741
0.0344483,0.0378021989536405,-0.012685244420729077,0.00839935811013316,-0.01766405926321182,-0.0203098,-0.006732330731324991,-0.01107274079014776,-0.053447355579270925
0.0349138,0.043774463106442806,-0.010484875111654536,5.946306689085456e-05,-0.01823449090804121,-0.024796886342285843,-0.0050477203621420485,-0.014814738218097343,-0.0502585834290329
0.0353793,0.04860161939325421,-0.009020358882185015,0.0029279500518762337,-0.0182956,-0.020645565277434774,-0.004413843552874006,-0.01864366690631896,-0.056689420918385934
0.0358448,0.05581964275130641,-0.006903504718288622,0.015808236784172064,-0.01580493143665331,-0.022966361453200232,-0.005526339453124167,-0.023283974187959716,-0.06653481239223816
0.0363103,0.06289552690024461,-0.005055262547762275,0.018989929087062873,-0.015016788069745855,-0.03775976573074336,-0.00675669163482515,-0.02348325679586472,-0.06968032908706287
0.0367759,0.06896174081801226,-0.004273496743862071,0.00682653162110349,-0.015532703256137929,-0.04566326575986819,-0.008070006512275858,-0.02037990214889042,-0.06702258371931036
0.0372414,0.07247148897700283,-0.0034391041802414573,-0.0048388368011692984,-0.01622420368503262,-0.041990884610291296,-0.00888169414766196,-0.019642003839402004,-0.060850811859045464
0.0377069,0.07866340898034757,-0.002089397006550808,-0.01630452245086894,-0.0176242,-0.04912190898034758,-0.010082554329173415,-0.019221686529478636,-0.03584465137717704
0.0381724,0.07914558244851301,-0.002422758219263265,-0.02188070859445513,-0.017263131710744412,-0.04831186962615114,-0.011340841780736735,-0.01707317910963163,-0.015955194659132796
0.0386379,0.0807294990385776,-0.002066350845179799,-0.026711225869800487,-0.016466580697141936,-0.0346173742956835,-0.0204484731687771,-0.011581732271258924,-0.005597089119927949
0.0391034,0.08251202945005345,-0.0020300688856837432,-0.03443404992498691,-0.016285301814288992,-0.011142006222863252,-0.02784610759501898,-0.004954601372155727,-0.007244496963581466
0.039569,0.0856369490916287,-0.0029351215637786615,-0.04470649584744548,-0.015293450129767329,-0.000799754282321846,-0.026793328565988667,-0.002690051167905958,-0.018287173245528192
0.0400345,0.08767697550234022,-0.005276010537846999,-0.059348934077869425,-0.016546072080374435,-0.015688221146588202,-0.01882405549640728,9.677736991268533e-05,-0.0317235
0.0405,0.08840809906226871,-0.0057294539201752604,-0.0767298696254234,-0.01862809248040894,-0.04409942357014576,-0.0126709383875804,0.0024660771204673615,-0.03976746992163577
0.0409655,0.08947621607738875,-0.006033444410254752,-0.08958033573457513,-0.018967,-0.07801605574359886,-0.008025081572653995,0.004046611179490496,-0.041120521897420145
0.041431,0.09054773986747516,-0.0053394160353399545,-0.08707982758624638,-0.017823783964660046,-0.09269367900462797,-0.010066359911650113,0.004434311330031704,-0.03567046837106952
0.0418966,0.09161801539132108,-0.004629642304339461,-0.08143598166177149,-0.017017961536226308,-0.10501053081170016,-0.012598592318868463,0.004466738463773693,-0.03352243075358415
0.0423621,0.0949777496772319,-0.003910385785308228,-0.07950597206777406,-0.018252421893384555,-0.10584129617111784,-0.013496028429383545,0.005577450819925695,-0.026524842146917724
0.0428276,0.09467392679871646,-0.004239099520342275,-0.08226598380410692,-0.018924100479657726,-0.08829249488658802,-0.012817151199144313,0.007597762281625419,-0.024117144963593885
0.0432931,0.09158207428047824,-0.004976508129310239,-0.08212841230141786,-0.019892418903017323,-0.05699214899076642,-0.011409066151167987,0.009707876924875068,-0.036015194711206316
0.0437586,0.08717156558724146,-0.005500489608505697,-0.07643500114422389,-0.01883221362976994,-0.00692707021087666,-0.012805903914943025,0.010452209006134734,-0.0576718796845679
0.0442241,0.0820853089382063,-0.006041966752253796,-0.06939444914361541,-0.02166852602230908,0.08072732456630129,-0.015591478564161931,0.014291844669005842,-0.07363912444342702
0.0446897,0.0827497,-0.005466382029244762,-0.0574529582321507,-0.01585208394024363,0.17473735214447822,-0.01642499881729349,0.00994508175536657,-0.06761103925922492
0.0451552,0.08270554018694297,-0.005057578966918036,-0.042177055951700244,-0.017332659813057018,0.20790165735866817,-0.0162814,0.005939134456156399,-0.04668750148924825
0.0456207,0.07949713613015964,-0.006326038723155225,-0.017002062313209228,-0.01823778063842239,0.21056698349773922,-0.017632006197178137,0.0021688162900375596,-0.014819008178255707
0.0460862,0.07592638078478979,-0.00586481264073102,-0.011679311312721966,-0.018678435113141725,0.16685901477208337,-0.016434994381897324,-0.008301397190948662,-0.007152880413157248
0.0465517,0.07903807099128865,-0.007907540513751924,-0.009525099635025907,-0.019051892044241642,0.09226504381637678,-0.01895782399060375,-0.015208048469510278,-0.01453220330262485
0.0470172,0.07826753157098833,-0.007967612286007784,-0.02099969356342972,-0.01738806314197665,0.014556495426589267,-0.0229953,-0.018853622708856016,-0.03002884028189882
0.0474828,0.07708811884222172,-0.00554547412031739,-0.03958607639047829,-0.016404406357486977,-0.038168299771391315,-0.026364821112382635,-0.023695834505699974,-0.03862524756066088
0.0479483,0.07369674125005667,-0.006842988469984373,-0.05564733090355668,-0.01576457952659374,-0.0847639,-0.025895411378393556,-0.026599435689912087,-0.038662569331715836
0.0484138,0.06919969153342431,-0.008845384489882766,-0.05566811765494313,-0.01606733418393701,-0.1307564940824077,-0.02006651887872616,-0.022661594082407695,-0.035981557756472445
0.0488793,0.07042731547683806,-0.0082246,-0.05190583981643484,-0.017234765740509306,-0.1667719834137089,-0.012964839816434842,-0.021496008862758716,-0.03471123831649853
0.0493448,0.068612036093966,-0.007247261800870275,-0.04581624118976209,-0.01824883145577528,-0.20143379961895516,-0.008932138696371439,-0.018223181649888752,-0.024270074293095734
0.0498103,0.06711065133922736,-0.0072175,-0.048468018854985605,-0.017987670267845472,-0.23239367075789544,-0.011359437857236213,-0.01553811340835865,-0.00832584565561792
0.0502759,0.06544867055040703,-0.007939032732161622,-0.052035472678383786,-0.015820368169595946,-0.26022854265149487,-0.01566500508608379,-0.010433939044464598,0.0009340810470362261
0.0507414,0.06546106673144296,-0.008426158623104377,-0.04610785542074148,-0.014636088786462963,-0.24905628415537692,-0.013998917246208754,-0.005605031015164983,-0.006277470688447811
0.0512069,0.0659591435322355,-0.009310690978286705,-0.02208693736332336,-0.01500629989126375,-0.1791783737763853,-0.011437687364331796,-0.0015684921460206343,-0.019553752553948797
0.0516724,0.06408714236618139,-0.009958198792179717,0.023695454010357754,-0.01615467113667619,-0.010849993960898585,-0.016014723165062323,0.00322215927530783,-0.021936105822266943
0.0521379,0.06591834741433651,-0.010678064605076473,0.049590973987603634,-0.01624910238163245,0.1800037108204088,-0.02059505151428597,0.005794721529566844,-0.012823503028571947
0.0526034,0.06404110300193891,-0.012965958503826498,0.05169176651066399,-0.01507435450290836,0.26793043611849715,-0.024466495468110666,0.01271340247096771,-0.0035753700435740936
0.053069,0.061202837607445736,-0.015274291050736837,0.023648127938560425,-0.01376986938655638,0.2286541255421787,-0.027819432192631676,0.020260053856812132,-0.0011624822088935935
0.0535345,0.055880325791965064,-0.01651171200903417,-0.009114195993843086,-0.013077941339356114,0.10772979822610328,-0.02821902047971146,0.022736370669678055,-0.009117223091904842
0.054,0.05562586762111314,-0.015654469153383855,-0.020426288868514237,-0.012713601634465119,0.014455158529683307,-0.02760089397311158,0.0142544386101641,-0.02276444310478181
0.0544655,0.05525658324991958,-0.014404257172241712,-0.01854904763895227,-0.014198652923133782,-0.028332316750080418,-0.026759987499027513,0.0015380475498537527,-0.035943716839178935
0.054931,0.048937898536340646,-0.013688364830374906,-0.014775682820660104,-0.013578782212451127,-0.07087369959452734,-0.02472070616158933,-0.004294669483799818,-0.0355439341114384
0.0553966,0.04853427270031386,-0.01321977608886492,-0.03562229828105135,-0.014582649731414274,-0.11688559980980454,-0.023062126489558056,-0.008774499594935956,-0.028340175254063713
0.0558621,0.0479618256213908,-0.012488598445171726,-0.08477244257882298,-0.014453972094926404,-0.120281366709229,-0.018420114729950934,-0.014318465931814859,-0.017602226406446875
0.0563276,0.04185997829572278,-0.012514282199803146,-0.10223396998313285,-0.014229991099901574,-0.062202607136475005,-0.013353942149360224,-0.013018242149360225,0.0012946463056551973
0.0567931,0.04104746318597689,-0.01042310397358226,-0.07009978589519088,-0.01448069418875327,-0.026346460107154586,-0.009573239892845413,-0.009082294487006589,0.008315625082651388
0.0572586,0.040116,-0.010287400122379142,-0.04416239377511717,-0.011678800244758286,-0.03659249873541552,-0.005717200448723524,-0.002506000815860954,0.011278300081586095
0.0577241,0.037671998095895935,-0.008349715571962634,-0.03524649737271032,-0.01063766905541663,-0.04223178068644475,-0.007468966228785054,0.005162418199252311,-0.001724889682616719
0.0581897,0.03728076803360074,-0.006949814530181485,-0.03440472734909258,-0.011894466838834827,-0.006292017436217781,-0.012602302906036297,0.01061530871810889,-0.023331
0.0586552,0.033402,-0.0072541762920697314,-0.03803406078723295,-0.011953976292069733,0.022564356299510115,-0.016476008203093487,0.011403831911023754,-0.05002036411642752
0.0591207,0.029960132178957696,-0.007990747453016806,-0.05287612718350085,-0.01158539151005602,0.006055655958640897,-0.016826400007840053,0.010299115281899165,-0.07120765425281204
0.0595862,0.026598766179960046,-0.008179983089980023,-0.07801428764510744,-0.011626216910019976,-0.008498747154575359,-0.01693049154499001,0.010205340640162259,-0.07225757561461288
0.0600517,0.02543007965913516,-0.007595639829567582,-0.0863411355892093,-0.012210560170432419,0.014290552967959008,-0.01663831991478379,0.009767126711628354,-0.05574992202473683
0.0605172,0.024031345309536576,-0.0082246,-0.0813019728400415,-0.012022925415180997,0.06116807678419644,-0.017029491528273002,0.005635213537952495,-0.036825924812118965
0.0609828,0.021354392383734877,-0.008108635306540267,-0.07234735820414986,-0.010106263281659944,0.07341810968295953,-0.017673896334289705,0.0006447629968154077,-0.04125689515852023
0.0614483,0.018954948585139957,-0.007175557982550866,-0.06968130953904439,-0.009039843815617758,0.05235640464622137,-0.018073763925258012,-0.0036208354497583115,-0.05178774767688931
0.0619138,0.015495599807678445,-0.004966480666770494,-0.0684807954952025,-0.01001610487333492,-0.009821660965003571,-0.020196795126665078,-0.006766004488691812,-0.05030269551130819
0.0623793,0.011806814471461185,-0.005544678526275236,-0.060383910520157666,-0.011124038379556462,-0.0600135537178365,-0.022095896265401198,-0.006780524341504709,-0.04474629188068825
0.0628448,0.008283804580408135,-0.006969547019578627,-0.04727618686528857,-0.0072016621970405325,-0.07454282924865617,-0.02119794111453877,-0.008993318489041209,-0.0482636661709357
0.0633103,-0.00407605752176534,-0.008061230819600326,-0.04809839068863948,0.0022579005382449497,-0.054889306464709124,-0.021431253559756676,-0.015578917390804496,-0.048762420276323264
0.0637759,-0.017268670475909655,-0.008851558809488706,-0.061926829096156405,0.012744244166789525,-0.013591011238487011,-0.020265358809488706,-0.023538165189979112,-0.03565036792756537
0.0642414,-0.019368890697679362,-0.00845987063534825,-0.0745510389618987,0.016950426744198402,-0.005073291860442879,-0.0203098,-0.022738843503562006,-0.02720811937981696
0.0647069,-0.01088519441560771,-0.008305059152023076,-0.0789251810632687,0.014898370423988462,-0.024041268976299986,-0.0196384,-0.011146692651576662,-0.015576015828192579
0.0651724,-0.00544817616075445,-0.007900560769559736,-0.07943934307823894,0.010726090004276564,-0.04697410652614809,-0.019962439230440266,-0.001235666165031013,-0.009765633082515506
0.0656379,-0.002180256347719448,-0.00881711433248709,-0.06740401576961126,0.014642342833756455,-0.03069798632233219,-0.0196384,-0.004105972053587905,-0.01749618462154118
0.0661034,0.005740214492893869,-0.010181310144887466,-0.02246593042146768,0.020770748088967568,0.03347098782613504,-0.017635697971022508,-0.019362448695459836,-0.03006630172573136
0.066569,0.015162469030355554,-0.011898730535414813,0.02655740173510536,0.02008241405810661,0.06809053313897943,-0.01812447165872552,-0.03130039242509301,-0.041306385408442385
0.0670345,0.029491571298070333,-0.010708718812867671,0.05183713592060698,0.018069103462005385,0.012906866263941932,-0.020968201213733398,-0.038465564015669945,-0.05738805048540776
0.0675,0.04942570553217835,-0.010642301282420948,0.041216480113579805,0.008439982399732844,-0.05458379754618144,-0.013962623243468838,-0.041080777548737915,-0.08167828436333721
0.0679655,0.06273183429609612,-0.011493968592192226,0.0228780544822333,0.004009474518569698,-0.07725716386902368,-0.004645828941843202,-0.0473907524975523,-0.11641387379664435
0.068431,0.06575358987498582,-0.012389823590903936,0.015926573068220477,0.0006276908258086584,-0.06376939828229017,-0.0013363910227401586,-0.04423110543945276,-0.1341809297972437
0.0688966,0.06388894465465284,-0.013808189309305685,0.007691024111905986,-0.007127669596809063,-0.041676192686323284,-0.008840397077341113,-0.018173888286913922,-0.13608466372064923
0.0693621,0.060086467213257944,-0.01232144467219081,-0.007769655521927855,-0.01400026781732007,-0.03269605655763956,-0.016148047520088894,0.022346047088439305,-0.12296440903755067
0.0698276,0.05514043767465705,-0.010565393074961895,-0.018522016899542738,-0.012833330749618949,-0.03540960281496516,-0.012651192248856847,0.06402470891389822,-0.11044616832212735
0.0702931,0.052553966586022544,-0.010278007398446948,-0.015073388781363387,-0.00995947398446949,-0.056388671592669255,-0.004029621953408469,0.07695697874918382,-0.08400685729852624
0.0707586,0.049978170186256055,-0.010778466038659344,-0.014373151157333227,-0.007387736911243136,-0.09422471441429271,0.005041019459567317,0.05913848374601841,-0.007093712362068124
0.0712241,0.04824225230070163,-0.0102388,-0.010895983036122788,0.001932914898413655,-0.12325350582155359,-0.0033509472614880577,0.03471461497654057,0.08725508247236603
0.0716897,0.04410076391127127,-0.0102388,0.0007520928153956796,0.011769132952184274,-0.12014733169931023,-0.013704861002299236,0.02526670724149743,0.1113277777059638
0.0721552,0.03782746124571542,-0.009863908749387917,0.023443425012241653,0.01579408373714626,-0.0959476012359221,-0.027650760009793326,0.016073571231025433,0.08613733646010088
0.0726207,0.03592136757465455,-0.009609766893663637,0.028526262126727285,0.008677695233063651,-0.0890008119394719,-0.03273383514930908,0.005229503767581021,0.09026833578603793
0.0730862,0.03701544571826554,-0.009883286429566384,0.023055871408672317,0.002933784979105934,-0.08818033480913509,-0.034921991436531075,-0.005437676655254733,0.12363755621143036
0.0735517,0.04545914115146142,-0.01011653569305265,0.013172319827104513,-0.002991340271692909,-0.06732682245111898,-0.03941664115146142,-0.014725419580110958,0.14374863782308003
0.0740172,0.059590762432693845,-0.009498567623365373,0.005657366188317314,-0.006464986044812508,-0.023196411514327473,-0.042081630639522936,-0.014265655103225939,0.12817295926742195
0.0744828,0.08590858852075699,-0.009117000058409586,-0.011240278209705714,-0.0070032354716776405,0.03186975548485804,-0.04967862481016884,-0.011915339659743928,0.11973718218895994
0.0749483,0.09569642149678052,-0.008195504299356107,-0.039179436032832665,0.013694332290881343,0.07230442932221139,-0.05441169381255297,-0.009902598111909076,0.10959215159227327
0.0754138,0.09266575059646273,-0.007589370119292546,-0.05463576734530837,0.03672734085415154,0.08548780259902128,-0.058503054388409456,-0.013387824507702005,0.10231854143151055
0.0758793,0.08359251476182404,-0.008146031569066453,-0.055854515784533224,0.040473126276265814,0.07634461536704734,-0.05919186782571025,-0.02663800622164112,0.09536335274026903
0.0763448,0.0698558862286869,-0.008375727003792972,-0.03239422005082781,0.02482629689201003,0.060491622104158774,-0.05240231601524834,-0.04493718067860971,0.08032931825918357
0.0768103,0.04473082563667766,-0.007305678636774178,0.005597599885447041,0.014402452227561613,0.06556009411435992,-0.03437076738520574,-0.05535382899932437,0.032088765863853196
0.0772759,0.019806097099670256,-0.009759259604439966,0.04634993657270072,0.0007342431266469242,0.06735551920887993,-0.026419293653454304,-0.03782832862499822,-0.024885171411503607
0.0777414,-0.0040588451894824785,-0.010505370128641382,0.06610458407215712,-0.011714618017065118,0.04801067582016326,-0.024970822666759346,-0.004349550592931932,-0.0262332972954918
0.0782069,-0.024916155546509212,-0.0111755925686619,0.06651143067192557,-0.01955043450082769,0.01875814805592676,-0.03188865633388512,0.018200459769099297,0.011102250142855255
0.0786724,-0.04423147138619002,-0.010210881808241737,0.05170403861417454,-0.029819605211025856,0.011216614252234542,-0.04312265504701452,0.028017526761227218,0.0494749902683698
0.0791379,-0.06421211983678768,-0.008336456568608172,0.0412533331882926,-0.03886667439552445,0.04545060734898212,-0.043752771715695915,0.02424475589865104,0.05082101447713061
0.0796034,-0.08629659070350526,-0.005905656815117746,0.02557322476365574,-0.0489108385965307,0.09400345799215354,-0.03098053951103122,0.018063758389507988,0.022459390358122153
0.080069,-0.10581670312718625,-0.00532016662220626,0.014735698819954438,-0.05563974363923924,0.11237343387812643,-0.020861792042249784,0.015129142648970735,0.007082159844501606
0.0805345,-0.12655872508778357,-0.008101522516536763,-0.004520967910669693,-0.056131645060500446,0.08842893637726724,-0.009068010813488209,-0.003845457097181487,-0.015059157573176947
0.081,-0.13597852703064736,-0.008857908041003674,-0.028002823978378992,-0.05660533098679295,0.05504919886990497,0.003290212933859599,-0.030045,-0.08152851603488062
0.0814655,-0.13756355830578812,-0.0064708980704632916,-0.06511892963012297,-0.056399755755019244,0.039113711510038486,0.001199567886289909,-0.0535165256709477,-0.1605264172986486
0.081931,-0.13256128662826025,-0.004995791401547461,-0.0938116804532877,-0.053241050279448955,0.033172855641012744,-0.011715398463601529,-0.0586558658551186,-0.154916794802528
0.0823966,-0.1309123637195522,-0.004248792725958452,-0.10295611598460779,-0.053406402498192874,0.01704593961977177,-0.02170092847557213,-0.05550550727404155,-0.11037836000537174
0.0828621,-0.13194551412478325,-0.004676116145625075,-0.09287358170312726,-0.06132154407221905,-0.013377648697686956,-0.036711730245544014,-0.043149428237134364,-0.04526092782105244
0.0833276,-0.13668293509110568,-0.005897992702115745,-0.06618730282308345,-0.0709147572609641,-0.03083470997328713,-0.043708796176034896,-0.026505431815903507,-0.029382124518019255
0.0837931,-0.1372773577356792,-0.006765130385836763,-0.04189111243345912,-0.08038915184132106,-0.04010080598412588,-0.043323968602165135,-0.014268828639328095,-0.04850512881886357
0.0842586,-0.1306063167919574,-0.007605997882191958,-0.031173981645663637,-0.09117668926045283,-0.038880109177168186,-0.03381689420200494,-0.011961295613876965,-0.07801794280768169
0.0847241,-0.12410961784041352,-0.00831561327821592,-0.03929778796692956,-0.0929262581477858,-0.0356990709261071,-0.03639833488123599,-0.012732038616672405,-0.0607550423249387
0.0851897,-0.11251620255254044,-0.01094010149269291,-0.05293134755195992,-0.09420729680561346,-0.03592818763134175,-0.0495145445665741,-0.011719063965851519,-0.04374888336512894
0.0856552,-0.08692977269739453,-0.01361788736009431,-0.06093925211918247,-0.09831189131006485,-0.043279478670159154,-0.06670003015375897,-0.01828828325571233,-0.054053520539846744
0.0861207,-0.049230662074099193,-0.013574913293940697,-0.05321123162793912,-0.1023246335302965,-0.04382439092462714,-0.07999099341787405,-0.02947803353029651,-0.03457347804453951
0.0865862,-0.019029814856523834,-0.01329104516353439,-0.0431373,-0.10384712472744267,-0.025877810565172858,-0.07869827302788802,-0.03063950089224164,0.02569875652065777
0.0870517,-0.0015999689998492438,-0.014177312986855218,-0.0431373,-0.10237001168857464,-0.01228845860955519,-0.07323299878506043,-0.018822684583265626,0.08389674624615372
0.0875172,0.012064531144165346,-0.012295467030640012,-0.043510227381110406,-0.09726504798175674,-0.003741617497120206,-0.06353455943078434,0.0055915676768944905,0.10554127975890223
0.0879828,0.01556427658407518,-0.013924267570403602,-0.03123737698332771,-0.0996416829203759,0.01568461227334891,-0.0702072658407518,0.020890938017804325,0.06120584134446625
0.0884483,0.015379726811363736,-0.011841652385576698,-0.01858413188636263,-0.09749335130034867,0.025016437136932145,-0.06569974897796987,0.010478787630371321,0.007837625246719588
0.0889138,0.015439971649866525,-0.011452989562333156,-0.009153220875333686,-0.09473997478825509,0.022563781736490356,-0.05918974767640148,-0.014742419110489298,-0.021939149400988667
0.0893793,0.016519765593204734,-0.012839228769746473,-0.0071837440679526614,-0.08994063682071096,0.028721563177915382,-0.04831424245501247,-0.02685731267468571,-0.01268298792630055
0.0898448,0.0152743,-0.012708165758278848,-0.007374044921287665,-0.0808836295346234,0.048265662565851276,-0.03343879086176954,-0.026626364162065062,-0.00866518268627917
0.0903103,0.011212475665759274,-0.011873456102880738,-0.005910143092542182,-0.07022953109744544,0.04975553717255565,-0.02085781166794943,-0.021037382218299254,-0.04731299720358039
0.0907759,0.006048036302117293,-0.012155027307498921,0.0009488102936358617,-0.06354297151117223,0.023216738298446733,-0.009929144203673324,-0.016571665304384097,-0.16529038419688794
0.0912414,0.001530301305757119,-0.015438112450818458,-0.0007350021676176301,-0.056165490459032096,-0.00319269470923143,-0.0012645166837219595,-0.020668766948188224,-0.30572332991136497
0.0917069,0.000200478206527325,-0.01829003978160425,-0.005927783501781563,-0.05003033455560822,-0.007174210251263367,0.0030541794299765415,-0.02383985899494653,-0.39187368336678813
0.0921724,-0.0035627098940487273,-0.02030611633960378,-0.027432092991804415,-0.04183182607119899,-0.006636600512189222,-0.004875524184895621,-0.02599029795124311,-0.39536814667077
0.0926379,-0.007750297756443708,-0.021989099638534394,-0.04522743178857794,-0.035147560336546244,-0.02011628833103774,-0.01491249474509861,-0.02831159888569812,-0.3286519883459903
0.0931034,-0.011049124926032841,-0.0218814322234894,-0.036477416163900794,-0.03552934466134451,-0.056615402344947545,-0.0169528,-0.031137594221208476,-0.2283624442315759
0.093569,-0.01332309339788986,-0.02014188207610133,-0.00994400520365433,-0.04261295777867949,-0.09888499857474219,-0.01796029503833364,-0.0323949,-0.14787201301583633
0.0940345,-0.015247880238217272,-0.018571116577972304,0.006729346543605636,-0.043578296452744324,-0.11259843533689215,-0.023599172679510064,-0.030378379874772016,-0.09046270565373205
0.0945,-0.01750079475186411,-0.015662626877424472,0.003072375183890394,-0.044144933297619815,-0.08447113296826249,-0.03745822522231385,-0.026663821552441663,-0.014781322395143784
0.0949655,-0.01540078740700862,-0.01504126693885753,-0.022342576460550732,-0.045587208741441385,-0.05432119229839578,-0.04554213980893938,-0.02304475101498262,0.08589941986145476
0.095431,-0.0162814,-0.014815641370274253,-0.07130465261248572,-0.052659758629725745,-0.06111708842716591,-0.053290172419817164,-0.021762875845502797,0.16417800430349133
0.0958966,-0.015917405161696367,-0.01228740903296864,-0.08433444195901932,-0.0529130367812097,-0.08062232064678547,-0.052685540007269924,-0.017840606452120458,0.164722347782041
0.0963621,-0.01526548293447498,-0.011455603994245963,-0.07695909201150808,-0.05195630066570766,-0.08021685830329155,-0.05059595299568447,-0.017344305325661283,0.14256457849058912
0.0968276,-0.013822501035350342,-0.008933040735469817,-0.03778138297034225,-0.04308931940585824,-0.0697490011939028,-0.04143915703527703,-0.01585956873543316,0.08384181288825639
0.0972931,-0.011203313395201994,-0.006828566744002493,-0.0018945435890913268,-0.030343770379495316,-0.06724894500414168,-0.03189950023200748,-0.010902331840947159,0.05349466336352263
0.0977586,-0.0067151560931237465,-0.004578218618612184,0.0068505454654177326,-0.019279536035565138,-0.0657268588888205,-0.02603918681578733,-0.00533585018034403,0.09131638705497744
0.0982241,-0.0072077998977644565,-0.0043282414871405024,-0.004471477723755189,-0.008271460877532857,-0.04762040738164059,-0.02467553935602573,-0.0004905680796767845,0.17899992908853268
0.0986897,-0.0070887151934925,-0.005515730467496567,-0.02039375396280041,-0.002590227122149516,-0.028730278345201116,-0.019021757388659032,0.007055623575815412,0.18276933928019426
0.0991552,-0.0048082601325565456,-0.010705681039041277,-0.028111853422324487,0.0035330972572743427,-0.012734212330100293,-0.013321369854348102,0.010095217656804354,0.0806034039675064
0.0996207,-0.005444575451737543,-0.006869996931467193,-0.028908066246139123,0.004779078743982579,0.014456049096524913,-0.009201508391440247,0.022188948649100454,-0.016618471390412736
0.1000862,-0.0021960494485742782,-0.006758150602611434,-0.02499178654009409,0.0016077249964165556,0.019482896224751616,0.0002595992306418962,0.028557434906173348,-0.035271343436793716
0.1005517,0.0019331015168996043,-0.006031749451399434,-0.02494992970656982,-5.424598952350032e-05,-0.016771377129951217,0.019367607173177804,0.029817527765782618,-0.03064596270055391
0.1010172,0.003104741295993068,-0.002008497591089234,-0.030330339943288834,0.007025527656229006,-0.043781859626018584,0.0289881852434029,0.03890589654782458,-0.0722754537649324
0.1014828,0.005810307844605789,-0.00014106086743621434,-0.038188851526393584,0.018596377441626323,-0.03074042460322775,0.017122564437901992,0.03821040451848537,-0.13496084786371187
0.1019483,0.004880192392993852,0.003944802701877445,-0.04332488848707329,0.0236304214225182,0.01624746687009796,0.0010251764858982442,0.0428016,-0.17453732201626743
0.1024138,0.00723856584383572,0.006774733619739795,-0.039243514975402904,0.02834889482939087,0.056643294272972516,0.0016015906440262748,0.0428016,-0.17868839028281067
0.1028793,0.009151152209295863,0.009008189899211217,-0.03320255789149292,0.031537381581380315,0.06183068017853451,0.022250918899169275,0.043423139472873226,-0.16053026925588704
0.1033448,0.009956845182037577,0.010066693190394856,-0.031379823101088056,0.032887847096656764,0.030432187537755458,0.02820002232621475,0.0428016,-0.15214041337394504
0.1038103,0.011031316463936597,0.007573349641801341,-0.028430227508855516,0.03482402108466918,0.011182186099022471,0.0221751477521316,0.036729246828850724,-0.19815194011156484
0.1042759,0.01139159669661358,0.009966370555398804,-0.030260303860058343,0.030216154337074464,0.027536929272558425,0.03154608948379254,0.029931055450418305,-0.227765143820867
0.1047414,0.012056571042589798,0.01200819044267072,-0.03189061380503118,0.02529975477866464,0.07038158836844044,0.041101056609917495,0.02307747490562801,-0.14159654874933053
0.1052069,0.014386246947893488,0.012465719193602794,-0.03150792320271815,0.017006065240330045,0.09786754021240875,0.061535984749568694,0.009707907386958991,0.030706036042415924
0.1056724,0.01888871774854604,0.004675680868023429,-0.03296771688797225,0.009181475419101177,0.06671765685472421,0.0647497226298687,0.005756473523668027,0.12841725692866995
0.1061379,0.019884693906322484,0.002361341147149672,-0.015102793497225153,-0.002123947125760809,0.011588905684580183,0.037520556854338985,-0.0011095414411806269,0.11465667660971916
0.1066034,0.02171279001869698,0.004503884341595832,0.006085845536444496,-0.015497015735055446,-0.03987104977477764,0.011858015888358005,-0.003679499472903995,0.09743756074440395
0.107069,0.018758739188280697,0.003956637465159889,0.008950192851592185,-0.023103697682721726,-0.06959798570318437,-0.0033850125736948223,-0.0034706071484078157,0.08486271495040489
0.1075345,0.021238764545195053,0.0009028926676046711,0.006576485819193779,-0.02202005085954246,-0.068056325062593,-0.01740634877886391,-0.0035545032990194386,0.07665423680112704
0.108,0.0260753553861916,-0.002977266622465878,0.008283355386191604,-0.011900453933241907,-0.037912803242429995,-0.01977898261539634,-0.0035017281569868688,0.09182198248279397
0.1084655,0.02848845537740204,-0.007812382775798247,0.00550864946085423,0.005019361791631767,0.0011120042302384583,-0.0053567123581857255,-0.0041351301078291535,0.10762119731832681
0.108931,0.032109027849080825,-0.0114563644528645,-0.007163056995913379,0.017431436075459588,0.0019682713814915317,0.018930257524237465,-0.005746190716973059,0.10681144882280004
0.1093966,0.034155941731922344,-0.014295769018225003,-0.01712103522281205,0.01764116460905312,-0.018852723927099982,0.03092174332745627,-0.005982731863609372,0.09858155914991204
0.1098621,0.03556569701233529,-0.01635331243414166,-0.02473437276829438,0.015703101493832358,-0.00897776182798508,0.0396701866962684,-0.004593967662554904,0.09831384670021408
0.1103276,0.03608283623842237,-0.017609908715267124,-0.035608987152671245,0.017926553668956624,0.018893017923377428,0.058657858293861435,-0.0018844100926210014,0.11969779315492993
0.1107931,0.03740648150965662,-0.017705186918560954,-0.04138988996850983,0.0206455,0.02335448856778699,0.08040211551698358,-0.0008392,0.1557973499378742
0.1112586,0.039805573702589345,-0.019173675720834105,-0.04381107120534581,0.018235452334311467,0.012435591480699322,0.06359480979803682,-0.0037545779995887163,0.1591356839796249
0.1117241,0.041002651240968906,-0.019590696322196722,-0.04022443441784269,0.01971949221570266,-0.02494750285196253,0.014821135243683437,-0.0013847881092085928,0.10252101404332593
0.1121897,0.040176916888568816,-0.022353202044504677,-0.047006930169805075,0.016789423978103034,-0.08750791397099074,-0.018154971101998343,-0.001726234715732454,0.0078889
0.1126552,0.04130165520219662,-0.025264253149196652,-0.057202073564388944,0.025521135668776677,-0.12983083061130768,-0.020156832560168744,0.0015148773579721276,-0.09012548978092312
0.1131207,0.03783619697202335,-0.02823015081889571,-0.06455555639770044,0.02585245194407184,-0.12462122525485922,-0.012791507092793057,-0.0016259915257231688,-0.25694055473782496
0.1135862,0.04500664190465204,-0.030158008395644666,-0.07451472271849724,0.043029277127785856,-0.11184032042772135,-0.00850654630196867,0.006941674809778845,-0.4727128998157648
0.1140517,0.04811593301078208,-0.02959575474708766,-0.08021549367054978,0.05788495885857361,-0.08251935673861091,0.0010811865075592323,0.01505708101164936,-0.5674160089280728
0.1145172,0.047575159511667395,-0.02880668597316892,-0.08104120220638937,0.06434392564250288,-0.04316024108739047,0.009698168936201707,0.01795214428688261,-0.481750264523423
0.1149828,0.041155801596995736,-0.025112041929758695,-0.06842738229128377,0.0693248206827832,0.0406828157006336,0.0036396770604475636,0.02284431739321053,-0.2408384013483091
0.1154483,0.04286501917160539,-0.030478192216342556,-0.07678236605971928,0.07576175885113827,0.08189875311188612,-0.028234603380727398,0.012422830335990231,-0.042732791194139905
0.1159138,0.0448157,-0.025592484742718847,-0.07222580382457808,0.08573346281361388,0.05673280798950696,-0.05204326676599173,0.014363326392009046,0.0707693826602544
0.1163793,0.045463336401715404,-0.020948564226588695,-0.06452108659516043,0.0897636546025731,-0.016799875080732832,-0.052747659221135876,0.015642632234001374,0.13134004533346819
0.1168448,0.04690239891558138,-0.015392503253255864,-0.045189230317705505,0.08894666350921687,-0.08521622239334105,-0.047083646204534826,0.018322394577906895,0.163001300189725
0.1173103,0.04727321690198377,-0.013481758450991883,-0.03452314154900812,0.08752552769933875,-0.08978540528851031,-0.050111133655021504,0.02165901332326812,0.14555205309109326
0.1177759,0.04543300111754881,-0.012453452793872027,-0.036065386589414265,0.08817499082482795,-0.047787229222458004,-0.058229403928569005,0.02444629776490238,0.09211876528739418
0.1182414,0.0448157,-0.01120185981672512,-0.04404416706566861,0.08873143897112579,0.01116239153133579,-0.06733331133160245,0.02545607930607383,0.06507314758389152
0.1187069,0.045138466905370524,-0.009619132378517898,-0.04895994124387404,0.08427355947223754,0.044129132769055376,-0.0815221769309326,0.02471259928388842,0.07980488149961927
0.1191724,0.0448157,-0.011350591323792042,-0.05051014708602345,0.07690040954796881,0.019987127515707512,-0.08962794314806752,0.022881208894148172,0.057990455100894726
0.1196379,0.04371388985619715,-0.012530130775808565,-0.04616553225788142,0.06444017230203002,-0.04948706253745144,-0.09111967169541998,0.020806152659180004,-0.037182388753348575
0.1201034,0.04050411435804324,-0.012635371026653266,-0.04088319736605939,0.053164816991983846,-0.10662727378922401,-0.05954393542956813,0.018675501445600436,-0.12466698011681529
0.120569,0.044610992240222164,-0.011892692383401352,-0.038609753316190536,0.04632375896435405,-0.11313294836588624,-0.021953313580336985,0.010943614248979727,-0.11648475896435405
0.1210345,0.044672589213320006,-0.01158489384880399,-0.03593919517177513,0.04141132785643991,-0.1082153278564399,0.005704556247566455,0.0044791459955731035,0.006943135804436727
0.1215,0.04827240932608701,-0.0017754014894547157,-0.031141935129826336,0.04505040098077524,-0.08769656608699679,0.008029473599387445,-0.004737790165233518,0.10383009767762418
0.1219655,0.04479191107098984,-0.004685469306090751,-0.025172915797778674,0.048083886825058854,-0.05639896791790353,0.03891788974855148,-0.01247384014748691,0.08303684405473441
0.122431,0.04548254847119638,-0.0029137469205349578,-0.023168401683016867,0.05069822964105535,-0.045355301077892755,0.09853384411470105,-0.021976544764749435,0.0146029
0.1228966,0.04470983318078608,-0.0030416139081695433,-0.021664363369260597,0.04494598851814401,-0.04795507942074469,0.14897542302278324,-0.026298920862254316,-0.007748631025150289
0.1233621,0.04407110029709564,-0.004741466270539148,-0.021091562316609736,0.034987864841922664,-0.0530213465375571,0.1205982023199034,-0.029587769927372918,-0.002353468738990364
0.1238276,0.04146372394262894,-0.008665625984825896,-0.022385210248840035,0.030574231181791072,-0.04116845322731339,0.043610715158471765,-0.03473493897723884,0.01720494017296951
0.1242931,0.03899294229429068,-0.012262632018317966,-0.024990588079192112,0.03532194742973661,-0.033346923645756234,0.004184897302989134,-0.03935482259358054,0.03813584163891493
0.1247586,0.03705181575953929,-0.015746551211050244,-0.02538505417701874,0.03953697194801479,-0.04286462508004065,-0.003966843080718168,-0.0421627438115245,0.05188424581700519
0.1252241,0.03695134781574489,-0.017162556074425045,-0.02485451962246574,0.04430506044293527,-0.014836180523460472,0.017387429909334385,-0.04112419906900928,0.06494919331144887
0.1256897,0.035545612991320495,-0.013377345469621722,-0.02104991077910266,0.0451514,0.04681846728496787,0.02985503946783321,-0.04326269907033032,0.06686870649566025
0.1261552,0.03555848721073661,0.0010315036868988898,-0.01915819458453439,0.0445364553370143,0.08735752604923465,-0.007561046245826781,-0.04719075737938627,0.048605405426642594
0.1266207,0.027252408169780817,0.013304251003728779,-0.022679459394945846,0.04913251293270988,0.06097852411403157,-0.0701861468431079,-0.04425909394228515,-0.010306248559862967
0.1270862,0.03311926483307408,0.006835053136470492,-0.022528740037929915,0.06100363942617034,0.014894206581907442,-0.09160006328257429,-0.0485084,-0.08392927373764454
0.1275517,0.033674161747308896,-0.0017097209151068667,-0.023458076505382206,0.06814412288361625,-0.014574373334373775,-0.06936823540217071,-0.047900538252691104,-0.11951610027100946
0.1280172,0.034319550711362994,-0.015475998895362976,-0.009410152920637044,0.07399900284545198,-0.009487641474126476,-0.04031769889536298,-0.04807205529762993,-0.09926508681267447
0.1284828,0.033467372810996605,-0.02156678237615896,0.003893948413451944,0.07039366968621538,0.02353023718167715,-0.04960333012296594,-0.048631286643411445,-0.08556906437068054
0.1289483,0.03177712763205841,-0.02410628115770687,0.012208167241579233,0.06286039507383451,0.054992809251740396,-0.0715371017247377,-0.04946196617901352,-0.1185349017247377
0.1294138,0.03046232015454159,-0.02085856139494631,0.010913752179802954,0.06139203301642804,0.06176360974999823,-0.08624769118132332,-0.05082304875151859,-0.12520052051138852
0.1298793,0.030501735117793704,-0.02538973492342199,0.011550487974800924,0.06409718037503809,0.043934967600462255,-0.08653031840545945,-0.05235524732330944,-0.044349497753618274
0.1303448,0.031597348437331384,-0.02748222158666298,0.0035766636813281518,0.06448918378798757,-0.009929749202710177,-0.08976987461068178,-0.05139899628933651,0.04148156543730695
0.1308103,0.03130001084175149,-0.026233159438882363,-0.002182,0.05948325420875745,-0.04799191681892992,-0.10023399794131525,-0.049741243549781884,0.03923519682870989
0.1312759,0.029220614221510014,-0.023471526847058843,-0.0017708998050810754,0.049337503162126345,-0.0610293578444919,-0.10818956478329739,-0.05526118939004623,0.010287017353840334
0.1317414,0.02722222685725567,-0.019676884713749978,-0.0025790537145113446,0.02984157433593735,-0.058887345813039615,-0.07458070601167556,-0.06334171733438627,0.009915224853363819
0.1322069,0.026326121104883287,-0.017696003785394265,-0.0007344792201498087,0.015472351826927204,-0.043267615773960086,-0.018289175866012225,-0.0537562414901139,0.02699752110488329
0.1326724,0.027165368838261275,-0.015308201510934039,-0.0007375872106218928,0.01156613128011782,-0.03410878767480688,0.026752591164291274,-0.027605763837842835,0.02553623906907749
0.1331379,0.02503544066990349,-0.012041807797735274,0.0011749,0.012993632872168216,-0.04316173050566181,0.024023151299622545,-0.001973821944717391,0.007163449618395424
0.1336034,0.02404966997633942,-0.007918838479123698,-0.001259899984321787,0.019556090441171264,-0.06901960501178254,0.0018484250275562556,0.009264237966875189,-0.0175942615208763
0.134069,0.02398087057195432,-0.006442901114547088,-0.0006327150595042152,0.03366930361101967,-0.09975253714920658,-0.025021039378300757,0.020096328812620152,-0.025336326507988758
0.1345345,0.02346528659909078,-0.006938617446293727,-0.0019083221240560845,0.039186527694810194,-0.12446673084720294,-0.05163573641795706,0.03941660836087943,-0.026858869422907473
0.135,0.0226322009385652,-0.0076333441854797655,-0.002712999061434801,0.042275096480380504,-0.14357949520414948,-0.06747134173604226,0.05979979168453,-0.03817554337853135
0.1354655,0.01964841778859741,-0.007525828032523476,-0.006018796227664328,0.053866704889936376,-0.12887081024392608,-0.06660951890619812,0.07729151625146315,-0.06678901436529532
0.135931,0.019057942296441994,-0.007132706770411535,-0.013038080539887042,0.06639010422219216,-0.03350605321601055,-0.06525888891123623,0.07502111285889665,-0.08352595532453384
0.1363966,0.01981785274966067,-0.006575173260207399,-0.014830808183339669,0.07253503432981831,0.11227460831995023,-0.07471644601151385,0.06559942519553053,-0.1223814821734716
0.1368621,0.01649105020656107,-0.007317626843630358,-0.01594982511631273,0.07134530950192901,0.18267874322393143,-0.06862438354150575,0.052954044346280094,-0.17629550190129822
0.1373276,0.014981353298750968,-0.004528256934928735,-0.019427353093835687,0.06424705350366625,0.13845825020901395,-0.01662981446509538,0.047889769856712235,-0.22264034058188276
0.1377931,0.014842031734552749,-0.004435542405055228,-0.019458891484200644,0.05811994448976475,0.06354184574059045,0.019394444699745564,0.04313289092727153,-0.24351728918951032
0.1382586,0.013653881598483526,-0.005801654422102192,-0.02108712325440992,0.04780560131724777,0.01852536847575387,0.011684965336229688,0.03463119472121318,-0.2237218329899687
0.1387241,0.013222544507627897,-0.007474642780509229,-0.022427177604023282,0.03703132580582323,0.0012969553502093338,-0.022338083078695125,0.013262398032946618,-0.2147168039784976
0.1391897,0.01577060465492616,-0.00583822150880538,-0.021696367316483493,0.0019478217914638248,-0.021105641852039603,-0.044648309168523095,-0.009356235332254638,-0.20999389069014768
0.1396552,0.021965380026360382,-0.0056794416573581145,-0.021142554337469442,-0.08184124933903471,-0.0422880713514215,-0.041668986530750185,-0.022548075271145142,-0.13753629207510393
0.1401207,0.02980150123351946,0.001488787092534226,-0.018387786348730097,-0.15507470471366175,-0.05285209479662293,-0.03175975381837164,-0.033990704958519406,0.014551524058024054
0.1405862,0.03478815491251398,0.005853022543743009,-0.0178518100620037,-0.16957607341860317,-0.05158359629735382,-0.03396049022755883,-0.03359167612790132,0.1076106825664742
0.1410517,0.03327715652315761,0.005121125105545727,-0.022555841727705417,-0.1544195094828929,-0.04431775096072159,-0.057168057686388066,-0.032687372949019494,0.10739801420954567
0.1415172,0.03240097230767136,0.003981829201189023,-0.02589527741444406,-0.15248957440619326,-0.04202686598686904,-0.06196066211854836,-0.03873259064138237,0.02742859583684857
0.1419828,0.03097290226916459,0.003549076801179383,-0.024978774885649098,-0.15623568478993574,-0.020235243637892288,-0.0559452193345793,-0.048394925881799354,-0.0852627089533347
0.1424483,0.0270237,0.0019878190136201268,-0.01770225278301235,-0.15567298987573347,0.011238296847206291,-0.03512645130430049,-0.057235330665441016,-0.15801729278431467
0.1429138,0.0270237,-0.0007157621008678993,-0.00944108179975434,-0.15206818522741752,0.039176136908875885,-0.005386253661970789,-0.061891607513387376,-0.21509451479909536
0.1433793,0.031546438549383084,0.0025306175653272483,-0.007348147399971206,-0.14421027509065723,0.0889085565732922,0.015678809125344525,-0.0613397465787604,-0.2775497933812423
0.1438448,0.0347448,0.011370500198065795,-0.009117421037839166,-0.1391259697700374,0.13394172373146998,0.022399395522990424,-0.061495146434699034,-0.28651778700592795
0.1443103,0.0347448,0.024332511258521133,-0.011653483103034556,-0.13504013396804984,0.14929894648988148,0.03479783723562456,-0.0679761099952106,-0.22114407841639783
0.1447759,0.029885946859635512,0.03305917539035042,-0.014172581002485357,-0.12199067456237152,0.10772149848587116,0.03757757204738019,-0.07383486835458558,-0.05662536970932959
0.1452414,0.02695087896565524,0.03664240738012633,-0.018836933752759463,-0.11923598304566523,0.04837328508750319,0.01925560251323411,-0.08484459136858387,0.11886783767319345
0.1457069,0.01578239934462935,0.019972760647145246,-0.023171386437875724,-0.1037292080685196,0.0030992704940269898,-0.013790763496490546,-0.07768885004829762,0.17592147158234625
0.1461724,0.010550716991854251,0.010419373196331237,-0.025584098174941783,-0.09926115985459341,-0.01492701094741221,-0.00644702668347564,-0.07428501447733553,0.17195717923783618
0.1466379,-0.0004490943898917203,-0.0034568382180592753,-0.026623957767425106,-0.08251695900555764,-0.018439173302275323,0.008249725459592152,-0.06459101596667509,0.1597644016126153
0.1471034,-0.008522356954147022,-0.015065783200663378,-0.026208865605106393,-0.06032298824885355,-0.012561661646574199,-0.013768939652228281,-0.05149186864296809,0.15543919884801663
0.147569,-0.011777781878616308,-0.02556976804694043,-0.025724101647398516,-0.03578256939744753,-0.0009598302023061532,-0.030127339165788927,-0.04145973414959093,0.15252730669294895
0.1480345,-0.010531616494706568,-0.03695498501038397,-0.02640638374148802,-0.011498290793610757,0.00852888825581886,-0.0022180558276586795,-0.03970677368012498,0.09825590239046109
0.1485,-0.006799103557295938,-0.04580665580170274,-0.0266673268277417,0.0032737606329092143,0.0021865289739610378,0.04342613883274892,-0.043948003148533005,0.010212615758678087
0.1489655,0.0015314874125000155,-0.05056159341172184,-0.026768762181104473,0.006526329997305179,-0.006821925231395545,0.05594545679853874,-0.03960889366425234,-0.020919655172305148
0.149431,0.00789645833531287,-0.046401218735895956,-0.026039845316026013,0.005017337471791912,-0.01158915833531287,0.03227112200898842,-0.030778577612765163,0.0168700843115318
0.1498966,0.01334273266939548,-0.03972187655873625,-0.026258764418469034,-0.0017277284083414128,-0.011679378121953157,-0.007670046882527502,-0.01303974140580194,0.061006184652247726
0.1503621,0.015759496391792843,-0.03583479092279103,-0.026730134846201493,-0.005626027231626904,-0.02022553030759701,-0.027821504538604484,-0.005703415627309458,0.06702536970902757
0.1508276,0.020247736288967217,-0.03399065660129585,-0.02710644339870415,-0.011654890588337359,-0.01701130325314788,-0.027667919840207455,0.0006642603922249054,0.050840021190910994
0.1512931,0.01982207631933667,-0.03342316632407196,-0.027673933675928037,-0.01676230308335233,0.0010064707869978646,-0.020574375898334142,0.00406920205556822,0.04956312580544461
0.1517586,0.005333085850430144,-0.03208630193990888,-0.028279874048421277,-0.020169057266317025,0.027847008020281897,-0.005690448789468077,0.005365748096842553,0.06749725844009752
0.1522241,-0.021695697660860682,-0.030090463598909843,-0.0283665,-0.0206455,0.048095108209845194,0.033802494029007715,0.005211565885048762,0.10044850932641446
0.1526897,-0.034577206092254044,-0.02654404185827841,-0.027889144020809484,-0.01841761754617717,0.04055177175817579,0.0907598458449163,0.006476375687898759,0.11139761069564703
0.1531552,-0.025703621149583723,-0.02155876975316573,-0.025860527616244928,-0.024588313991558055,0.02070752844673338,0.11584982837310995,0.011683249434070458,0.07189521543978755
0.1536207,-0.008399319373973462,-0.016498822947404512,-0.02564895331016789,-0.032876650573373904,0.006043145652352854,0.07509161206788316,0.014140414628814773,-0.00600252866344865
0.1540862,0.01239242838772085,-0.018651939214109257,-0.030888915192893107,-0.03959854688611084,0.0003785905691975992,0.022098217554173287,0.014306514139044447,-0.09573867562272818
0.1545517,0.02885744573265129,-0.02043633116072414,-0.036624354040346196,-0.04769337434228203,-0.01768876330967686,-0.04669332500330325,0.01039142032852866,-0.17991004139169056
0.1550172,0.04041994304193999,-0.018571443301941555,-0.03761898065065451,-0.05030430622988689,-0.02465107551074407,-0.07591029650338257,0.0061642572347183,-0.20054839541340613
0.1554828,0.05493331454480599,-0.009760129765636706,-0.03532739421875335,-0.05434855867186998,-0.016078541389710772,-0.06788599738580829,0.0009664266601625219,-0.1805859503995931
0.1559483,0.0603928286808487,0.0012148524968302466,-0.03270145503951503,-0.06051777779856668,-0.012578709022100159,-0.03392440896379341,-0.0060387850561027905,-0.13468986062419616
0.1564138,0.048844474805264375,0.007785444315653991,-0.0323949,-0.06343407118879871,-0.03967611871542503,-0.006159476540729323,-0.015867952067880334,-0.0945260330928078
0.1568793,0.022632107531896414,0.005771118077366286,-0.03370850549533983,-0.05546063792742284,-0.08389239893638585,0.01634090948185571,-0.022046114177447694,-0.061661904786263724
0.1573448,-0.005217848166193952,0.002461591032203413,-0.03644602830608186,-0.0572366,-0.10123726544577645,0.03069899109929534,-0.021505450718119032,-0.03493918573201892
0.1578103,-0.019326489072203485,-0.002432648615560552,-0.03630189293067886,-0.05598336266561777,-0.09189513393212004,0.03201721835049946,-0.015943988402130026,0.0041270089542662985
0.1582759,-0.025327365703957223,-0.009726657843828247,-0.03726541405205725,-0.056500544832560104,-0.07754283596424348,0.020385586383819272,-0.001241819235797885,0.07171301073815485
0.1587414,-0.019628864229754267,-0.01511953054829059,-0.035613023498700144,-0.057548432205854455,-0.06329189993934846,-0.0066001216104133,0.016950282627802363,0.07772373577024573
0.1592069,-0.0006862893539185304,-0.02012857657698555,-0.028901443386335192,-0.06135059942847169,-0.03710314656145937,-0.025894694902157584,0.04357924132013756,-0.009258432267509366
0.1596724,0.023325498299557237,-0.0202422507065747,-0.023279983528346614,-0.058016980370530796,-0.03325037783152536,-0.0410555507065747,0.05181928448844414,-0.09206512712495066
0.1601379,0.042260569918616424,-0.015782905390351147,-0.027011503516361834,-0.0471656,-0.04484114080323652,-0.03656831881767944,0.04662107963621588,-0.14782745193242303
0.1606034,0.04097972242713267,-0.014699061213566338,-0.037315619175059406,-0.03319796239302227,-0.07406181192777178,-0.03095766728139802,0.0396386413737688,-0.15461103445885024
0.161069,0.021148753512116356,-0.019666285119961192,-0.04320702842312763,0.03013948639100001,-0.13095044089291114,-0.0316327545678223,0.033143701055705944,-0.10803925428657826
0.1615345,-0.003547122292886799,-0.019780052219262313,-0.030523572206190872,0.16036547433875725,-0.19170546068417063,-0.03426314246811599,0.04120849364243384,-0.017734994112160975
0.162,-0.01414342937189846,-0.01777424405784769,-0.02125501468594923,0.22240211886927527,-0.22273534896403388,-0.037196235780991536,0.04850306659518416,0.07182850273760577
0.1624655,-0.005455742498818809,-0.0047181189731390185,-0.0176242,0.19140324227095065,-0.16538594164993042,-0.03602559595454536,0.0665856547491168,0.06586966062306945
0.162931,0.00555173554824499,0.008633272250159653,-0.017252013874920175,0.14920892688889578,-0.10692172051965515,-0.02845047342016575,0.08031221098302498,-0.019833070300334897
0.1633966,0.010062370473359786,0.014933981429776894,-0.016968839047876383,0.13261064714314824,-0.08183193237982814,-0.019623478568631638,0.0834090695196447,-0.09369729571037186
0.1638621,0.019567397321546966,0.01249968156254298,-0.01531880921872851,0.12649384416273132,-0.14703550118336942,-0.0062186918580492065,0.06677985037377092,-0.055718001770673695
0.1643276,0.03031370379593236,0.012382773518715336,-0.013387893374952747,0.1081467197133308,-0.22318669144754205,0.011863114515405292,0.04190022589697812,0.010453111984783721
0.1647931,0.0368108350481688,0.018737598435532903,-0.01521644502045532,0.07956491245216099,-0.16489876439515022,0.014629493767320922,0.03036477024270858,0.029117692985087377
0.1652586,0.04621822694688128,0.03159719983946021,-0.01511191745879883,0.05627283232175595,-0.07504664119033068,0.0066039203757201235,0.04066465297582672,0.0017542756489604275
0.1657241,0.048971130347727994,0.022345084140903394,-0.011368533815214387,0.021171652971361227,-0.012902296477415942,-0.010137845116990863,0.05462986625996356,-0.031391632184197965
0.1661897,0.06133066427403881,0.016496625284605992,-0.0059622523653850784,0.0027622854788149666,0.026454192281454694,-0.027483432517628862,0.06304564225290445,-0.039276706526943254
0.1666552,0.059121136733231265,0.01585006506920656,-0.012882995625458048,-0.016027053421093243,0.07277069710097059,-0.02732999463332605,0.06833851243132613,-0.04457015678995669
0.1671207,0.055795720958527216,0.011935436562627116,-0.017767059421912618,-0.04149358700179919,0.13553952120376556,-0.03755216942562643,0.07014114917224003,-0.05262933624535378
0.1675862,0.04093551378650054,-0.007682426347862953,-0.024662537452369668,-0.06390225744695331,0.16293007131959283,-0.046897577237283536,0.07127310565438005,-0.05403543751142688
0.1680517,0.02546948372025514,-0.031345406278232214,-0.03425147609344181,-0.07735765753360062,0.15148530121254364,-0.05385724469610777,0.06941718204643062,-0.07352254325292368
0.1685172,0.01888291828854932,-0.04691398171145068,-0.05155282911564127,-0.07456708425909689,0.10756622880297348,-0.06089257743840973,0.06157757088435873,-0.145438298569843
0.1689828,0.021924082328086705,-0.049196662248411155,-0.05628106745898716,-0.0541306147783603,0.08513636828155405,-0.08184632754567298,0.05375016983594861,-0.2747418053920545
0.1694483,0.026265633762000216,-0.044879733549038514,-0.052672636597454664,-0.03475801546327289,0.08514876361550704,-0.0763554893769197,0.04855177974702597,-0.36077521551376435
0.1699138,0.02918693990441709,-0.041692933231249944,-0.05426607631150023,-0.03688260174866697,0.08966343036166692,-0.048603199689413276,0.04709108712066626,-0.33793599205608044
0.1703793,0.030687535037132292,-0.03532622865443755,-0.06457499936781792,-0.06924515987356358,0.06894437834939289,-0.014484063691569838,0.047758109548482496,-0.11417442100044492
0.1708448,0.023834922453202036,-0.028095222169111533,-0.06283606522120377,-0.10241346129376185,0.056630980412762294,0.0003660072867028282,0.05119083731069819,0.13577175834344773
0.1713103,0.017728401039093743,-0.02281619343129654,-0.048806368701492256,-0.11186528520192482,0.09454556340650505,0.01684126841405873,0.055088346384016454,0.24102704023283222
0.1717759,0.0117082346734175,-0.02088941455560991,-0.03796922102476987,-0.09641982433469466,0.13604374114257745,0.025843230531875233,0.06068538544439009,0.22056534685546475
0.1722414,0.004470778459257618,-0.017554455797011804,-0.03362185879914623,-0.07029865091424638,0.12265344974060471,0.01926722919231606,0.06303569399573114,0.17112409211510016
0.1727069,-0.0012352416584179118,-0.012399573140298763,-0.03284237396704464,-0.05211505244079103,0.05940741678668815,0.007191978021880823,0.05516264087016465,0.15328970991713461
0.1731724,0.0010900664548023399,-0.005132714700454798,-0.036621140355763505,-0.05138840989057154,0.009702278233215074,-0.0015281655184021165,0.04048363011544476,0.14515082846450938
0.1736379,0.023998339658941565,0.010079606812997221,-0.044065142266503814,-0.07664480527986856,-0.035787894444634205,-0.011333852793868908,0.017754275997466276,0.09430737148416204
0.1741034,0.05122248082762122,0.018086753925533373,-0.045799984387400836,-0.0966625935542373,-0.05874163666026621,-0.017606078278536413,0.006143952437774672,0.0566739390691854
0.174569,0.08843542947212463,0.02118498358993545,-0.04519851581044605,-0.10456658637411971,-0.05777959721581572,-0.028118004369131554,0.002015906812940138,0.028614404287998673
0.1750345,0.0993172952761671,0.014445122384624762,-0.047334872388380515,-0.08381149570168422,-0.0025367836934041934,-0.029653819883838695,0.010818323461081586,0.012137449500593938
0.1755,0.09142092056008208,0.0068360201703915905,-0.055704226154277905,-0.07515621868420663,0.07703032158399957,-0.022426775880154286,0.027451699062062282,-0.01882499613652564
0.1759655,0.06463306159571665,-0.007496327918001261,-0.05543266859891968,-0.06558997328844272,0.10108829424028587,-0.01980916926806955,0.036398047741887374,-0.06447669242245796
0.176431,0.03481133306640273,-0.020954210332459425,-0.05893816824004587,-0.0673075,0.09004174668294283,-0.016857585969195482,0.03430185808887736,-0.09138775851511458
0.1768966,0.0028851162334825433,-0.03246601580406093,-0.08049541340905475,-0.06989508038144901,0.10133578185927243,-0.0022922007024719464,0.014063627462241936,-0.12306040381449007
0.1773621,-0.01597998085830624,-0.040248644823226376,-0.08377368410718913,-0.06855938659715678,0.12301861352642182,0.007373619824600676,-0.013277511401692768,-0.10827715917907453
0.1778276,-0.023487416680441776,-0.048292331766270666,-0.06647970526376237,-0.06440348034540745,0.13025800365868995,0.010054875429144428,-0.038079005937842025,-0.05894229566723039
0.1782931,-0.01607897031274474,-0.05541182564120511,-0.03933085210960916,-0.05655556683302113,0.11944346054804578,-0.007296953702779052,-0.06188025314248768,-0.01699785951516726
0.1787586,-0.009703382430810072,-0.05485119560897306,-0.027864420596104174,-0.05998806032124877,0.07539465593022183,-0.03859158691970591,-0.05873490751581009,-0.0011937204982352756
0.1792241,-0.000902376837961592,-0.05225495980111183,-0.03323557205811918,-0.04820915306112055,0.009227045281343096,-0.0601854137247246,-0.03246212548930033,0.02796925514364043
0.1796897,0.010476268237161104,-0.045334332675803085,-0.03812607457094714,-0.04199675430633682,-0.04469785647550749,-0.05629943658403915,0.006512014040541223,0.05752897214539717
0.1801552,0.019430459809570807,-0.035460398495386,-0.04050977075350259,-0.04223811797731636,-0.053642788315562163,-0.05991803477526799,0.03817148905606822,0.049516954743260774
0.1806207,0.021053077795373482,-0.027494603574995568,-0.04124730041481743,-0.05639944328427155,-0.03358087417868812,-0.06626112382500574,0.03905657738055605,0.011163303118488354
0.1810862,0.01757441487922391,-0.014408557958932876,-0.037743721624273086,-0.09205602768116414,0.017914913321261144,-0.054028955362328275,0.013287506745049176,-0.039096104154567365
0.1815517,0.020133835463328132,-0.00754912907797402,-0.03715971158959506,-0.12156894138030613,0.07189903830071248,-0.026627100237579013,-0.0014348690281757808,-0.05235270732888826
0.1820172,0.03075723057247415,-0.0013264041444363567,-0.04058703448456565,-0.1606376933312461,0.07425706321087132,-0.002105803215056937,-0.0001868360983892951,-0.031241207824183003
0.1824828,0.03274398231974284,0.0032349799018861433,-0.03793159840687236,-0.1864210721014163,0.01885562790296312,0.014565200829108484,0.005863620645013604,-0.0036360050484533692
0.1829483,0.022190376043416917,0.0006185023146485541,-0.03591882179178047,-0.20259214358356092,-0.028809768361642184,-0.010253617096306513,0.017044597652263023,-0.012123138066588815
0.1834138,0.008813680941634464,-0.005938031232823675,-0.03803212082188245,-0.2049122656905754,-0.03749690520547062,-0.035314886512457865,0.02983759615015345,-0.04961046554224826
0.1838793,-0.003427923503700697,-0.011150248135354354,-0.04105160909459599,-0.18015342222342756,-0.04011496519659336,-0.016762735179390954,0.03898886879380853,-0.07373434030078746
0.1843448,-0.00986094431932913,-0.008148789198374034,-0.036751138788571315,-0.15612101121473182,-0.0484494235690128,-0.004526049223672496,0.03877494068102723,-0.06523550827614932
0.1848103,-0.025892398153354403,0.0018466994507934903,-0.026804666537561066,-0.12192307747411313,-0.04093580557707316,-0.04649499890158698,0.03736785659990899,-0.05689256578932849
0.1852759,-0.04304937435373062,0.02226597743130867,-0.022602432800467857,-0.10755782566944205,0.020283751938438125,-0.12318291871155779,0.03528060485274598,-0.048730887739784616
0.1857414,-0.06943092204891567,0.044192566976647675,-0.024557918200257954,-0.11685334420062646,0.13251397894409375,-0.14889552885601678,0.031906629951821336,-0.05519935189794189
0.1862069,-0.07887113838342064,0.04677301334067873,-0.026131473879928844,-0.11980810650764881,0.2102842662949508,-0.12922982800686109,0.02486010718024771,-0.06972211278310492
0.1866724,-0.09759307390278225,0.039207690042889314,-0.026557117724088985,-0.12112658922659539,0.1862565070722222,-0.08921096784132372,0.010288514062906295,-0.11122589162687124
0.1871379,-0.1194664450700472,0.026590526379031146,-0.025652427585197885,-0.10160534354197254,0.07547667649974661,-0.06185331515200483,-0.003985739616994012,-0.13103395710184332
0.1876034,-0.12932926650921067,0.011524575385969313,-0.0230853423041613,-0.0878925351065762,-0.06332297935198065,-0.04518433025921557,-0.013384827908991105,-0.10589152609452127
0.188069,-0.06741341483471422,-0.0008839114507525434,-0.020816280667908617,-0.08522469432257948,-0.18426472943955782,-0.03422878572164185,-0.024179640497197036,-0.10481013444887247
0.1885345,0.010076611805807332,-0.018472371976667554,-0.020114918634301225,-0.10191022887101761,-0.26831873626912345,-0.030731660029815467,-0.035263389896295766,-0.1286053633050258
0.189,0.038233278851234946,-0.039313121148765055,-0.0187178056236469,-0.11955190281182346,-0.3030335305886417,-0.02757050281182345,-0.054204977505412415,-0.08682940717086486
0.1894655,0.033441360573441783,-0.040330855662981176,-0.01675925211468836,-0.11612909121216156,-0.2754593187004151,-0.03355892110105584,-0.0590391993189161,-0.01825340563737223
0.189931,0.028172174448183273,-0.03440560422745658,-0.015081722334454982,-0.1118087818930016,-0.24849740075066062,-0.04134477504676931,-0.05721099839131912,0.02222213156767075
0.1903966,0.0284621989014113,-0.019612058861176215,-0.015664792778672235,-0.09796312660212146,-0.20482490399849204,-0.07416542527464717,-0.04719261946680589,0.01247835243662119
0.1908621,0.031952673879498725,-0.00438171338303384,-0.0162814,-0.08172990950694368,-0.17742345239279356,-0.08501360136362088,-0.0489965543869084,0.002440076112965059
0.1913276,0.03652785654941473,0.022665569793966858,-0.0162814,-0.06531315774303122,-0.1720409647151491,-0.07344108049265685,-0.061107332042568414,0.03715747838722598
0.1917931,0.04774142818536984,0.07028341850762673,-0.017725072164412953,-0.04230695410066423,-0.15882064435191068,-0.06841851878639911,-0.06707937253728052,0.07749207289860571
0.1922586,0.060027145263093495,0.08720825075757849,-0.017645101510489498,-0.03600375746135423,-0.09814977499883314,-0.07977030342718756,-0.05866342923610409,0.06739159980156317
0.1927241,0.06270600929474282,0.07164333549615857,-0.017779038302425675,-0.038536766680343115,0.03385431200596284,-0.08743182833688809,-0.041830474374331926,0.0005298497326408362
0.1931897,0.0772113516144082,0.05092127776197107,-0.01593224585526791,-0.040270069046116776,0.17262131329586397,-0.09639286631571345,-0.025734064964520163,-0.08460804645372069
0.1936552,0.09435037423473419,0.02914519868851683,-0.01468748372697219,-0.03165134013582411,0.21667157719293528,-0.10689364535837784,-0.01151320561354507,-0.13520970934799956
0.1941207,0.10208827386154896,0.03317772830760801,-0.013195146136034971,-0.022420382374982895,0.1588738819681632,-0.08181368752693627,-0.009513367854963468,-0.12133247479738968
0.1945862,0.08179612407032007,0.04624584542649138,-0.013870108867388042,-0.01064140508790009,0.06915941395528813,-0.019353059236031055,-0.0132606392732521,-0.08353520347564677
0.1950517,0.03916141741365453,0.04846157816946876,-0.013358298669561872,-0.0013827208032129298,0.05929190891566268,0.031241636366582615,-0.01890304671485931,-0.04308933503614448
0.1955172,0.009185457295768763,0.026334038759868568,-0.009114808511519447,0.006310995620549574,0.12075429541295153,0.04415655412212318,-0.021709599980108314,-0.011376358106269219
0.1959828,-0.01341196758430547,-0.009849276370731611,-0.005696168315337205,0.012897735899642677,0.17488992234765338,0.008172929482329665,-0.01917882078612775,0.018944642122838785
0.1964483,-0.02635765566068513,-0.051864366213606794,-0.003942416627243076,0.010027313856035896,0.16606822678792083,-0.022577683372756924,-0.012501427712071795,0.025634368297204564
0.1969138,-0.030626927589347444,-0.06774060197155679,-0.0023414396539947085,0.008693166378328924,0.11777224706394573,-0.02417866034600529,-0.009833132756657849,0.005221951630542208
0.1973793,-0.02757044611901153,-0.06258470660736443,-0.003457270814741195,0.012870088625769403,0.04413703829323801,-0.017014373080992587,-0.01812367840615132,-0.03439414049569282
0.1978448,-0.0198903514045937,-0.07109999103294933,0.0037401567058151807,0.019951767041224987,-0.00458951309447705,0.005277662813558311,-0.03562277820550543,-0.06315007820550543
0.1983103,-0.015307300996119426,-0.09493176214221247,0.006337173096549068,0.018729620265631845,-0.03529581430905007,0.03690057410982619,-0.0469275448649389,-0.07445484486493889
0.1987759,-0.0187531822893324,-0.11480927759948555,0.0074997455723331,0.011002135421335206,-0.040309154859554934,0.05978894418419714,-0.04815488185744436,-0.07631794557233311
0.1992414,-0.025795216370182564,-0.11475378077702636,0.007098027762751294,0.005415369035244018,-0.016780483622167375,0.0500040814863991,-0.04362061602096896,-0.07455053024773318
0.1997069,-0.030344684751228698,-0.1055213044370782,0.0047009167316959385,0.011043800347484783,0.021466036417545457,0.02472082695310065,-0.03944923855274881,-0.0770590491216383
0.2001724,-0.036792906342647425,-0.121066993108138,0.0026585370400978706,0.022506103329890188,0.06418152357350683,0.01919464216707091,-0.03632903492588206,-0.08033944126852947
0.2006379,-0.03953519084380501,-0.13082455153596778,0.0003796395530865794,0.040884397071693376,0.09334296666259911,0.019622269674922897,-0.030928227253141503,-0.0694976213125111
0.2011034,-0.03663347693718098,-0.12722482724263354,-0.00024927203611764564,0.051001544627968624,0.0835459332413803,0.026010044738312272,-0.03055347275736645,-0.06717947650557454
0.201569,-0.02959620515479937,-0.11194491555619035,-0.0013504869114716103,0.0678469398080793,0.050619415336714914,0.0215668789977529,-0.029816047358758712,-0.0854437580155161
0.2020345,-0.02481029885691463,-0.07557431141907513,-0.004753850952571139,0.08622072966759858,0.012127308030661439,-0.005260600536589541,-0.02581739885691463,-0.11466986496893918
0.2025,-0.030697043273347872,-0.022367383466984848,-0.00835474084246456,0.08963112080137946,-0.00018515370175023309,-0.0341074323063522,-0.018706712748435154,-0.1200862792540458
0.2029655,-0.03513070508683416,0.037446140335770275,-0.012156259663512187,0.0714580081374745,0.009303592519629537,-0.03062786876143995,-0.008523760083583801,-0.1067268977260562
0.203431,-0.04320848072656725,0.09364979423218771,-0.012350529534547206,0.053872938638458163,0.019589527729108863,0.005851066968128357,-0.006473914245447976,-0.09340033133998556
0.2038966,-0.036044633995817664,0.12056623893413759,-0.013313016000309803,0.030365895871528128,0.05223070825694375,0.038902214937545435,-0.002306043880202599,-0.0948853389341376
0.2043621,-0.026909634068403375,0.10526345539369451,-0.0139315,0.007753935689934218,0.09524102347557413,0.030081413435246503,0.0005426918611681238,-0.0772796862305611
0.2048276,-0.019955975013619096,0.08643336733388288,-0.014013151919934054,-0.017878120664144796,0.12316964618737009,0.008238272361282918,0.0036518699862190546,-0.03790231394914457
0.2052931,-0.014514589191276487,0.07769028596772429,-0.015507963905605156,-0.03921093151043965,0.11408300521533993,-0.004537044373302187,0.0026197360943948428,-0.016055427971195094
0.2057586,-0.01619478470791707,0.0747687541237512,-0.016723788026720643,-0.04739599890357702,0.07495452127321041,-0.006052554956208198,-0.0014510253364823185,-0.028610972778632043
0.2062241,-0.015197099853956831,0.06685675151096837,-0.019254528077133397,-0.0546030487559571,0.015889144963756804,-0.014941602820219871,-0.004773196620768331,-0.06573576537565505
0.2066897,-0.011304392003562501,0.05001038157926776,-0.019590903605945672,-0.05375086321664135,-0.07003196881363992,-0.02201816722970386,-0.006173804812452418,-0.15351051276435865
0.2071552,-0.0017909767233541822,0.044625595544870326,-0.01974940686005286,-0.05381484875390919,-0.1743077269982363,-0.033999395426631426,0.0003132242156823312,-0.2576094444182101
0.2076207,0.009000212707775996,0.032331910280196975,-0.0196384,-0.052891526430425106,-0.24084928696403113,-0.03769633642177462,0.004443111880579029,-0.2850676518459771
0.2080862,0.01837635534304574,0.014379623805305122,-0.02146733106860915,-0.05272013447854602,-0.2419016781552318,-0.03319377232847713,0.008189762137218297,-0.19162683501883795
0.2085517,0.021427561086969003,-0.0038291707689652042,-0.022541631807840003,-0.05104652057292308,-0.1762177646876587,-0.03137676393524544,0.00882965420515504,-0.02932196641586225
0.2090172,0.01791296800362663,-0.00726978597539726,-0.023177904264821914,-0.0532870308039006,-0.08597638171057534,-0.04301529939073973,0.011477826539078686,0.05702210211938707
0.2094828,0.018066262195588906,-0.009701491221707052,-0.024702643095703247,-0.052539028139170205,-0.01888946835863126,-0.058121838460762916,0.01855711056738657,0.04207242635007659
0.2099483,-0.005654554506581161,-0.009390192383447658,-0.021703223206515847,-0.0481407844855183,0.022776247236612538,-0.051003592102070644,0.01964500014068851,0.03410422278445032
0.2104138,-0.07866732985776174,-0.012014594226681972,-0.014287778073514727,-0.04032196145882844,0.05761658474427325,-0.01549668023382842,0.026379218215039336,0.0396011438506153
0.2108793,-0.12131932020868898,-0.029212270276511482,-0.020579153700095856,-0.024485151131721013,0.037687717809601944,0.07072133758471166,0.030731773224369173,0.023789345974517716
0.2113448,-0.11540258906697853,-0.04752587797677937,-0.022833062587149684,-0.01307435446569738,0.0061319023159821275,0.13580504442818306,0.026646369281151175,-0.008893381998211087
0.2118103,-0.08830611846321917,-0.0559132980863021,-0.026205988605378087,0.0002947024123267617,-0.02774225824890815,0.1208443758182795,0.015903837399214707,-0.01968095089850991
0.2122759,-0.06805511389550634,-0.045800469682835424,-0.025437179981112393,0.007082830343775102,-0.03764258943580258,0.021294469682835427,0.009276742377838251,0.0162816817435091
0.2127414,-0.06314133153435997,-0.04274087068750228,-0.025910046031761308,0.0229196796825794,-0.02642640603231018,-0.0856247339154404,0.007018906772473532,0.08798416952349843
0.2132069,-0.05021598209194777,-0.04583058638649744,-0.03056462017549104,0.03337802024415617,0.012532579893174089,-0.058386378241261395,0.0035255677942539706,0.09813644768742806
0.2136724,-0.03381857310546145,-0.04524898069409086,-0.031363582226216324,0.04316150883927435,0.07263493248331643,0.018042987791757125,-0.0014032944344591956,0.030684192165889017
0.2141379,-0.01723107987419411,-0.03358319519013263,-0.02923851063297238,0.0438087,0.10920352544341473,-0.01005883240665862,0.003604083292365437,-0.04760244645892498
0.2146034,0.0020316640362217178,-0.012172495739924669,-0.02524036041356885,0.04233034625191115,0.08569830453974565,-0.055393897014769586,0.015357383954873276,-0.11370229164432623
0.215069,0.01832387864294096,-6.402002779017188e-05,-0.021837125518113842,0.03436001329293637,0.03244683294194202,-0.02621970742382818,0.012049010565803962,-0.12562316683260685
0.2155345,0.03440405734622898,0.0001678,-0.020309523560719335,0.036043697783032506,-0.03715908199876143,0.028286547501646064,-0.003813921872792067,-0.12305768448044474
0.216,0.05163214501734998,-0.010195197855207045,-0.021101586790535736,0.0414588,-0.05367005162208212,0.06131976822278848,-0.026182119062930456,-0.11340107218754444
0.2164655,0.05893031267449264,-0.018140797491926663,-0.022620903059346716,0.031700015733839355,0.007068998470326642,0.05463732032285943,-0.040405666774312725,-0.10980078309082854
0.216931,0.07750834733412039,-0.02116249638894132,-0.02151048158323495,0.028434338721645087,0.11784670020078664,0.04754867280558835,-0.05342224749929169,-0.11370582908252665
0.2173966,0.08328977893839183,-0.02549849833373457,-0.02078780263270102,0.02024404904067087,0.1802376958965747,0.04778956578909966,-0.04426838588427223,-0.10382928851697325
0.2178621,0.0922180666887808,-0.02885444946962994,-0.023125011377419867,0.011412665561698279,0.2417760156221776,0.05206874387932486,-0.01124697545137729,-0.07324357342740329
0.2183276,0.10170375557170332,-0.03330863211026895,-0.023531547831104862,0.014301655354585377,0.248756028605411,0.047214719101123036,0.011264839913152823,-0.006750066405444904
0.2187931,0.10670992823969752,-0.035080177831997426,-0.025362123596200707,0.018774677793106855,0.20771203052218642,-0.009116383787020664,0.012235889780196588,0.11330672456790107
0.2192586,0.1038190940296616,-0.033460829353107735,-0.027325236076735423,0.02502077812380924,0.1751393755920742,-0.05923095576619637,0.003760117412430942,0.17055005950465488
0.2197241,0.09653275448131787,-0.022616201801870014,-0.028838128129915357,0.04643603383503618,0.1523694532757201,-0.09542857935371832,-0.0007569928392342791,0.11839073378557254
0.2201897,0.08964334027610853,-0.0014486749561751435,-0.02957168863967525,0.06392790151088196,0.13119748918674903,-0.078720694600433,0.01157785664044133,-0.006614533131283049
0.2206552,0.08226381576107913,0.021307295352005533,-0.03125230948772961,0.0677009124280216,0.07280127554560298,-0.04612566114507498,0.029862218674123704,-0.1034305345813293
0.2211207,0.07137771708087638,0.03354254044152692,-0.032184904308949526,0.06112037987298507,-0.006974142844446974,-0.004418068013306565,0.03749834888821659,-0.11713320562841184
0.2215862,0.07152082287740952,0.046591321899056196,-0.034390097181075586,0.06109239719227181,-0.0729046123589903,0.02963065055284255,0.03530958089747577,0.01018847429246984
0.2220517,0.0670074911308605,0.05607949556543025,-0.036361529757265205,0.057731668777901084,-0.06197404160219954,0.02393337933205359,0.015063310768273011,0.21276461954515766
0.2225172,0.05628043968802147,0.048832522840162776,-0.03405739354545911,0.04749097074509252,-0.026637083822451814,-0.002908629673854363,-0.00032141894398157473,0.3015482491170694
0.2229828,0.06332232713327499,0.040750834355983444,-0.035104873809470985,0.04464327694138786,-0.03036942997764163,-0.016431368488383207,-0.005430205688733294,0.25311225722214753
0.2234483,0.06881090060273204,0.03739399119053388,-0.034736776573785405,0.029986066258373665,-0.07690734845206368,-0.021943278376243314,-0.009392068673271074,0.08900047187827827
0.2239138,0.06862825954752211,0.061468322295240005,-0.03630563724995365,0.016301005341104756,-0.11730699465889524,-0.041284794522064794,-0.016869486515064553,-0.015433559410691652
0.2243793,0.059543457693256974,0.07159832901959977,-0.03939232373365295,0.005643552532694102,-0.12850463036211993,-0.07433620528594681,-0.020154018888823358,-0.03090346266347051
0.2248448,0.05075567778423576,0.05871051907505731,-0.04054871526010954,-0.010976145963498886,-0.11769751891136712,-0.07973020425805447,-0.022613509421802354,0.010970881252323067
0.2253103,0.03615958688639697,0.03201750238397668,-0.04461827331447006,-0.019639822619878185,-0.08208257783844569,-0.02501235521856751,-0.025332417759567533,0.07977187716577566
0.2257759,0.03808845978406429,0.0044709424866111605,-0.049099131675355095,-0.014380605837321352,-0.026923021351451533,0.025861947460545872,-0.027976512594579013,0.12844433513702744
0.2262414,0.03799024355901363,-0.01952684355901363,-0.05097295401060775,-0.008994122624525142,0.01866848548032879,0.040364372530367745,-0.03656940325974682,0.12112212264017526
0.2267069,0.03701589766188517,-0.041140981925769544,-0.05215173318464991,-0.0006059610623819747,0.04436655252025675,0.07314890530691785,-0.0375856217195969,0.06617121213662441
0.2271724,0.03684138999294735,-0.06509866001666989,-0.05441827681978224,0.001304626133210908,0.06522868548574971,0.09312289545433337,-0.037734792262574916,-0.0303657200012823
0.2276379,0.03848985137696711,-0.08577496942921385,-0.057913126606461626,0.009876381655341023,0.06087182201657127,0.043397144012771845,-0.029736018344658978,-0.07307486210029174
0.2281034,0.03950967349186835,-0.10185474065046317,-0.05421308562935938,0.01869272042302906,0.036824468124796145,-0.02673999074164003,-0.012516874223139957,-0.02013380901680964
0.228569,0.04264828101879013,-0.11808519372464532,-0.0630875474675354,0.02738846203758026,0.0011469137838286524,-0.04607033045394576,0.003436630453945761,0.06640147059717447
0.2290345,0.04372307822810203,-0.12416291161202617,-0.06613602896987733,0.026422350710379065,-0.05899351374448013,-0.0545767725450695,0.021494901483550592,0.11234002464481047
0.2295,0.04272846643511252,-0.1255837251392882,-0.06812508326023199,0.025285699888569445,-0.12619769731663122,-0.06267536732655694,0.02746223365023892,0.11290835005571527
0.2299655,0.0356621150364899,-0.13234053126088766,-0.07051442880478924,0.023277963198631645,-0.21380528332998538,-0.052685680642647496,0.03372503607593954,0.09207630290171526
0.230431,0.00996508584126769,-0.13023304191718824,-0.07292512124233606,0.022856736993868847,-0.23138771493560828,-0.025668390507671255,0.04584910200076274,0.045301910878083856
0.2308966,-0.08881082069580168,-0.11875071859520508,-0.07374387190546756,0.025942223574604052,-0.14730678707050557,-0.009037606676545937,0.06417930588537203,-0.007135968750982836
0.2313621,-0.1598920035524774,-0.09640527873154398,-0.07429098889560927,0.02779906113463246,-0.08482721965901277,-0.010947950030241734,0.07326472663920099,-0.027325710103581834
0.2318276,-0.1394326642239685,-0.06939679454136555,-0.07114572978445143,0.02587435119151862,-0.08351742352501508,-0.01724057206287328,0.07171288617504898,-0.0243750639671799
0.2322931,0.004241196210336589,-0.05342943032044101,-0.0748123507947289,0.026860728975660712,-0.18710996003013414,-0.015935954067651213,0.062404469265539386,-0.004962053982980146
0.2327586,0.04660032362789389,-0.03986738879505524,-0.0731784972281032,0.02159909621381977,-0.2822099419925131,-0.009099995643216568,0.047139871938524716,0.007619425212780526
0.2332241,0.05051905886546978,-0.029794302752285933,-0.0699450836867047,0.016839977288212935,-0.27696318617712845,-0.016503191968893265,0.039573814048622605,0.006442971532559245
0.2336897,0.0860611207430656,-0.0192075408961024,-0.06637142359869165,0.014176053063062848,-0.17818717127085806,-0.03069562224347885,0.04487731634784455,-0.010088042798698522
0.2341552,0.11341870308195133,0.00033980047027826557,-0.06277059262191521,0.014036868932362803,-0.08263421631146765,-0.04955588061168136,0.05765715924997575,-0.024457050293048354
0.2346207,0.08971287290443146,0.0201112239980026,-0.052329778868181145,0.008158594765297747,-0.07562544963547628,-0.055902345129821465,0.04183580401962321,-0.0293778657756087
0.2350862,0.051574128918747596,0.050354024974742326,-0.03593951852760844,0.0037327731968222018,-0.1341523482220799,-0.05518025311715989,0.005685127228199828,-0.0364633287427905
0.2355517,0.004755795295356241,0.082548167778805,-0.02563604690788685,0.006823493008469504,-0.21250393508852278,-0.04411316536104798,-0.014692341630482513,-0.058123113064402994
0.2360172,-0.015141328282283682,0.0960768693860616,-0.0025558575008149736,0.00028631407252859123,-0.26945212845984395,-0.034884319939392394,-0.012677121512359757,-0.08483248610503166
0.2364828,-0.014142984724489542,0.0958564625387257,0.018460140367336012,-0.0034083141486322766,-0.283435096794561,-0.014265607380880481,-0.005762270090856025,-0.09438063328583281
0.2369483,-0.0012213105811884049,0.08816105224138947,0.04485716660059652,-0.005976971549717575,-0.24950991997288063,0.01906831499062587,0.0044173117706845745,-0.0860962896685495
0.2374138,0.01726492419425746,0.07928752050176541,0.07045197736944199,-0.009021966336709564,-0.1779787781878914,0.04120407835931329,0.020696693925359073,-0.06592529531763663
0.2378793,0.04152439478767488,0.06193622770886758,0.08736765300129143,-0.013775955474000888,-0.09874829961010156,0.04358755580763362,0.034613777837090264,-0.03893680541250476
0.2383448,0.055947153874349884,0.03520650660590339,0.09228449397160175,-0.017365566707394274,-0.0566319245232924,0.03225041689677546,0.03172722210330292,-0.016105759857125233
0.2388103,0.05666047099732121,0.0035011608527042654,0.0901063212023672,-0.020650539650337068,-0.022494276609231343,0.003956210305603901,0.013146229505720121,-0.02489562950572012
0.2392759,0.057741835687802334,-0.01723988646248689,0.0822463421944932,-0.02703628894176129,0.03499894885335333,-0.03453469608848689,-0.004720173635086204,-0.0797850338836015
0.2397414,0.07080175969121578,-0.03145023853912164,0.07655357559933275,-0.0349373620290957,0.08216151333676831,-0.07148228500257622,-0.007013914538213543,-0.16307257752972626
0.2402069,0.08939476061672856,-0.04107671363871279,0.0673299601492443,-0.04006888060731349,0.12595406366225048,-0.07451345697330823,0.004329996824063934,-0.19973451183606308
0.2406724,0.1207761595240896,-0.03871145020380812,0.06065438284530634,-0.04496849372375493,0.1974071824376901,-0.08223205157995542,0.019821739751687842,-0.2053715866135653
0.2411379,0.1463265838619167,-0.0190429243995898,0.053466899474757426,-0.05038003336674116,0.2214391900024082,-0.11012343307405283,0.026688,-0.2140974832965847
0.2416034,0.1528254066914782,0.002677679401801549,0.04334123471340412,-0.05497319670179014,0.16327873393362563,-0.10146694052269797,0.024565325642408577,-0.20681288429240288
0.242069,0.15395602171159856,0.02772221069120518,0.016869730858336388,-0.053826847031245476,0.019830595195567062,-0.039133154247342164,0.011914584504361878,-0.13347264168248144
0.2425345,0.14289424052686922,0.05304112241378218,0.015112979741024017,-0.06310360093232802,-0.1349093189551788,0.0055558445064754144,-0.013889293023495829,-0.05728035180406853
0.243,0.12176740594449768,0.06507920679454698,0.0161545663833169,-0.06938467670441036,-0.2592730074091448,0.026198424645385455,-0.03634679786912774,-0.020003809706495686
0.2434655,0.0961221472239243,0.06772666197868124,0.01399812999100678,-0.07252175534668763,-0.30942767705443347,0.028790640684382043,-0.04649574689072651,-0.01964337870570081
0.243931,0.07691236108173671,0.06767687683604581,0.008293022032549712,-0.07423933107383966,-0.3174691853116335,0.02620182259825195,-0.047199276836045814,-0.030655915504188908
0.2443966,0.07095224971150249,0.06314601211389397,-0.00013942080079715636,-0.07601277275236352,-0.2830236026472061,0.021779776213854168,-0.03565633006391387,-0.01724210301984853
0.2448621,0.0726747910079383,0.04987949616577665,-0.0018463,-0.07846854461481616,-0.2218062821181279,0.014271121540735364,-0.025749311292939607,0.026495992262812604
0.2453276,0.09459285965674757,0.02498092926619363,0.042726043024103474,-0.07821474952656292,-0.09807296835741883,-0.0027197644245405394,-0.021371751500855792,0.07865287115091892
0.2457931,0.12699014590740149,0.018113057836126045,0.10670809292522034,-0.08281488233927295,0.0028435827520796333,-0.012911385437633996,-0.02602804657879007,0.10215823421103672
0.2462586,0.13865255671681456,0.0221040024494548,0.11885307529787816,-0.08347401442772848,0.03664492736430796,-0.005408447685045364,-0.027430531801961415,0.10797187920268843
0.2467241,0.13850820275784997,0.021750398561676848,0.10307144748557512,-0.08387570071916157,0.03921638069505023,0.00876026558451315,-0.02617961378924984,0.09427804196987517
0.2471897,0.13470595936377852,0.005982800146311898,0.08125989045667786,-0.0847639,0.024449861280187727,0.02236237031811074,-0.02001944204723155,0.028933980047669013
0.2476552,0.13406465390123132,-0.015383722084453624,0.07164031200715754,-0.08448282340738793,0.01792502484175244,0.022448796044228662,-0.012085107926924417,-0.02103774225976825
0.2481207,0.13471220850161414,-0.035256562336271044,0.0643836570891281,-0.08206071174273637,0.033860828329814484,0.019055438461346084,-0.0032777182249808293,-0.034815073676206225
0.2485862,0.13281348721916614,-0.055162481787605855,0.05245116086189092,-0.0768190680479154,0.09910851565740368,0.016661887219166158,0.0017567277852412687,-0.018370447285449534
0.2490517,0.12692983582040396,-0.06495884214988291,0.03717683834877322,-0.0709103979314723,0.14282965198047967,0.02012201030754995,-0.008885177095007442,0.000923721074941463
0.2495172,0.12047928171683946,-0.07296818913418943,0.025281405253396495,-0.06675853989712188,0.1002490927274647,0.02773608919301933,-0.025219741964532246,0.0031077364592196244
0.2499828,0.10053984788061719,-0.09186860435393415,0.0015363046472835974,-0.058965248283226634,0.030932106688912574,0.042770784758726775,-0.047204629786587564,0.015773869988983877
0.2504483,0.08265992847498105,-0.0969089466728606,-0.013371901010485361,-0.05295447615832701,0.021928353327139393,0.05239973463560719,-0.05408763194411988,0.029165568055880123
0.2509138,0.06818100532375426,-0.08640471444656392,-0.03352874867093325,-0.048128168441251416,0.03243258555343609,0.04303110422509299,-0.055791034667793615,0.02746216533220638
0.2513793,0.06297972596408179,-0.06785228317612155,-0.06196805420596961,-0.040223970799428604,0.021746084617236903,-0.006853822593879575,-0.05143547031515025,-0.0012495887021369226
0.2518448,0.07061689230321906,-0.054540743441553685,-0.072216909655592,-0.03755280997345018,0.004053654960719591,-0.07313846749390687,-0.04277992541023822,-0.02728595401592989
0.2523103,0.06444628327280787,-0.04368811210689652,-0.07158958947902792,-0.032459564153517216,0.006241060644939265,-0.11359322212247634,-0.031747968189149385,-0.03600962156899839
0.2527759,0.05389030795132044,-0.025462409565005048,-0.06614770148266594,-0.023627718966308654,0.02384264308230731,-0.11202466601036014,-0.04182277308237091,-0.0340618738306619
0.2532414,0.05966325672592324,-0.018142960523127808,-0.0643535670949274,-0.01908169238522808,0.04102736401208506,-0.042629549989818605,-0.06516943361943482,-0.03317172982223027
0.2537069,0.06558318251391376,-0.025220651248485305,-0.06701771748608625,-0.015175588066779232,0.04901568704814761,0.008676272894987703,-0.08325576623760093,-0.03342839722356726
0.2541724,0.05968393002221839,-0.0335275656238478,-0.06868956068465125,-0.010185521514534045,0.04372105168198398,-0.05219878106398789,-0.08638761200355635,-0.031078739242732977
0.2546379,0.04533318724315503,-0.029352044997932192,-0.066277394619234,-0.005994782247979907,0.0051724702485313225,-0.1299168345132764,-0.06801283050886506,-0.031079858620888245
0.2551034,0.02206822252845383,-0.01830517901398846,-0.06785897143184148,0.003469441356965374,-0.061665637657023084,-0.11618905787502205,-0.060588949583477596,-0.035536228568158516
0.255569,-0.003955351156785677,-0.027064771101427486,-0.06406108789400769,0.012836563072970484,-0.08802726834879594,-0.07927096155825923,-0.03980441485862384,-0.040920538860985886
0.2560345,-0.03643965648774253,-0.04497147985292037,-0.05075198404776174,0.018760647170021953,-0.05261858243871263,-0.01768349165902258,-0.020526915463866688,-0.03153949073098474
0.2565,-0.03875873063184835,-0.06274786701095074,-0.034800414716255695,0.022362987361847487,0.01128508729252823,0.024836475756547165,-0.013086021132497464,-0.016462663551578362
0.2569655,-0.007805729509585356,-0.05900891304858661,-0.03358116638313386,0.027622828295614812,0.044196206347616486,0.0076816437402668905,-0.01661541672555894,-0.00912698044806714
0.257431,0.019603965756140988,-0.04551031621333123,-0.04391502419583426,0.02806418709928403,0.027391486560439732,-0.05087882526805525,-0.010638666749441729,-0.018081710835194238
0.2578966,0.03843022113214125,-0.019071908657859273,-0.05547498539772281,0.040034458564964806,-0.023823314592299562,-0.10948689618357729,0.017283656876537313,-0.033156679287471215
0.2583621,0.049841464821416916,0.016802531578087445,-0.06373851701676558,0.04180252435426283,-0.067715599099126,-0.13071727010998793,0.03645505966635153,-0.034139179764922783
0.2588276,0.056621932603654515,0.06957725299287046,-0.07005804365233985,0.045292847866845114,-0.06471108351925164,-0.09229079450641721,0.02930491837346238,-0.03361228095138135
0.2592931,0.05465454168169823,0.13422030596102585,-0.08024386496118768,0.046215268327491746,0.02856572132238824,-0.06813282471081206,0.003623966711320567,-0.0487734953142153
0.2597586,0.03559002251142278,0.1595254413830567,-0.08641760787689273,0.04767123997068874,0.11600560178430361,-0.09033420943581696,-0.011871905570648742,-0.07162012448341844
0.2602241,-0.0032739725853299434,0.14441232747601174,-0.09210166864280464,0.04989086425382467,0.11456955119352323,-0.10118271790375852,-0.013008981641764382,-0.08871302326303437
0.2606897,-0.059339033002701234,0.0879272795773994,-0.09961426838732605,0.05420108483891029,0.008783502219501207,-0.07631802078100956,-0.007083782257921218,-0.08798494110407742
0.2611552,-0.08675988248989368,0.050290759828407736,-0.10391560323439941,0.057964752830099484,-0.06299470271523502,-0.058709471291528065,-0.004395447978500371,-0.07951672816462681
0.2616207,-0.10569234581846852,0.01297277079762096,-0.10773098189347625,0.061740281893476245,-0.10881650000287407,-0.022293107148708254,-0.007692781893476245,-0.06665115017111269
0.2620862,-0.11505728631882346,-0.03245512020090649,-0.11238509072456128,0.06536053223205399,-0.10855824330534429,0.028829779681216347,-0.015798000289975134,-0.050146641101530394
0.2625517,-0.11414070522245387,-0.0619916847321159,-0.11360930025352915,0.06675793121435317,-0.08717887896423623,0.04016900038668832,-0.015652776305613465,-0.042906671203529596
0.2630172,-0.10820595936122049,-0.11695777294807277,-0.11466241884231705,0.06688613101108401,-0.057151759833281836,0.022774370495482397,-0.012081649261463644,-0.041198062757933564
0.2634828,-0.09850673290502104,-0.15004908148956309,-0.11494769020867586,0.06574513052371443,-0.0291952509081844,0.008653480349754276,-0.009799478330593189,-0.042196470051156565
0.2639483,-0.08315377009502974,-0.16198175315871707,-0.11486219380586746,0.06526286440849165,0.025300158091057498,0.0030822254297207573,-0.011505452527821017,-0.040405705106145565
0.2644138,-0.07375545596434446,-0.14701092885091552,-0.11228010784967903,0.06455778181450951,0.052601018185490483,0.0002061976372038695,-0.01638401308988932,-0.03211967920504078
0.2648793,-0.06978981356237066,-0.12574637134464944,-0.10888779614660542,0.06346205845864217,0.048341928477468085,-0.010424404031277066,-0.009823933656686183,-0.021729009388377653
0.2653448,-0.0645393056128205,-0.11125849087576822,-0.10608302491187488,0.06233317094765047,0.05482562905234952,-0.021721920142336835,0.0033195884911129893,-0.02258563263278774
0.2658103,-0.04322002164057117,-0.0979226657831585,-0.10420207708685184,0.06182625661888888,0.07164789684332296,-0.020224074747037083,0.006751950255550386,-0.04073137393017478
0.2662759,-0.004128695475788426,-0.07411221153064884,-0.10112159591335683,0.06166399019258418,0.07000813470545172,-0.011833441447217322,-0.008863035580588532,-0.06648905125463314
0.2667414,0.015905046744684303,-0.05994483886788118,-0.09882648781275767,0.062065567278720986,0.057809704220494,-0.016391527772726545,-0.023869975065578922,-0.07727488753867363
0.2672069,0.021875456950275502,-0.049602471819633884,-0.09708648569926578,0.0622617908937781,0.04161277947461211,-0.0300662737956961,-0.024405764773694664,-0.084124082901918
0.2676724,0.01876622229825647,-0.038896441919819176,-0.09125268741951995,0.05990394748165968,0.003540185273994288,-0.03834015323551829,-0.008444700717177967,-0.08987946655561942
0.2681379,0.0127504315869996,-0.02984164700803552,-0.08543776020793697,0.0589151,-0.02314481156949179,-0.04127013455306182,0.0020717496275361206,-0.08788559273222299
0.2686034,0.008693399994494044,-0.019819263338882925,-0.07995900788326624,0.05898823636313582,-0.046213179389180396,-0.03345636060339105,-0.002645196966526873,-0.07705960182182593
0.269069,0.0019705348434583153,0.0015579373816885364,-0.05761963451836333,0.05601513212581239,-0.07471067443828208,-0.015610314629283995,-0.012694434009933446,-0.0415071726795649
0.2695345,0.0015232800178825176,0.012385819713879719,-0.036170338701529414,0.05543141100241502,-0.054285358683646895,-0.0037498693731178537,-0.0181878198479986,-0.008190368065706008
0.27,0.007978614164186198,0.0001601487838309389,-0.02572129461463608,0.04999226623105187,-0.0009377421073378496,0.0020733622472407414,-0.01608187436430956,-0.0029519421073378495
0.2704655,0.012229158333837593,-0.022164647773452888,-0.02700034164024001,0.043423336851122055,0.04329171262837188,0.0021553119044796266,-0.011784735868973262,-0.0073791420540309325
0.270931,0.012644245567305793,-0.0424780329808262,-0.03139022659616524,0.044058646779779956,0.0897728901328693,0.016134670316870225,-0.008111082269223174,0.004453443114467903
0.2713966,0.0028862789099238723,-0.043997215695309046,-0.03515144737484623,0.041316905250307526,0.14686549993896078,0.021521852508500992,-0.006254744751048886,0.005765684160231405
0.2718621,-0.010121766144314582,-0.019465075075790993,-0.035382322570456946,0.03948295733832481,0.1313524273407044,-0.011099468623553283,-0.005417265169388815,-0.014375802075338173
0.2723276,-0.01805465074384184,0.015685096424039462,-0.035308064472927836,0.034715725892977244,0.03675168478120454,-0.04354800965588038,-0.013521505089481243,-0.03006721626090811
0.2727931,-0.02886506013305151,0.040008451907422436,-0.0397971988659432,0.03493377449776386,-0.07924520660129657,-0.03565510704575605,-0.02083557835842495,-0.03692492824287163
0.2732586,-0.02429312122986296,0.06118965343956061,-0.041242555875841455,0.0313424647449513,-0.1679533878075485,-0.010705333758917704,-0.02787152549887807,-0.03062022472150622
0.2737241,-0.01834377442160064,0.07572620197029219,-0.04173806246081765,0.029291868926320574,-0.19778323338727688,-0.009945432357361082,-0.028338281230408824,-0.025043569239779375
0.2741897,-0.010537624011387966,0.09961127271488736,-0.04211661709039145,0.026138846186476897,-0.19994914872882563,-0.012802153813523105,-0.02675591454804272,-0.015318917422893978
0.2746552,-0.0031891740639856283,0.11047516836538673,-0.04309151262763833,0.02329292861512939,-0.2189743860547221,0.006942632184316073,-0.03694200136147545,-0.01333641228726946
0.2751207,-0.004586169489817836,0.10797093475788849,-0.04326068761407613,0.020525522703200575,-0.24480662631439412,0.039080050865417895,-0.049298618260629416,-0.019783753102970755
0.2755862,-0.01939817459320813,0.09070323419625605,-0.04297714972880542,0.019281127810763757,-0.21983780758747823,0.027054527878352413,-0.04758447001967959,-0.02374677513559729
0.2760517,-0.03577113413757005,0.06585626133500985,-0.04341485296312684,0.015097145483139117,-0.15976318624172078,-0.02512850747998772,-0.04370955609171336,-0.01525976324078171
0.2765172,-0.04780156993505631,0.030995022264763174,-0.043967645122285445,0.01039734967528156,-0.09871529097555547,-0.07031197058449319,-0.040283404552996116,-0.003188704552996113
0.2769828,-0.04706766640505518,0.003447120596043576,-0.04393111334706221,0.00648300168453265,-0.05367149111074225,-0.07466463696401011,-0.03664429965183903,-0.0011716157015656111
0.2774483,-0.03272350554649355,-0.025123710922412657,-0.04136405075429361,0.003392412156711301,-0.005644931713075974,-0.06855147311426596,-0.027998695858379535,-0.0035248
0.2779138,-0.019472104397148367,-0.051640015274067086,-0.04004287059063897,0.0021220599878557693,0.0278797332278778,-0.044098835310499775,-0.022968926443611367,-0.014646860292351857
0.2783793,-0.010538273576109508,-0.07417244343287706,-0.03926160655598803,-0.0015589018985206575,0.040981820550659985,0.011453594559805918,-0.012558511313424588,-0.031040024525369834
0.2788448,-0.010446922102473052,-0.08119080762175675,-0.03820944603229601,-0.0025376380410363887,0.014689813853413825,0.0401279554136553,-0.011044956074831455,-0.029509954662753832
0.2793103,-0.002483693746571393,-0.07563649025239016,-0.03773529095434859,-0.006322081643292213,-0.07684484373008368,0.01995229876723163,-0.024640788427530768,-0.007451765050162747
0.2797759,0.017176686000956155,-0.06969759444241301,-0.03653113138231464,-0.010576342852743531,-0.20054522104847158,-0.004983086637184896,-0.04462206424197475,0.011852680784128817
0.2802414,0.03490987495906567,-0.08169562302461335,-0.03549859336244867,-0.012247147647295616,-0.2683437789075292,0.00011224563097464316,-0.0552224,0.012505874286298844
0.2807069,0.04290841085477983,-0.09318492276967714,-0.034208833624456966,-0.01256766890249142,-0.28226907517003197,0.013122754273899157,-0.05831237286305042,0.0010185238297946114
0.2811724,0.04324032227822592,-0.08885456241583801,-0.03224455115208039,-0.01406943299836192,-0.26808345242880544,0.017423917692425843,-0.0552224,-0.006497881113178091
0.2816379,0.03527267446313744,-0.058263578393855785,-0.03094329166352979,-0.016905765235033177,-0.23627784079810493,-0.00037113140673086526,-0.05662535941019532,-0.008996533300850379
0.2821034,0.025167720173199574,-0.005032890612059141,-0.030691045739028512,-0.018668843475712772,-0.17841102664584146,-0.042090712413963824,-0.06331780799805636,-0.03888632211921
0.282569,0.023001048917499625,0.04363056062342659,-0.03102632202250671,-0.020318144579387354,-0.07406202361428248,-0.07036293045745164,-0.06693619686502791,-0.0799504595174453
0.2830345,0.021804570245865035,0.0681003540405253,-0.02804685603953847,-0.021780741074333552,0.07156025102616088,-0.06443072339927554,-0.04182726953766019,-0.08351744575894549
0.2835,0.01893202239060934,0.07482283135387297,-0.02796902039843489,-0.025835349003912773,0.16242378932104937,-0.04797510697108918,-0.017004314680849255,-0.0386551112143758
0.2839655,0.015430643107687669,0.057024240249723225,-0.02738545718461461,-0.02729425703846347,0.13178689443022226,-0.03659571121896249,-0.009563927163325082,-0.005829810813038256
0.284431,0.01722811401111296,0.023307666642860037,-0.02682147988833948,-0.027415102031206267,0.009759212122746472,-0.028476646531199516,-0.016407099785740332,0.006367213245479441
0.2848966,0.02583525786608293,-0.01696018121952078,-0.0270237,-0.025875096900660886,-0.09732682545302963,-0.02042007940740225,-0.019062506384099964,0.00782637378464773
0.2853621,0.033820046854469106,-0.051270049530615626,-0.02578334402530972,-0.028302476298748946,-0.1359456394673413,-0.013591618437952405,-0.01539959811389374,0.017784712146890626
0.2858276,0.021314359545350426,-0.07593440841273745,-0.02398115165283209,-0.028910371928290796,-0.14039603156974478,-0.017451014271938268,-0.00519455028421759,0.02494136743770448
0.2862931,-0.0015934045645748717,-0.07741985228228744,-0.0233955013449132,-0.0280308,-0.1351186,-0.02377674013623448,-0.0016743134909661549,0.026692958681519358
0.2867586,-0.02521512267725742,-0.0896826016118592,-0.023822644480951144,-0.02803558192272692,-0.13507078219719396,-0.03729075740734046,-0.00038395335629021166,0.022019815914514438
0.2872241,-0.03577490653279606,-0.12341474985810423,-0.023025135050748238,-0.02833666494925176,-0.1320600416200678,-0.0482775814413994,0.0070236924157157194,0.01390143334550783
0.2876897,-0.04293424870015798,-0.16281986840697735,-0.021250562276092694,-0.027203283766614007,-0.10209977267482884,-0.049695083766614,0.01981186639220644,0.005027794482991041
0.2881552,-0.034520495064053046,-0.1684044433916817,-0.019807344718299775,-0.025596427640850114,-0.04881423045457686,-0.030338463820425057,0.020718937757677195,-0.007308540668948529
0.2886207,-0.01985703483446395,-0.13575739312501142,-0.020914027182120154,-0.025043086408939923,-0.03982247664405174,-0.030061793204469958,0.010205536767414532,-0.014501976683781012
0.2890862,0.008813948439807998,-0.0683963111783949,-0.021734059036302135,-0.024075212656155028,-0.06324352752895025,-0.0564386666375635,-0.004259642276594236,-0.017333563517179493
0.2895517,0.04176362985835674,-0.0076332979854207145,-0.01977699504704021,-0.0238114401145314,-0.10326728132073,-0.06840700439304764,-0.009548913376055129,-0.010386641570087667
0.2900172,0.08477886313113007,0.03869688671098367,-0.02085436992291241,-0.021799820602898715,-0.11616741626106156,-0.047045037654474826,-0.004867378580452891,-0.010017304078332309
0.2904828,0.11846894789062758,0.06454284473780664,-0.017981058797488254,-0.021709024860749708,-0.09066271338837897,-0.04288911377085292,0.006059401431996124,-0.02190635057158372
0.2909483,0.11838842418196817,0.07231919221311438,-0.01806418272124585,-0.0223934218141639,-0.024877554625115764,-0.06984556383754052,0.010631584768032824,-0.05064071404806504
0.2914138,0.09146096781486748,0.0666503206896605,-0.018914526114991722,-0.02296031740999448,0.014521520415405779,-0.09464711950285057,0.004254051532364748,-0.07076542326519875
0.2918793,0.04251918897172532,0.05075574681780729,-0.01872920218733954,-0.02384655784608197,0.01774894492550159,-0.08382441693335063,0.0012757346152209015,-0.07733307480995825
0.2923448,0.004169744279343768,0.045437863083499966,-0.016948488591794476,-0.02500087718358895,-0.0028965140820552426,-0.04684655707709511,0.01603001673787122,-0.07064485438521165
0.2928103,-0.024869842876330345,0.05583711206783183,-0.016575612314609297,-0.02431735615730465,-0.005837010831483685,-0.02172233474111475,0.03637041058470622,-0.055544953191053424
0.2932759,-0.04548291192046719,0.07874198731426865,-0.016086437553700202,-0.02381474992839973,-0.0031702011456042883,-0.009820875418432209,0.05245332560860228,-0.04332182577643355
0.2937414,-0.054590943684448515,0.09361098187160946,-0.016360438187160948,-0.02354814271925858,-0.0024009293105849085,-0.004629648028926917,0.05842174821654615,-0.037094275409131953
0.2942069,-0.058838401503033905,0.09797392732329537,-0.016887771702762927,-0.022746304396316096,-0.02026532965894243,0.005938616611322681,0.061535112631313164,-0.032904561407096834
0.2946724,-0.059631522417578034,0.09459308109882658,-0.016371444835156068,-0.021787653841230506,-0.05391763847184539,0.01535647230781504,0.07273640637869436,-0.029152424175780345
0.2951379,-0.054097340026121814,0.07219404805227471,-0.01563561647366139,-0.02100681647366139,-0.0750595919738471,0.0166171,0.09179325902652431,-0.03225400939486235
0.2956034,-0.0501384783127298,0.04917840512500493,-0.0162814,-0.020433500427449007,-0.04001914741333362,0.017226649786275496,0.09873910066314584,-0.035712022542168216
0.296069,-0.05050529605332367,0.025066089930570502,-0.01575821220304643,-0.01963400359255643,0.05313405560961632,0.01561421208204062,0.0953515353484897,-0.03729522578774827
0.2965345,-0.035287681587862677,0.024405129924520576,-0.0162814,-0.019656680888505612,0.14123098907230985,0.024258884631676608,0.0791572196980823,-0.034799642665516835
0.297,-0.014966558802845045,0.018385868190201646,-0.016383575941167797,-0.01831285810159245,0.14711491080212324,0.029759701636390447,0.057787352583588185,-0.026271353518726042
0.2974655,-0.0038678607641200674,0.002302526005735283,-0.02015464585095226,-0.01805845750852731,0.06953786205746924,0.024444018272647375,0.037149334758384785,-0.01819508060933704
0.297931,-0.004035380678535448,-0.021726577935369695,-0.01724888676963458,-0.01867348407121269,-0.0129244,0.014631022714141793,0.02184218756694591,-0.028803009586832354
0.2983966,-0.004772645274203677,-0.04588610876229324,-0.017737232117275882,-0.01837358138430162,-0.03098540330352265,-0.0015846456339468355,0.01826054926702574,-0.051802647471520955
0.2988621,-0.0025240278278694404,-0.053497245861666785,-0.017385228663541738,-0.016619380257916868,0.01083058750803088,-0.006834005732708349,0.01815563758500035,-0.0483274983286554
0.2993276,-0.001587560261426992,-0.04678003615300531,-0.017710574683147472,-0.01611806505542554,0.06429194033767083,0.001011571137304617,0.014309357255702686,-0.024378933736143617
0.2997931,-0.005088332772659344,-0.030801409742476794,-0.01823124040942992,-0.015521705268751063,0.059353094318407726,0.004484477352001565,0.003398664889978244,-0.022437721136318457
0.3002586,-0.018812660373837425,-0.018158820315292066,-0.01757928412160377,-0.01511640951565845,0.03681134463509719,-0.005360006864948559,0.007115505008934615,-0.04876203218917524
0.3007241,-0.038803819863237644,-0.013107481012951576,-0.019626957436690528,-0.013641570253237895,0.03865877436690526,-0.015892352847477902,0.018902210284168428,-0.06538122927121685
0.3011897,-0.055730723654475275,-0.016533921310112793,-0.018224998908239337,-0.0129244,0.0958956097417092,-0.022625939971244517,0.019395171047562585,-0.05696194957660863
0.3016552,-0.06784639679709238,-0.018138479291889612,-0.016609172686376857,-0.01295609981159367,0.16053247718025163,-0.025839399057968348,0.005703207735950737,-0.03470295896059189
0.3021207,-0.07756827143362104,-0.012276803349288296,-0.016466161353475183,-0.013527974790213003,0.2011354303092369,-0.02869877395106501,-0.0034467067454648998,-0.021835857118150587
0.3025862,-0.08284858954291299,-0.005618260984507764,-0.016458470214279326,-0.01355873018542502,0.24581898767373742,-0.031707036761537695,-0.001084302653658891,-0.02621841231133721
0.3030517,-0.0827415451858634,-0.003912827959307679,-0.016982700418620576,-0.01219319916275885,0.32788297996689947,-0.03307377287793347,0.002651574401032791,-0.04113125036069327
0.3035172,-0.06458014816312982,-0.0044704888773492175,-0.017525938468697162,-0.0109102,0.38941396883582846,-0.03296388810657666,-0.0034226348629659035,-0.04811535387478865
0.3039828,-0.010646580112435125,-0.0016447621726583283,-0.01703451410214029,-0.0109102,0.36508853588524104,-0.031612507695534135,-0.012145380772361524,-0.046149656408561154
0.3044483,0.1467050271965772,0.005623721199429535,-0.020282113553697804,-0.013084845833949055,0.2565280077836536,-0.025289140912567017,-0.01751013049374532,-0.039544427907317506
0.3049138,0.25265068037917016,0.01845366712305291,-0.01690613995260373,-0.0129244,0.2032537384629832,-0.017702014982719182,-0.01389783555147445,-0.032517374014457624
0.3053793,0.25357958632041067,0.022456534626604827,-0.015325067099486705,-0.013575493160205317,0.1980567516938058,-0.009872002596920237,-0.001926890215790989,-0.027557390175722327
0.3058448,0.2355183992068092,0.03429656572634316,-0.015305063335064178,-0.013575291109957213,0.21074552206932,0.0020411344554064673,0.007460909994807463,-0.016860509994807465
0.3063103,0.2569791101126416,0.04753518351596755,-0.016365086235919802,-0.0129244,0.203118515326761,0.004751633673766168,0.0020631685048037706,-0.01642114682195724
0.3067759,0.2822113812394876,0.056969036413857685,-0.016862704215102817,-0.01264275747093831,0.15786660841177216,0.0056811858326239004,-0.0075465360173906995,-0.020370516085910742
0.3072414,0.26755647095796775,0.04044458895873432,-0.01803071008346819,-0.01271261237275361,0.11336642904420406,-0.009343087750361998,-0.020804174791329528,-0.026867616794566045
0.3077069,0.2407479692777008,0.020846927335183733,-0.019037753560166508,-0.0135958,0.10646161423297495,-0.024302346443679023,-0.023162206742129102,-0.03175887678008325
0.3081724,0.20956855057946763,0.008954970830467987,-0.018624272379172867,-0.013760087236297907,0.10230290565022326,-0.032806280122819075,-0.019162147583457367,-0.03984354858744418
0.3086379,0.15963534638864033,0.00010870937684869138,-0.017613453611359655,-0.013693249484091478,0.08720615679730608,-0.015553786227776164,-0.009762679475717729,-0.04097442943047008
0.3091034,0.08261494350164965,-0.0011087129967007226,-0.019164248114686144,-0.013076298872113132,0.07912310367546835,0.0010855927442226534,-0.009937384747525542,-0.0350217821047847
0.309569,0.037834105871708934,-0.008738553568654992,-0.020267722823963767,-0.013291574481273551,0.10005906348688769,0.02891192697377536,-0.007773437968161231,-0.030050304959116345
0.3100345,0.033651534919002385,-0.016057272556294574,-0.020258002718289803,-0.014818067119714968,0.16282621713110415,0.053285413733241915,0.0005511537262592812,-0.027294898980641323
0.3105,0.03439551830893217,-0.011342844998713771,-0.017921028088035494,-0.0149386,0.1846449208906448,0.06002701125184693,0.011414781476272645,-0.028634291544660864
0.3109655,0.02985803934923606,-0.0019671461543053622,-0.013754867455833245,-0.013734211242638874,0.1433168920598409,0.041905007740049356,0.010034811934568672,-0.029733574704062533
0.311431,0.02151657490510505,0.0024426069500927644,-0.007460014247376272,-0.013483158188229706,0.09222429304990723,0.011958301657129067,-0.00046817219962894135,-0.03182863026987013
0.3118966,0.0152743,-0.003960448698532542,-0.0007198627072346023,-0.013516725092961961,0.07522555055777178,-0.002923187187218286,-0.006871775570356918,-0.03317479970852897
0.3123621,0.013995621323669355,-0.012668570569807459,0.004883630330917339,-0.013323982325113096,0.0698494924087093,-0.007569136635990927,-0.00480376928359034,-0.034169103988391514
0.3128276,0.020470279907368386,-0.018105776783109078,0.022275464813050698,-0.01191975431770963,0.04566204597062376,-0.00820513110081871,-0.000751592853430868,-0.03335578206975641
0.3132931,0.028220301502580994,-0.019554602160325892,0.029400344352989157,-0.011645785172520568,0.01243129108367929,-0.013531614827479431,0.0038426707854109536,-0.03809466831416438
0.3137586,0.032982944547251834,-0.022100412080557005,0.008138046760618864,-0.012197125939633577,-0.00036519008451104296,-0.031753723541213245,0.008169181577435045,-0.04579578256744242
0.3142241,0.03280874361382406,-0.02780267887991059,-0.024396970532173056,-0.01307380405473651,-0.00844536449564896,-0.057628364972177985,0.008092141302610625,-0.05093188816521632
