Time,Rectus Femoris right,Rectus Femoris left,Hamstrings right,Hamstrings left,TibilaisÂ Anterior right,TibilaisÂ Anterior left,Gastrocnemius right,Gastrocnemius left
0.0,0.004259323181882973,-0.01335536911483177,-6.181614593175551e-05,-0.0023604407360584656,-0.005894365949492283,0.00800650397421418,-0.0042767623511005,-0.00018064151274027796
0.0005192,0.004395238356186835,-0.012868454077550858,-7.645302216685473e-06,-0.0022179374493844447,-0.005055923602607478,0.008675710849862212,-0.0041088770197374265,-0.00011267185786746923
0.0010385,0.004532717712859336,-0.012382760948578942,4.6457134569694715e-05,-0.0020755132840624625,-0.004218276858457776,0.00934600242882639,-0.003941355335003155,-4.471662912893372e-05
0.0015577,0.004671750050944242,-0.011898357723842663,0.00010048375645422106,-0.0019331856606628075,-0.003381539020617454,0.010017295768837753,-0.003774220439641755,2.3215129228064485e-05
0.0020769,0.004812323687352684,-0.011415312078618218,0.0001544271756745146,-0.0017909719496154626,-0.002545823273156581,0.010689507576805628,-0.003607495385633192,9.111437162416557e-05
0.0025962,0.004954426455678562,-0.010933691345873114,0.00020828002717571223,-0.0016488894655312526,-0.0017112426480875352,0.011362554230751986,-0.0034412031270493176,0.00015897205383778545
0.0031154,0.005098045705157028,-0.010453562494796417,0.00026203497109858167,-0.0015069554615577208,-0.0008779099929271109,0.012036351801835278,-0.003275366512960715,0.0002267791356956793
0.0036346,0.005243168299768088,-0.009974992109533705,0.00031568469525705944,-0.0013651871237741042,-4.593793839379658e-05,0.012710816076449744,-0.0031100082803990473,0.00029452658376277014
0.0041538,0.005389780617487347,-0.009498046368142709,0.00036922191760340193,-0.0012236015656296529,0.0007845611337409096,0.013385862578387137,-0.0029451510473794545,0.00036220537402983075
0.0046731,0.005537868549685882,-0.009022791021785407,0.00042263938867929853,-0.0010822158224293992,0.0016134751226289175,0.014061406591048937,-0.002780817305987444,0.00042980649459762135
0.0051923,0.005687417500681212,-0.008549291374171939,0.00047592989405144945,-0.0009410468458713228,0.002440692240131985,0.01473736317969798,-0.0026170294155345715,0.0004973209483561028
0.0057115,0.005838412387441285,-0.008077612261271122,0.0005290862567302526,-0.0008001114986386535,0.0032661010424007977,0.015413647213738953,-0.002453809595787067,0.0005647397556573719
0.0062308,0.0059908376394433565,-0.007607818031301576,0.0005821013395703618,-0.0006594265490508414,0.004089590461229543,0.016090173389017644,-0.002291179920271392,0.0006320539569810019
0.00675,0.0061446771986896145,-0.00713997252501642,0.0006349680476519673,-0.0005190086657764904,0.004911049835169105,0.01676685625012889,-0.0021291623096605663,0.000699254615590522
0.0072692,0.006299914519881314,-0.006674139056293519,0.0006876793306417098,-0.00037887441261130213,0.005730368940382332,0.017443610212723264,-0.001967778525244966,0.0007663328201798138
0.0077885,0.006456532570753186,-0.006210380393042067,0.0007402281851321663,-0.00023904024332382722,0.006547438021225233,0.018120349585802647,-0.001807050162491166,0.0008332796875082461
0.0083077,0.006614513832569787,-0.00574875873843536,0.0007926076569588634,-9.952249657158137e-05,0.007362147820538283,0.018796988593994805,-0.0016469986446922802,0.0009000863650234002
0.0088269,0.0067738403007854674,-0.005289335712478635,0.0008448108434937863,3.966260911014222e-05,0.008174389609632453,0.019473441399797255,-0.0014876452167131016,0.0009667440334702649
0.0093462,0.006934493485869542,-0.004832172333920057,0.0008968308959143722,0.00017849898024462654,0.008984055217955039,0.020149622125780732,-0.0013290109388331835,0.0010332439094858127
0.0098654,0.007096454414298214,-0.004377329002512183,0.0009486610214470152,0.0003169706532732758,0.009791037062420993,0.02082544487674295,-0.0011711166806907898,0.0010995772481779053
0.0103846,0.007259703629714756,-0.003924865481630585,0.001000294485584161,0.0004550617993365054,0.010595228176396332,0.02150082376180356,-0.0010139831153303997,0.0011657353456875187
0.0109038,0.007424221194259447,-0.003474840881255712,0.0010517246142741211,0.0005927567289742237,0.011396522238320989,0.022175672916431546,-0.0008576307133562172,0.0012317095417333046
0.0114231,0.007589986690070662,-0.003027313641323568,0.0011029447960827876,0.0007300398967442121,0.012194813599959298,0.022849906524396647,-0.0007020797371938754,0.001297491222137516
0.0119423,0.007756979220958522,-0.0025823415154502998,0.0011539484843264803,0.0008668959057567477,0.012989997314267233,0.023523438839636635,-0.0005473502354623155,0.001363071821332341
0.0124615,0.00792517741425243,-0.0021399815550354204,0.001204729199175186,0.0010033095121238411,0.013781969162866654,0.02419618420803277,-0.0003934620374576416,0.0014284428248456807
0.0129808,0.008094559422823803,-0.001700290093748029,0.0012552805297254774,0.001139265629321488,0.014570625683117719,0.02486805708908611,-0.00024043474775060656,0.0014935957717654312
0.0135,0.008265102927285264,-0.0012633227324000693,0.0013055961360424128,0.0012747493324633524,0.01535586419478152,0.025538972077487742,-8.82877408992841e-05,0.0015585222571813425
0.0140192,0.008436785138367497,-0.0008291343242103767,0.0013556697511697287,0.0014097458624843285,0.016137582826265408,0.026208843924576498,6.295984372158953e-05,0.0016232139346035734
0.0145385,0.008609582799474996,-0.0003977789604629609,0.0014054951831076504,0.0015442406302324295,0.016915680540443907,0.02687758755967789,0.0002132891069731653,0.00168766251835711
0.0150577,0.008783472189421809,3.069004343732423e-05,0.0014550663167576636,0.0016782192204674712,0.017690057160048324,0.027545118111318222,0.00036268139488551085,0.001751859785951273
0.0155769,0.008958429125348388,0.0004562201615088568,0.001504377115833614,0.001811667395765022,0.01846061339261857,0.028211350928307812,0.0005111183034697375,0.0018157975804235925
0.0160962,0.009134428965820632,0.0008787596703344373,0.001553421624738522,0.0019445711003241242,0.019227250855011046,0.028876201600687258,0.000658581683407877,0.001879467812657373
0.0166154,0.009311446614112113,0.0012982576617971433,0.0016021939704065186,0.0020769164636773316,0.019989872097456757,0.029539585980530653,0.0008050536446192122,0.0019428624636723113
0.0171346,0.009489456521670402,0.0017146640554085602,0.0016506883641093327,0.0022086898043016637,0.02074838062716421,0.030201420202599565,0.0009505165607018286,0.002005973586887558
0.0176538,0.00966843269176836,0.0021279296102273077,0.001698899103226765,0.002339877633129158,0.02150268093146217,0.03086162070484171,0.0010949530732482478,0.0020687933103566425
0.0181731,0.009848348683341177,0.002538005936366081,0.001746820572980618,0.002470466656955793,0.022252678500478115,0.03152010424872829,0.0012383460960341095,0.002131313838973729
0.0186923,0.010029177615009835,0.0029448455060858353,0.0017944472481315722,0.0026004437817476423,0.022998279849349105,0.03217678793942434,0.0013806788190790073,0.002193527456650703
0.0192115,0.010210892169291663,0.003348401664476219,0.0018417736946385213,0.0027297961158432313,0.023739392539962333,0.032831589245786684,0.0015219347125787314,0.0022554265284646215
0.0197308,0.010393464596998487,0.0037486286397218774,0.0018887945712799158,0.002858510973051144,0.024475925202223116,0.03348442602018436,0.001662097530708312,0.0023170035027750757
0.02025,0.010576866721822871,0.004145481552954791,0.0019355046312366977,0.0029865758756420545,0.02520778755484821,0.034135216518136925,0.0018011513152953902,0.002378250913311016
0.0207692,0.010761069945112847,0.004538916427693313,0.0019818987236364586,0.003113978557234441,0.025934890425682353,0.03478387941776591,0.0019390803993635374,0.0024391613812265686
0.0212885,0.010946045250835456,0.0049288901988691295,0.0020279717950585055,0.0032407069655733508,0.026657145771535846,0.035430333839055125,0.0020758694105452134,0.002499727617125366
0.0218077,0.011131763210729399,0.005315360721443837,0.0020737188909995524,0.0033667492652016766,0.027374466697541084,0.0360744993629158,0.0022115032743641166,0.0025599424230529013
0.0223269,0.011318193989646959,0.005698286778617287,0.0021191351572997785,0.0034920938400235173,0.02808676747602566,0.03671629605005264,0.002345967217386704,0.0026197986944563943
0.0228462,0.011505307351085318,0.006077628089630282,0.0021642158415289972,0.0036167292957592547,0.028793963564900053,0.03735564445962717,0.0024792467702427004,0.0026792894221116725
0.0233654,0.011693072662907417,0.006453345317164557,0.0022089562943326687,0.0037406444622920996,0.02949597162555782,0.037992465667714526,0.0026113277705144588,0.0027384076940165257
0.0238846,0.011881458903252349,0.006825400074343308,0.0022533519707374867,0.0038638283959059163,0.03019270954028655,0.038626681285550094,0.0027421963654951148,0.0027971466972500237
0.0244038,0.012070434666635233,0.0071937549313358376,0.0022973984314162547,0.003986270381414256,0.03088409642918791,0.03925821347756222,0.002871839014815578,0.002855499719797262
0.0249231,0.012259968170236476,0.0075583734215701045,0.0023410913439117836,0.004107959934180603,0.031570052666605196,0.03988698497918701,0.003000242492940558,0.0029134601523390234
0.0254423,0.012450027260380263,0.007919220047557195,0.0023844264838195576,0.00422888680202991,0.032250499897056646,0.04051291911446122,0.0031273938915339326,0.0029710214900058375
0.0259615,0.012640579419202087,0.008276260286331804,0.002427399735928952,0.004349040967051571,0.03292536105067303,0.041135939813389,0.003253280621693909,0.003028177334095963
0.0264808,0.012831591771505049,0.00862946059451286,0.002470007095322822,0.004468412647294013,0.033594560358137945,0.04175597162907799,0.003377890416058502,0.0030849213937568327
0.027,0.013023031091804636,0.008978788412988428,0.002512244668435294,0.004586992298351123,0.034258023365129474,0.04237293975464039,0.0035012113307819385,0.0031412474876295025
0.0275192,0.013214863811561617,0.009324212171229043,0.0025541086740676223,0.00470477061484077,0.034915676946261895,0.042986770039854676,0.003623231747382644,0.0031971495454556718
0.0280385,0.013407056026602663,0.009665701291233592,0.002595595444361948,0.004821738531775717,0.03556744931852646,0.043597389007583504,0.0037439403744635004,0.0032526216096468285
0.0285577,0.013599573504728244,0.01000322619111194,0.0026367014257328058,0.004937887225827244,0.036213270054230556,0.04420472386994402,0.0038633262493050916,0.003307657836815111
0.0290769,0.013792381693507225,0.010336758288308498,0.0026774231797562116,0.005053208116481809,0.036853070093434755,0.044808702544226774,0.003981378739332653,0.0033622524992655014
0.0295962,0.01398544572825759,0.010666270002470949,0.0027177573840161586,0.005167692867091091,0.037486781755887835,0.045409253668559406,0.0040980875434574555,0.0034163999864489977
0.0301154,0.014178730440212615,0.010991734757968347,0.002757700832908366,0.005281333385815787,0.03811433875245972,0.0460063066173115,0.004213442693293346,0.0034700948063764317
0.0306346,0.01437220036487177,0.01131312698606279,0.002797250438401127,0.005394121826463461,0.038735676196072724,0.04659979151623654,0.004327434554249157,0.003523331586992634
0.0311538,0.01456581975053548,0.011630422126738909,0.002836403230753115,0.005506050589220801,0.03935073061213134,0.0471896392573469,0.004440053826497705,0.0035761050775106346
0.0316731,0.014759552567022854,0.011943596630195449,0.0028751563591880138,0.005617112321280608,0.039959439948450935,0.04777578151351729,0.004551291545822138,0.00362841014970562
0.0321923,0.014953362514571373,0.012252627958003253,0.0029135070925258525,0.005727299917363884,0.040561743584685776,0.04835815075281222,0.004661139084340444,0.0036802417991683455
0.0327115,0.015147213032917451,0.012557494583933975,0.0029514528197709575,0.005836606520137474,0.04115758234125651,0.04893668025253262,0.004769588151109035,0.003731595146517732
0.0332308,0.015341067310556704,0.012858175994463915,0.0029889910506564745,0.005945025520527817,0.04174689848777726,0.049511304112976995,0.004876630792606458,0.00378246543857234
0.03375,0.015534888294182564,0.013154652688957456,0.003026119416145458,0.006052550557931484,0.042329635750982565,0.05008195727091208,0.004982259393098432,0.003832848049480419
0.0342692,0.0157286386983019,0.013446906179534576,0.0030628356688885737,0.006159175520323388,0.04290573932215405,0.050648575512748165,0.005086466674885578,0.0038827384818082306
0.0347885,0.015922281015026078,0.013734918990626984,0.0030991376836385066,0.006264894544263619,0.0434751558640472,0.051211095487413996,0.00518924569843536,0.003932132367586373
0.0353077,0.016115777524035896,0.014018674658227539,0.003135023457621167,0.006369702014804089,0.04403783351731875,0.051769454718926695,0.005290589862399856,0.003981025469313882
0.0358269,0.016309090302718543,0.01429815772883744,0.003170491110863837,0.006473592565296216,0.04459372190645579,0.05232359161865218,0.005390492903521077,0.004029413680919944
0.0363462,0.01650218123647473,0.0145733537581158,0.0032055388864803756,0.0065765610771010095,0.04514277214520844,0.05287344549725271,0.00548894889642559,0.004077293028683113
0.0368654,0.01669501202919392,0.014844249309236187,0.003240165150913614,0.006678602679203048,0.04568493684152804,0.05341895657631861,0.005585952253310209,0.004124659672107961
0.0373846,0.016887544213895506,0.015110831950954707,0.003274368394135076,0.006779712747729932,0.046220170102013014,0.053960065999682595,0.005681497723520531,0.004171509904759048
0.0379038,0.017079739163533603,0.015373090255394208,0.0033081472298021543,0.006879886905378893,0.046748427535865056,0.0544967158444156,0.005775580393024083,0.004217840155052149
0.0384231,0.017271558101962986,0.015631013795549188,0.0033415003953729014,0.0069791210207523465,0.04726966625835796,0.05502884913150386,0.005868195683779843,0.004263646987002581
0.0389423,0.01746296211506354,0.015884593142516,0.00337442675217857,0.007077411207604282,0.04778384489382187,0.05555640983620708,0.005959339353005879,0.004308927100930503
0.0394615,0.017653912162020474,0.016133819862452835,0.003406925285454097,0.007174753823999446,0.048290923578146024,0.056079342898097906,0.006049007492346903,0.004353677334122988
0.0399808,0.01784436908675739,0.016378686513273885,0.003438995104326705,0.007271145471387294,0.04879086396080388,0.05659759423078326,0.006137196526943518,0.004397894661452669
0.0405,0.018034293629519214,0.016619186641082136,0.003470635441762825,0.007366582993592743,0.04928362920640511,0.057111110731308534,0.006223903214404965,0.004441576195952753
0.0410192,0.018223646438601738,0.01685531477634499,0.003501845654473528,0.007461063475725663,0.049769183995779544,0.05761984028924679,0.006309124643687235,0.004484719189348186
0.0415385,0.018412388082224413,0.017087066429816937,0.003532625222778655,0.007554584243011116,0.050247494526598394,0.05812373179547541,0.006392858233878342,0.004527321032542769
0.0420577,0.01860047906054295,0.017314438088213358,0.0035629737504297957,0.007647142859542254,0.05071852851353854,0.058622735150643014,0.0064751017328926125,0.004569379256062042
0.0425769,0.018787879817798055,0.01753742720963951,0.00359289096439225,0.007738737126957824,0.05118225518799532,0.05911680127332948,0.00655585321607574,0.004610891530451783
0.0430962,0.018974550754596618,0.017756032218778483,0.00362237671458609,0.007829365083046207,0.051638645297349295,0.05960588210790176,0.00663511108472236,0.00465185566663198
0.0436154,0.019160452240321403,0.01797025250184206,0.0036514309735864053,0.007919025000278008,0.05208767110379209,0.06008993063206769,0.006712874064507837,0.004692269616206256
0.0441346,0.019345544625665338,0.01818008840128814,0.003680053836282816,0.00800771538426921,0.052529306382716565,0.06056890086412995,0.006789141203835938,0.004732131471726754
0.0446538,0.019529788255286114,0.018385541210308432,0.0037082455194982974,0.008095434972176989,0.052963526420676074,0.061042747869941634,0.006863911872104035,0.004771439466914608
0.0451731,0.019713143480577004,0.018586613167090142,0.0037360063615673503,0.008182182731030305,0.05339030801291801,0.061511427769564794,0.00693718575788748,0.004810191976836123
0.0456923,0.01989557067254936,0.01878330744885533,0.003763336821873539,0.008267957855997472,0.05380962946049688,0.061974897743633114,0.007008962867044718,0.004848387518034833
0.0462115,0.020077030234822334,0.018975628165681765,0.0037902374803464155,0.008352759768592875,0.05422147056697239,0.06243311603941982,0.007079243520744731,0.0048860247486195805
0.0467308,0.020257482616715092,0.01916358035410897,0.0038167090369178357,0.0084365881148251,0.054625812634698054,0.06288604197661177,0.007148028353418326,0.0049231024683087515
0.04725,0.020436888326436805,0.019347169970533384,0.003842752310937681,0.00851944276328875,0.05502263846070587,0.063333635952791,0.007215318310634723,0.004959619618430751
0.0477692,0.02061520794436937,0.019526403884396575,0.003868368240549001,0.008601323803202283,0.055411932332192465,0.06377585944862488,0.0072811146469048535,0.004995575281880793
0.0482885,0.020792402136437786,0.019701289871170494,0.003893557882022587,0.008682231542394173,0.05579368002161163,0.0642126750327663,0.007345418923412726,0.005030968683034028
0.0488077,0.020968431667562928,0.01987183660514374,0.003918322409050971,0.008762166505239817,0.056167868781378374,0.06464404636646577,0.007408233005676138,0.005065799187615035
0.0493269,0.021143257415191314,0.02003805365201291,0.003942663112001822,0.00884112943055151,0.056534487338189575,0.0650699382078973,0.0074695590611380085,0.005100066302523652
0.0498462,0.02131684038289626,0.020199951461282846,0.003966581397130691,0.008919121269423862,0.056893525886966674,0.0654903164162004,0.007529399556689582,0.00513376967561712
0.0503654,0.02148914171404468,0.02035754135847978,0.003990078785753051,0.008996143183036927,0.05724497608442632,0.06590514795524013,0.007587757256126744,0.0051669090954485014
0.0508846,0.021660122705523623,0.020510835537180964,0.004013156913375535,0.00907219654041934,0.057588831042285564,0.06631440089708776,0.007644635217540726,0.005199484490961343
0.0514038,0.021829744821520513,0.020659847050864478,0.0040358175287862645,0.009147282916173631,0.0579250853201088,0.06671804442522408,0.007700036790644479,0.005231495931140565
0.0519231,0.021997969707350955,0.0208045898045827,0.004058062493104176,0.009221404088165958,0.05825373491780455,0.06711604883746775,0.007753965614035999,0.005262943624619589
0.0524423,0.022164759203327736,0.020945078546462943,0.004079893778787239,0.009294562035182405,0.05857477726778049,0.06750838554863071,0.007806425612399892,0.005293827919243713
0.0529615,0.022330075358664686,0.021081328859038677,0.004101313468599489,0.009366758934553994,0.058888211226765644,0.06789502709290289,0.007857420993648404,0.005324149301589762
0.0534808,0.02249388044540889,0.02121335715041479,0.00412232375453681,0.009437997159752532,0.05919403706730872,0.06827594712596792,0.00790695624600314,0.005353908396441975
0.054,0.02265613697239464,0.021341180645270245,0.004142926936711455,0.009508279277959384,0.05949225646896148,0.0686511204268516,0.007955036135018646,0.00538310596622411
0.0545192,0.022816807699212478,0.021464817375701394,0.00416312542219529,0.009577608047609215,0.0597828725091562,0.06902052289950432,0.008001665700549042,0.005411742910387709
0.0550385,0.022975855650186568,0.021584286171909207,0.0041829217238218185,0.00964598641591069,0.060065889653786446,0.06938413157411835,0.008046850253658835,0.005439820264756422
0.0555577,0.023133244128353648,0.021699606652733405,0.004202318458947014,0.009713417516346072,0.06034131374750089,0.06974192460818059,0.00809059537347903,0.005467339200826295
0.0560769,0.023288936729436636,0.021810799216036385,0.004221318348169055,0.009779904666151565,0.06060915200372005,0.0700938812872606,0.008132906904009661,0.005494301025021903
0.0565962,0.023442897355805948,0.02191788502893965,0.0042399242140070265,0.009845451363780197,0.060869412994386,0.0704399820255336,0.008173790950869796,0.005520707177908186
0.0571154,0.02359509023042154,0.022020886017915464,0.004258138979538666,0.009910061286348954,0.06112210663945518,0.07078020836603731,0.008213253877996084,0.005546559233357813
0.0576346,0.023745479910748504,0.022119824858736245,0.0042759656669972565,0.009973738287071791,0.06136724419614424,0.0711145429806611,0.008251302304290923,0.00557185889767388
0.0581538,0.023894031302639136,0.022214724966284457,0.004293407396327776,0.010036486392680056,0.06160483824793876,0.07144296966986538,0.008287943100221259,0.0055966080086677136
0.0586731,0.024040709674174314,0.022305610484225562,0.0043104673837024605,0.010098309800831798,0.06183490269337446,0.07176547336212889,0.008323183384369015,0.005620808534691502
0.0591923,0.02418548066945688,0.022392506274547048,0.004327148939995951,0.010159212877511313,0.06205745273460044,0.07208204011312104,0.008357030519934144,0.0056444625736254885
0.0597115,0.02432831032234982,0.022475437906966475,0.0043434554692202455,0.010219200154420256,0.06227250486573371,0.07239265710459636,0.008389492111191285,0.00566757235181939
0.0602308,0.024469165070151868,0.0225544316482116,0.004359390466919754,0.010278276326361559,0.06248007686101393,0.07269731264300883,0.00842057599990101,0.005690140222987703
0.06075,0.02460801176720324,0.02262951445117575,0.0043749575185268175,0.010336446248617378,0.0626801877627672,0.0729959961578442,0.008450290261676723,0.0057121686670585725
0.0612692,0.024744817698414016,0.022700713943951525,0.004390160297678125,0.010393714934322267,0.06287285786918752,0.07328869819967003,0.008478643202308352,0.0057336602889759515
0.0617885,0.02487955059270782,0.02276805841874575,0.004405002564492538,0.01045008755183274,0.06305810872194424,0.07357541043790441,0.008505643354044036,0.005754617817454875
0.0623077,0.02501217863637334,0.02283157682067853,0.004419488163810905,0.010505569422094388,0.0632359630936237,0.07385612565830581,0.008531299471831101,0.005775044103689864
0.0628269,0.025142670486316132,0.02289129873646901,0.0044336210233985015,0.010560166016007767,0.06340644497501294,0.07413083776018722,0.008555620529517697,0.005794942120016681
0.0633462,0.02527099528320326,0.02294725438301037,0.004447405152110793,0.010613882951794176,0.06356957956223318,0.07439954175335964,0.008578615716016483,0.005814314958527895
0.0638654,0.02539712266449312,0.022999474595836317,0.004460844638023304,0.010666725992362503,0.06372539324373055,0.07466223375481033,0.008600294431431775,0.00583316582964294
0.0643846,0.025521022777342982,0.023047990817481396,0.004473943646526383,0.010718701042678257,0.06387391358713124,0.07491891098512375,0.00862066628315153,0.005851498060633471
0.0649038,0.025642666291386545,0.023092835085737222,0.004486706418385711,0.010769814147135895,0.06401516932596812,0.07516957176465333,0.008639741081905537,0.00586931509410492
0.0654231,0.025762024411373825,0.02313404002180712,0.004499137267769372,0.010820071486935494,0.06414919034628576,0.07541421550945324,0.00865752883779114,0.0058866204864351825
0.0659423,0.025879068889665728,0.0231716388183618,0.00451124058024231,0.010869479377464812,0.0642760076731303,0.075652842726979,0.00867403975626785,0.005903417906171394
0.0664615,0.025993772038575353,0.023205665227499048,0.004523020810728958,0.010918044265687698,0.06439565345693089,0.07588545501156588,0.008689284234122192,0.005919711132385828
0.0669808,0.026106106742548343,0.023236153548610902,0.0045344824814448435,0.010965772727539812,0.06450816095977857,0.07611205503969296,0.008703272855404141,0.005935504052991967
0.0675,0.02621604647017422,0.023263138616162107,0.00454563017979794,0.011012671465332597,0.064613564541608,0.07633264656504098,0.008716016387336614,0.0059508006630218544
0.0680192,0.026323565286020735,0.023286655787383793,0.004556468556260553,0.011058747305166405,0.0647118996462873,0.0765472344133512,0.008727525776199473,0.005965605062865903
0.0685385,0.026428637862283205,0.023306740929886573,0.004567002322212517,0.011104007194353662,0.06480320278762024,0.07675582447709198,0.008737812143189605,0.00597992145647634
0.0690577,0.02653123949024051,0.0233234304091972,0.004577236247756441,0.011148458198852896,0.06488751153526505,0.07695842370993904,0.008746886780258705,0.005993754149535586
0.0695769,0.026631346091509585,0.023336761076222907,0.004587175159505749,0.011192107500714346,0.06496486450057332,0.07715504012107546,0.008754761145930368,0.006007107547590909
0.0700962,0.02672893422908991,0.023346770254647587,0.004596823938346198,0.011234962395537892,0.06503530132235202,0.07734568276931626,0.008761446861098147,0.00601998615415675
0.0706154,0.02682398111818959,0.023353495728263875,0.004606187517171611,0.011277030289943897,0.06509886265255155,0.07753036175706261,0.008766955704806179,0.006032394568786165
0.0711346,0.026916464636824317,0.02335697572824522,0.004615270878594497,0.011318318699057528,0.06515559014188188,0.07770908822409052,0.008771299610013945,0.006044337485112831
0.0716538,0.02700636333618025,0.02335724892036203,0.004624079052632364,0.011358835244007003,0.06520552642535937,0.07788187434117837,0.008774490659346714,0.0060558196888651
0.0721731,0.027093656450731907,0.023354354392145983,0.004632617114370553,0.011398587649436229,0.06524871510778586,0.07804873330357764,0.00877654108083315,0.006066846055853507
0.0726923,0.027178323908105696,0.02334833164000652,0.004640890181602514,0.011437583741032162,0.06528520074916201,0.07820967932433022,0.008777463243631599,0.0060774215499332035
0.0732115,0.02726034633867959,0.023339220556303667,0.004648903412448636,0.011475831443067203,0.06531502885003658,0.07836472762743568,0.00877726965374641,0.006087551220942718
0.0737308,0.027339705084909245,0.02332706141638124,0.004656662002954832,0.01151333877595689,0.06533824583679296,0.07851389444087176,0.008775972949735682,0.006097240202620475
0.07425,0.027416382210370596,0.023311894865564432,0.0046641711846722575,0.011550113853833073,0.06535489904687398,0.07865719698947005,0.008773585898411727,0.006106493710500487
0.0747692,0.027490360508508754,0.02329376190612571,0.004671436222219652,0.011586164882132764,0.0653650367139455,0.07879465348764951,0.00877012139053556,0.0061153170397885825
0.0752885,0.0275616235110828,0.023272703884223055,0.004678462410829877,0.011621500155202798,0.06536870795299869,0.07892628313200967,0.008765592436506674,0.006123715563220493
0.0758077,0.02763015549629579,0.02324876247681421,0.00468525507388227,0.011656128053920412,0.06536596274539057,0.07905210609378555,0.00876001216204945,0.006131694728903104
0.0763269,0.02769594149659926,0.023221979678550733,0.004691819560422425,0.011690057043329833,0.0653568519238221,0.07917214351116666,0.008753393803897532,0.0061392600581401235
0.0768462,0.027758967306161456,0.023192397788655554,0.004698161242671009,0.011723295670294976,0.06534142715725333,0.07928641748148173,0.008745750705477671,0.006146417143243428
0.0773654,0.027819219487988666,0.02316005939778783,0.00470428551352321,0.011755852561168316,0.0653197409357552,0.07939495105325133,0.00873709631259458,0.006153171645331316
0.0778846,0.027876685380689725,0.02312500737489915,0.0047101977840403875,0.011787736419476058,0.06529184655529853,0.07949776821811057,0.00872744416911847,0.006159529292114928
0.0784038,0.02793135310487465,0.023087284854085198,0.004715903480935483,0.011818956023619659,0.06525779810248197,0.07959489390260395,0.008716807912676955,0.006165495875674031
0.0789231,0.027983211569179496,0.023046935221437463,0.004721408044053748,0.011849520224593794,0.06521765043920115,0.0796863539598549,0.008705201270353001,0.006171077250223347
0.0794423,0.028032250475910892,0.02300400210189962,0.004726716923850342,0.011879437943720912,0.06517145918726182,0.07977217516111286,0.008692638054390597,0.006176279329870593
0.0799615,0.028078460326305135,0.022958529346133547,0.004731835578866311,0.011908718170402477,0.06511928071294033,0.07985238518718082,0.00867913215790976,0.006181108086367317
0.0804808,0.02812183242539788,0.02291056101740009,0.004736769473204441,0.01193736995988705,0.06506117211149513,0.07992701261972691,0.008664697550632521,0.006185569546853607
0.081,0.028162358886501596,0.02286014137845987,0.004741524074006438,0.011965402431055375,0.06499719119163326,0.07999608693248307,0.008649348274621507,0.006189669791597721
0.0815192,0.02820003263528901,0.02280731487849942,0.00474610484893286,0.011992824764222662,0.06492739645993607,0.08005963848233465,0.008633098440032775,0.006193414951731678
0.0820385,0.028234847413481364,0.02275212614008802,0.004750517263647214,0.012019646198958242,0.06485184710524827,0.0801176985003048,0.008615962220884526,0.006196811206983851
0.0825577,0.028266797782141084,0.02269461994617034,0.004754766779305574,0.012045876031922809,0.06477060298303439,0.0801702990824382,0.008597953850843384,0.006199864783409631
0.0830769,0.028295879124568633,0.022634841227100022,0.00475885885005307,0.012071523614723379,0.06468372459970603,0.08021747318058847,0.008579087619029813,0.006202581951121235
0.0835962,0.02832208764880373,0.02257283504771895,0.004762798920528569,0.0120965983517862,0.0645912730969228,0.0802592545931138,0.008559377865844276,0.006204969022017701
0.0841154,0.028345420389731018,0.022508646594486953,0.004766592423378818,0.012121109698247649,0.06449331023586935,0.08029567795548456,0.008538838978815652,0.006207032347516093
0.0846346,0.02836587521079033,0.02244232116266637,0.004770244776783348,0.012145067157863216,0.0643898983815111,0.08032677873080649,0.008517485388473382,0.006208778316284908
0.0851538,0.028383450805291525,0.022373904143565836,0.004773761381991373,0.012168480280934497,0.06428110048683057,0.08035259320026239,0.008495331564244759,0.006210213351980654
0.0856731,0.028398146697333832,0.02230344101184731,0.004777147620871971,0.012191358662254124,0.0641669800770471,0.08037315845347508,0.008472392010378678,0.006211343910988475
0.0861923,0.028409963242329594,0.022230977312900406,0.0047804088534787546,0.012213711939068431,0.0640476012338229,0.08038851237879382,0.008448681261897142,0.006212176480167713
0.0867115,0.028418901627132516,0.02215655865028762,0.004783550415630301,0.012235549789057613,0.06392302857945892,0.0803986936535069,0.008424213880575748,0.006212717574603192
0.0872308,0.028424963869770534,0.022080230673264135,0.004786577616507534,0.012256881928333054,0.06379332726108491,0.08040374173398253,0.0083990044509543,0.006212973735363008
0.08775,0.028428152818783692,0.022002039064375492,0.004789495736269294,0.012277718109451486,0.0636585629348479,0.08040369684574118,0.008373067576378727,0.006212951527263531
0.0882692,0.0284284721521679,0.021922029527136302,0.004792310023687327,0.01229806811944554,0.0635188017501035,0.08039859997346152,0.008346417875075339,0.006212657536642303
0.0887885,0.028425926375925628,0.021840247773793158,0.004795025693801898,0.012317941777870309,0.06337411033361448,0.08038849285092255,0.008319069976258482,0.006212098369139466
0.0893077,0.02842052082222506,0.021756739513174597,0.0047976479255992825,0.012337348934865494,0.0632245557737602,0.08037341795088411,0.008291038516272579,0.006211280647488332
0.0898269,0.02841226164716974,0.021671550438630997,0.0048001818597123444,0.012356299469232725,0.06307020560476108,0.08035341847490708,0.00826233813476949,0.006210211009315673
0.0903462,0.028401155828181073,0.02158472621606719,0.004802632596145416,0.012374803286527599,0.06291112779092156,0.08032853834311449,0.008232983470922103,0.006208896104952262
0.0908654,0.02838721116099662,0.021496312472070542,0.004805005192024694,0.01239287031716604,0.06274739071089494,0.08029882218389427,0.008202989159675027,0.006207342595254223
0.0913846,0.028370436256287473,0.021406354782137156,0.004807304659375343,0.01241051051454456,0.0625790631419736,0.08026431532354404,0.008172369828033273,0.006205557149435674
0.0919038,0.028350840535898685,0.021314898658998868,0.0048095359629264645,0.01242773385317397,0.062406214244408106,0.0802250637758584,0.008141140091389797,0.006203546442913207
0.0924231,0.028328434228717142,0.021221989541053546,0.004811704017945089,0.012444550326826153,0.062228913545758706,0.0801811142316589,0.008109314549892836,0.006201317155162657
0.0929423,0.028303228366171735,0.021127672780901115,0.0048138136881002765,0.012460969946693391,0.06204723092528352,0.08013251404826723,0.00807690778485389,0.006198875967588683
0.0934615,0.028275234777371296,0.021031993633987552,0.004815869783358402,0.012477002739559897,0.06186123659836765,0.08007931123892195,0.008043934355197247,0.0061962295614076115
0.0939808,0.028244466083885984,0.020934997247359012,0.0048178770579106545,0.012492658745985074,0.061671001100998435,0.08002155446213866,0.008010408793951906,0.006193384615543982
0.0945,0.02821093569417838,0.020836728648528213,0.004819840208133751,0.012507948018498116,0.06147659527429197,0.07995929301101318,0.00797634560478669,0.006190347804541202
0.0950192,0.028174657797690725,0.020737232734455133,0.004821763870584848,0.012522880619803512,0.06127809024907608,0.07989257680246725,0.00794175925858933,0.006187125796486676
0.0955385,0.02813564735859499,0.02063655426064401,0.004823652620031604,0.012537466620997069,0.06107555743053496,0.07982145636643491,0.007906664190090201,0.006183725250951743
0.0960577,0.028093920109212717,0.020534737830358748,0.004825510967518341,0.01255171609979198,0.06086906848292036,0.07974598283498864,0.007871074794531432,0.00618015281694672
0.0965769,0.02804949254311171,0.020431827883958805,0.004827343358469226,0.012565639138754487,0.0606586953143339,0.07966620793140373,0.007835005424382048,0.006176415130891334
0.0970962,0.02800238190788683,0.020327868688357686,0.004829154170829366,0.01257924582354861,0.06044451006158462,0.07958218395915995,0.007798470386099833,0.00617251881460082
0.0976154,0.027952606197632165,0.02022290432660615,0.004830947713244717,0.01259254624118928,0.060226585075126106,0.07949396379088028,0.007761483936940612,0.006168470473287988
0.0981346,0.027900184145111973,0.020116978687602458,0.004832728223281669,0.01260555047830321,0.060004992904077084,0.0794016008572069,0.007724060281815618,0.006164276693581664
0.0986538,0.027845135213637816,0.020010135455931985,0.004834499865687162,0.012618268619396727,0.0597798062813298,0.07930514913561461,0.007686213570197595,0.006159944041561908
0.0991731,0.02778747958865925,0.019902418101838633,0.004836266730690176,0.0126307107451297,0.059551098108750075,0.07920466313916219,0.007647957893076288,0.006155479060812509
0.0996923,0.02772723816907549,0.019793869871330503,0.004838032832345386,0.012642886930594701,0.0593189414424732,0.0791001979051832,0.0076093072799638655,0.006150888270491256
0.1002115,0.02766443255827536,0.019684533776422243,0.004839802106919763,0.012654807243600526,0.05908340947829901,0.07899180898391729,0.007570275695950834,0.0061461781634184745
0.1007308,0.027599085054912854,0.019574452585516475,0.0048415784113229185,0.012666481742959191,0.05884457553718943,0.07887955242708443,0.0075308770388129356,0.006141355204184301
0.10125,0.02753121864342541,0.01946366881392648,0.004843365521581902,0.012677920476775604,0.05860251305087151,0.07876348477640457,0.007491125136169479,0.006136425827275168
0.1017692,0.02746085698430196,0.01935222471454228,0.0048451671313611755,0.01268913348073911,0.05835729554754855,0.07864366305206527,0.007451033742693534,0.006131396435219906
0.1022885,0.027388024404107876,0.01924016226864209,0.00484698685052846,0.01270013077641615,0.05810899663772168,0.07852014474113973,0.007410616537374386,0.0061262733967558545
0.1028077,0.027312745885273604,0.019127523176851097,0.004848828203767128,0.012710922369543291,0.057857690000124085,0.07839298778595762,0.007369887120832561,0.0061210630450153425
0.1033269,0.027235047055653785,0.01901434885024935,0.004850694629235761,0.012721518248319817,0.05760344936776978,0.07826225057243,0.007328859012687717,0.0061157716757328845
0.1038462,0.027154954177863407,0.01890068040163053,0.0048525894772755195,0.012731928381699105,0.057346348514118385,0.07812799191832978,0.0072875456489795995,0.006110405545473359
0.1043654,0.027072494138397338,0.01878655863691334,0.004854516009165886,0.012742162717677996,0.05708646123935717,0.07799027106152828,0.007245960379642251,0.0061049708698814684
0.1048846,0.02698769443653949,0.018672024046707068,0.004856477395929341,0.01275223118158345,0.05682386135680123,0.07784914764818825,0.0072041164660316005,0.006099473821952685
0.1054038,0.026900583173067552,0.01855711679803276,0.004858476717185526,0.012762143674355691,0.05655862267941214,0.07770468172091301,0.007162027078506511,0.00609392053032592
0.1059231,0.02681118903875916,0.018441876726201362,0.0048605169600553855,0.012771910070827215,0.056290819006435434,0.07755693370685132,0.007119705294063315,0.006088317077598058
0.1064423,0.026719541302705194,0.018326343326849986,0.004862601018115788,0.012781540217996934,0.05602052411015668,0.07740596440575649,0.007077164094023859,0.006082669498660506
0.1069615,0.026625669800435757,0.0182105557481373,0.004864731690405075,0.012791043933298723,0.055747811722775736,0.07725183497799827,0.007034416361777012,0.006076983779057892
0.1074808,0.02652960492186431,0.01809455278309891,0.004866911680479995,0.012800431002863549,0.05547275552339834,0.07709460693252566,0.006991474880573619,0.006071265853369031
0.108,0.026431377599055207,0.017978372862163493,0.004869143595524432,0.01280971117977432,0.05519542912514393,0.07693434211477836,0.006948352331374851,0.006065521603610228
0.1085192,0.026331019293819934,0.017862054045830248,0.004871429945510304,0.0128188941823124,0.05491590606236855,0.07677110269454523,0.006905061290753902,0.006059756857661026
0.1090385,0.026228561985146934,0.01774563401750824,0.004873773142410988,0.01282798969219469,0.054634259778001404,0.07660495115376831,0.006861614228851047,0.006053977387712444
0.1095577,0.026124038156470124,0.017629150076518156,0.004876175499467593,0.012837007352800045,0.054350563610993614,0.0764359502742914,0.006818023507382015,0.006048188908737775
0.1100769,0.026017480782781117,0.017512639131257026,0.004878639230508387,0.012845956767383744,0.0540648907838775,0.07626416312555337,0.006774301377699675,0.006042397076985999
0.1105962,0.025908923317590215,0.01739613769252657,0.004881166449321676,0.01285484749727863,0.05377731439043516,0.076089653052226,0.006730459978908962,0.006036607488497921
0.1111154,0.0257983996797416,0.0172796818670259,0.004883759169082436,0.012863689060081562,0.053487907383475315,0.07591248366179668,0.006686511336034964,0.006030825677645104
0.1116346,0.02568594424008842,0.017163307351009332,0.004886419301832988,0.012872490927823865,0.05319674256271811,0.07573271881209664,0.006642467358244015,0.00602505711569168
0.1121538,0.025571591808033717,0.017047049424110075,0.004889148658017974,0.012881262525124667,0.05290389256278792,0.07555042259877516,0.006598339837117617,0.00601930720937912
0.1126731,0.025455377617943666,0.016930942943330505,0.0048919489460738826,0.012890013227326094,0.05260942984131435,0.07536565934272087,0.006554140444978938,0.0060135812995340205
0.1131923,0.025337337315439978,0.016815022337199653,0.004894821772073318,0.012898752358609577,0.0523134266671418,0.07517849357743192,0.006509880733271605,0.006007884659698995
0.1137115,0.025217506943578674,0.016699321600098432,0.004897768639424213,0.01290748919009266,0.05201595510864779,0.07498899003633729,0.0064655721309904365,0.006002222494786727
0.1142308,0.02509592292892284,0.016583874286753127,0.004900790948624108,0.012916232937905852,0.05171708702217013,0.07479721364007161,0.00642122594316375,0.005996599939757265
0.11475,0.024972622067517138,0.016468713506897575,0.00490388999706963,0.012924992761249319,0.051416894040543365,0.07460322948370644,0.0063768533493867826,0.005991022058318573
0.1152692,0.024847641510772046,0.016353871920104582,0.0049070669789212104,0.01293377776042938,0.051115447561744506,0.07440710282394013,0.006332465402405788,0.005985493841650415
0.1157885,0.024721018751265898,0.0162393817307871,0.004910322985023095,0.01294259697487486,0.05081281873764857,0.07420889906624918,0.006288073026752304,0.0059800202071515944
0.1163077,0.024592791608472674,0.016125274683369745,0.004913659002878648,0.012951459381133481,0.05050907846289418,0.07400868375200446,0.006243687017427076,0.0059746059972106275
0.1168269,0.024462998214423392,0.016011582057631275,0.004917075916680914,0.01296037389084847,0.050204297363859444,0.07380652254555549,0.0061993180386331346,0.005969255977999901
0.1173462,0.024331676999308844,0.01589833466421863,0.004920574507398415,0.012969349348715662,0.049898545787748286,0.07360248122128686,0.006154976622557561,0.005963974838293381
0.1178654,0.024198866677031285,0.015785562840333063,0.004924155452916102,0.012978394530421508,0.049591893791786905,0.07339662565065085,0.006110673168201465,0.00595876718830791
0.1183846,0.02406460623071232,0.01567329644558872,0.004927819328231401,0.012987518140562631,0.04928441113253039,0.0731890217891802,0.006066417940257779,0.005953637558568133
0.1189038,0.023928934898164177,0.015561564858044075,0.004931566605705258,0.012996728810547977,0.0489761672552792,0.07297973566348516,0.006022221068036526,0.0059485903987951
0.1194231,0.023791892157331306,0.015450396970406286,0.004935397655368036,0.01300603509648502,0.04866723128360529,0.07276883335823854,0.005978092544437262,0.005943630076818587
0.1199423,0.02365351771170903,0.015339821186408545,0.004939312745280125,0.013015445477051883,0.04835767200898761,0.0725563810031524,0.005934042224968413,0.0059387608775131355
0.1204615,0.023513851475745817,0.015229865417360319,0.004943312041947054,0.013024968351357493,0.048047557880556424,0.0723424447599492,0.00589007982681332,0.005933987001757827
0.1209808,0.02337293356023554,0.01512055707887028,0.004947395610788877,0.01303461203679209,0.04773695699494602,0.0721270908093301,0.005846214927942782,0.005929312565419773
0.1215,0.02323080425770598,0.01501192308774157,0.0049515634166635725,0.013044384766870441,0.047425937086254775,0.07191038533794236,0.005802456966273929,0.00592474159836131
0.1220192,0.023087504027809562,0.014903989859039029,0.004955815324444165,0.013054294689070167,0.047114565516111664,0.07169239452534816,0.0057588152388752065,0.005920278043470921
0.1225385,0.02294307348272254,0.014796783303327928,0.004960151099649259,0.013064349862667458,0.04680290926384779,0.07147318453099581,0.00571529890121724,0.005915925755717881
0.1230577,0.0227975533725584,0.014690328824083687,0.0049645704091266524,0.013074558256572522,0.046491034916771604,0.07125282148119542,0.005671916966469335,0.005911688501230714
0.1235769,0.02265098457080168,0.014584651315272076,0.004969072821789657,0.013084927747166948,0.04617900866054622,0.07103137145610018,0.005628678304841324,0.005907569956399457
0.1240962,0.022503408059768,0.014479775159099302,0.00497365780940576,0.013095466116145133,0.045866896269667334,0.07080890047669419,0.005585591642970505,0.005903573707001794
0.1246154,0.022354864916096073,0.014375724223931342,0.004978324747437219,0.013106181048361872,0.04555476309804073,0.07058547449178823,0.0055426655633533965,0.005899703247353046
0.1251346,0.02220539629627758,0.014272521862381803,0.004983072915933161,0.01311708012968805,0.04524267406965871,0.07036115936502398,0.00549990850382202,0.0058959619794799615
0.1256538,0.022055043422230487,0.014170190909567464,0.004987901500472718,0.013128170844876401,0.04493069366937461,0.07013602086188744,0.005457328757064413,0.0058923532123182935
0.1261731,0.02190384756692131,0.014068753681530625,0.0049928095931587166,0.01313946057543911,0.04461888593377533,0.06991012463673194,0.0054149344701890315,0.0058888801609340525
0.1266923,0.021751850040042015,0.013968231973827325,0.004997796193661366,0.013150956597539067,0.04430731444215134,0.06968353621981065,0.005372733644332702,0.00588554594576838
0.1272115,0.02159909217374694,0.013868647060280449,0.005002860210311394,0.013162666079896492,0.043996042307563814,0.06945632100431938,0.0053307341343117225,0.005882353591905946
0.1277308,0.02144561530845523,0.013770019691896689,0.005008000461242,0.013174596081712656,0.0436851321680087,0.06922854423345062,0.005288943648315782,0.0058793060283667655
0.12825,0.021291460778724205,0.013672370095946327,0.0050132156755789935,0.013186753550612364,0.04337464617767726,0.0690002709874608,0.005247369747644361,0.005876406087421323
0.1287692,0.021136669899199018,0.01357571797520475,0.005018504494678432,0.013199145320606884,0.043064645998313084,0.06877156617075389,0.005206019846485348,0.005873656503928901
0.1292885,0.020981283950644067,0.01348008250735452,0.005023865473411045,0.013211778110078974,0.04275519279066633,0.0685424944989852,0.005164901211735639,0.005871059914699068
0.1298077,0.020825344166061435,0.013385482344546722,0.005029297081492718,0.013224658519791597,0.042446347206045995,0.06831312048618947,0.0051240209628635345,0.0058686188578763706
0.1303269,0.020668891716901762,0.013291935613120254,0.005034797704860261,0.013237793030921893,0.042138169377971886,0.068083508431938,0.0050833860718127585,0.005866335772348382
0.1308462,0.020511967699372857,0.013199459913477679,0.005040365647091711,0.013251188003121916,0.04183071891392778,0.06785372240852938,0.005043003362947909,0.005864212997177365
0.1313654,0.020354613120851423,0.013108072320116201,0.005045999130870364,0.013264849672607612,0.0415240548872178,0.06762382624821842,0.005002879513041131,0.005862252771055888
0.1318846,0.020196868886403235,0.0130177893818123,0.005051696299491804,0.013278784150277395,0.0412182358289279,0.06739388353048792,0.004963021051299783,0.005860457231786729
0.1324038,0.02003877578541708,0.012928627121958617,0.005057455218413137,0.013292997419861667,0.040913319719994484,0.06716395756936763,0.004923434359434821,0.0058588284157874764
0.1329231,0.01988037447835772,0.012840601039051549,0.005063273876843662,0.013307495336104532,0.04060936398338231,0.06693411140080416,0.004884125671769651,0.005857368257620156
0.1334423,0.019721705483643135,0.012753726107328098,0.005069150189376185,0.013322283622978803,0.040306425476373836,0.06670440777008634,0.004845101075389125,0.005856078589546242
0.1339615,0.019562809164651185,0.012668016777550441,0.005075081997658122,0.013337367871935374,0.040004560482972185,0.06647490911933039,0.0048063665103283935,0.005854961141107358
0.1344808,0.01940372571686081,0.01258348697793663,0.005081067072101535,0.01335275354018791,0.03970382470641996,0.06624567757502961,0.004767927769801263,0.005854017538731939
0.135,0.019244495155132754,0.012500150115235784,0.0050871031136311435,0.013368445949033607,0.039404273261836244,0.06601677493567293,0.004729790500467694,0.005853249305368124
0.1355192,0.019085157301134675,0.012418019075946066,0.0050931877554693805,0.013384450282210752,0.03910596066897416,0.06578826265943725,0.004691960202740086,0.0058526578601430755
0.1360385,0.018925751770915447,0.012337106227673672,0.005099318564957459,0.013400771584293763,0.03880894084510159,0.06556020185195763,0.004654442231127916,0.005852244518048898
0.1365577,0.018766317962633297,0.012257423420630997,0.005105493045411406,0.013417414759126195,0.03851326709800775,0.06533265325417927,0.004617241794620334,0.0058520104896553115
0.1370769,0.018606895044442278,0.012178981989272105,0.0051117086380119935,0.013434384568292237,0.03821899211913825,0.06510567723029567,0.004580363957106229,0.005851956880849243
0.1375962,0.018447521942541484,0.012101792754063694,0.005117962723727452,0.0134516856296271,0.037926167976861096,0.06487933375577641,0.0045438136378312816,0.005852084692601486
0.1381154,0.018288237329391246,0.012025866023389674,0.005124252625267859,0.013469322415766741,0.037634846109865866,0.06465368240548793,0.004507595611891488,0.005852394820760574
0.1386346,0.018129079612100408,0.011951211595587668,0.005130575609070045,0.013487299252737235,0.03734507732069797,0.06442878234191074,0.0044717145107626265,0.005852888055874028
0.1391538,0.01797008692098861,0.011877838761115724,0.005136928887311897,0.013505620318584148,0.03705691176943,0.06420469230345573,0.004436174822865141,0.005853565083037173
0.1396731,0.017811297098327416,0.01180575630484764,0.0051433096199548735,0.013524289642042196,0.0367703989674719,0.06398147059288202,0.004400980894163879,0.005854426481769727
0.1401923,0.017652747687263874,0.011734972508495355,0.005149714916813544,0.013543311101245544,0.036485587771521985,0.0637591750658192,0.004366136928802147,0.005855472725920456
0.1407115,0.017494475920930105,0.011665495153156943,0.005156141839650926,0.013562688422478956,0.03620252637766069,0.06353786311939597,0.004331646989769503,0.005856704183600202
0.1412308,0.017336518711742233,0.011597331521988784,0.005162587404298358,0.013582425178970023,0.03592126231558927,0.0633175916809777,0.004297514999602716,0.005858121117143627
0.14175,0.017178912640891962,0.011530488403000503,0.00516904858279861,0.01360252478972261,0.035641842443015666,0.06309841719701492,0.004263744741119312,0.005859723683100045
0.1422692,0.01702169394803393,0.011464972091971285,0.005175522305570919,0.013622990518391638,0.035364312940189935,0.0628803956220046,0.004230339858183102,0.00586151193225364
0.1427885,0.01686489852117179,0.011400788395486127,0.005182005463596595,0.013643825472199264,0.0350887193045918,0.06266358240756556,0.00419730385650109,0.005863485809673368
0.1433077,0.016708561886745906,0.011337942634090607,0.005188494910623789,0.013665032600892588,0.034815106345772694,0.06244803249162925,0.004164640104451103,0.00586564515479279
0.1438269,0.016552719199925372,0.011276439645562724,0.005194987465390035,0.01368661469574296,0.03454351818035485,0.0622338002877471,0.0041323518339394984,0.005867989701520092
0.1443462,0.01639740523510687,0.011216283788300373,0.005201479913861082,0.013708574388586943,0.03427399822718975,0.06202093967451518,0.004100442141288244,0.005870519078378488
0.1448654,0.01624265437662281,0.011157478944822968,0.005207969011484514,0.013730914150908977,0.034006589202678274,0.06180950398511688,0.0040689139881506554,0.005873232808677171
0.1453846,0.016088500609661088,0.011100028525385686,0.0052144514854566525,0.0137536362929657,0.03374133311625465,0.06159954599698415,0.004037770202455037,0.005876130310712989
0.1459038,0.015934977511398482,0.011043935471704677,0.005220924037001137,0.013776742962951899,0.033478271266036155,0.06139111792157764,0.0040070134793754745,0.005879210898002996
0.1464231,0.015782118242349822,0.0109892022607916,0.005227383343657604,0.013800236146207956,0.03321744423464039,0.06118427139428633,0.003976646382328989,0.005882473779548007
0.1469423,0.015629955537934746,0.010935830908895746,0.005233826061578855,0.013824117664468744,0.032958891885171926,0.06097905746444712,0.00394667134399827,0.005885918060127277
0.1474615,0.0154785217002639,0.010883822975552087,0.0052402488278349086,0.013848389175153913,0.03270265335738003,0.06077552658548563,0.003917090667379186,0.0058895427406243945
0.1479808,0.015327848590146206,0.01083317956773357,0.005246648262722341,0.013873052170699585,0.032448767063989005,0.06057372860517943,0.003887906526852278,0.005893346718384449
0.1485,0.015177967619318842,0.010783901344106199,0.005253020972077329,0.013898107977931484,0.032197270687202725,0.06037371275604544,0.0038591209692773946,0.005897328787602515
0.1490192,0.015028909742901352,0.010735988519385476,0.005259363549590793,0.013923557757479534,0.03194820117538447,0.0601755276458534,0.003830735915110649,0.005901487639743482
0.1495385,0.014880705452075284,0.010689440868793044,0.005265672579124036,0.013949402503234048,0.03170159473991332,0.05997922124826786,0.003802753159542889,0.005905821863993224
0.1500577,0.01473338476699063,0.010644257732612279,0.005271944637023264,0.013975643041843667,0.03145748685221782,0.05978484089362094,0.003775174373658862,0.005910329947741157
0.1505769,0.01458697722990023,0.010600438020841721,0.0052781762944313715,0.01400228003225542,0.031215912240987728,0.05959243325981869,0.0037480011056163043,0.005915010277094245
0.1510962,0.014441511898523218,0.010557980217945125,0.005284364119595326,0.014029313965297382,0.03097690488956432,0.059402044363383644,0.003721234781844176,0.005919861137422542
0.1516154,0.014297017339638467,0.010516882387696899,0.005290504680167497,0.014056745163304582,0.03074049803350966,0.05921371955063633,0.003694876708259267,0.005924880713936362
0.1521346,0.014153521622908949,0.01047714217812158,0.005296594545499285,0.014084573779788823,0.030506724158355005,0.05902750348901829,0.0036689280715003774,0.005930067092295156
0.1526538,0.014011052314937775,0.010438756826525982,0.005302630288925469,0.014112799799153017,0.030275614997528507,0.05884344015855941,0.0036433899401792716,0.0059354182592481295
0.1531731,0.013869636473556568,0.010401723164622557,0.005308608490037712,0.014141423036450653,0.030047201530462003,0.0586615728434924,0.0036182632661475992,0.005940932103306608
0.1536923,0.013729300642346794,0.010366037623742441,0.0053145257369457705,0.014170443137190845,0.029821513980876783,0.058481944124017436,0.003593548885778999,0.005946606415448126
0.1542115,0.01359007084539449,0.010331696240136556,0.005320378628525041,0.014199859577189394,0.02959858181524812,0.058304595868220045,0.0035692475212656324,0.00595243888985218
0.1547308,0.013451972582278758,0.010298694660363069,0.0053261637766491374,0.014229671662466236,0.029378433741448273,0.058129569224145604,0.0035453597819284323,0.005958427124667597
0.15525,0.013315030823294247,0.010267028146759446,0.005331877808406247,0.014259878529189597,0.02916109770756779,0.05795690461203354,0.003521886165540394,0.005964568622811378
0.1557692,0.013179270004907812,0.010236691582997268,0.005337517368298045,0.014290479143667241,0.028946600900914943,0.057786641716714396,0.003498827059662264,0.005970860792798917
0.1562885,0.013044714025449275,0.010207679479717943,0.0053430791204199714,0.014321472302385205,0.028734969747193122,0.057618819480173084,0.0034761827429899686,0.005977300949605442
0.1568077,0.012911386241036294,0.010179985980247426,0.0053485597506216466,0.014352856632094397,0.028526229909856125,0.05745347609428113,0.003453953386713145,0.005983886315558538
0.1573269,0.012779309461733042,0.01015360486638806,0.005353955968646207,0.014384630589945496,0.02832040628964109,0.057290648993700684,0.003432139055884152,0.005990614021261612
0.1578462,0.012648505947942472,0.010128529564285647,0.005359264510247352,0.014416792463672496,0.028117523024278925,0.057130374848963106,0.0034107397107969416,0.005997481106548122
0.1583654,0.012518997407031725,0.010104753150369829,0.0053644821392828815,0.014449340371825251,0.02791760348838202,0.05697268955972457,0.0033897552083752224,0.006004484521466407
0.1588846,0.012390804990190234,0.010082268357365871,0.005369605649783547,0.01448227226405137,0.02772067029350899,0.05681762824820119,0.0033691853035694055,0.006011621127294912
0.1594038,0.012263949289519956,0.010061067580375858,0.005374631867996048,0.014515585921427687,0.027526745288406134,0.05666522525278608,0.003349029650761876,0.006018887697587536
0.1599231,0.012138450335357138,0.01004114288302734,0.005379557654399073,0.014549278956841522,0.027335849559425324,0.05651551412185061,0.003329287805180196,0.006026280919248836
0.1604423,0.01201432759382491,0.01002248600368744,0.005384379905691299,0.014583348815421828,0.02714800343111794,0.056368527607731596,0.0033099592243178992,0.0060337973936387505
0.1609615,0.011891599964615935,0.010005088361740376,0.005389095556750299,0.014617792775020318,0.026963226467004327,0.05622429766090653,0.0032910432693625882,0.006041433637706558
0.1614808,0.011770285779004259,0.009988941063926357,0.005393701582561367,0.01465260794674268,0.02678153747051823,0.05608285542435818,0.003272539206631081,0.006049186085153709
0.162,0.01165040279808537,0.009974034910739733,0.005398195000115259,0.014687791275530004,0.02660295448612559,0.055944231228130525,0.003254446209011389,0.00605705108762527
0.1625192,0.011531968211243492,0.009960360402884259,0.005402572870273899,0.014723339540790631,0.026427494800616996,0.05580845458407767,0.0032367633574113368,0.00606502491592963
0.1630385,0.011414998634844931,0.009947907747783227,0.005406832299603105,0.014759249357082763,0.02625517494457301,0.055675554180807614,0.0032194896422136137,0.0060731037612861746
0.1635577,0.011299510111156345,0.009936666866142214,0.005410970442171413,0.01479551717484813,0.026086010694001554,0.0555455578788226,0.003202623964737097,0.006081283736600558
0.1640769,0.011185518107486607,0.009926627398562066,0.005414984501314119,0.014832139281197133,0.02592001707214649,0.05541849270585774,0.0031861651387042507,0.006089560877767232
0.1645962,0.0110730375155509,0.00991777871219971,0.005418871731361684,0.014869111800745844,0.025757208351466356,0.05529438485241982,0.003170111891714399,0.006097931144998801
0.1651154,0.010962082651055716,0.009910109907474261,0.0054226294393316925,0.01490643069650524,0.025597598055782187,0.055173259667527806,0.0031544628667226596,0.006106390424181834
0.1656346,0.01085266725350323,0.009903609824815859,0.0054262549865835485,0.014944091770823053,0.025441198962593246,0.05505514165465693,0.0031392166235243075,0.0061149345282587335
0.1661538,0.01074480448621357,0.00989826705145455,0.005429745790435126,0.014982090666378548,0.02528802310555945,0.05494005446788759,0.003124371640244334,0.00612355919863531
0.1666731,0.010638506936563426,0.009894069928246494,0.0054330993257406136,0.015020422867230595,0.02513808177714927,0.05482802090826048,0.003109926314831958,0.006132260106613728
0.1671923,0.010533786616439406,0.00989100655653464,0.005436313126428816,0.015059083699919262,0.024991385531451818,0.05471906292033899,0.003095878966559839,0.006141032854850516
0.1677115,0.010430654962904429,0.00988906480504099,0.00543938478700125,0.015098068334621125,0.02484794418715163,0.054613201588979976,0.00308222783752773,0.0061498729788393835
0.1682308,0.010329122839075396,0.009888232316787478,0.005442311963989394,0.015137371786358465,0.024707766830664803,0.05451045713631374,0.0030689710941702963,0.006158775948418549
0.16875,0.010229200535210264,0.009888496516042417,0.005445092377370501,0.015176988916262417,0.02457086181943476,0.054410848918934426,0.0030561068287687934,0.006167737169302317
0.1692692,0.01013089777000263,0.009889844615289365,0.005447723811941354,0.015216914432890088,0.02443723678538613,0.054314395425301885,0.003043633060966327,0.006176751984636616
0.1697885,0.010034223692081791,0.009892263622215226,0.005450204118649388,0.015257142893595668,0.024306898638534948,0.054221114273356665,0.003031547739286377,0.006185815676578194
0.1703077,0.009939186881716248,0.009895740346714282,0.005452531215880498,0.01529766870595557,0.02417985357075335,0.05413102220834963,0.0030198487426542713,0.006194923467897176
0.1708269,0.009845795352718453,0.00990026140790482,0.005454703090702895,0.015338486129247646,0.024056107059686846,0.05404413510088866,0.003008533881921304,0.006204070523602586
0.1713462,0.00975405655454861,0.009905813241154934,0.005456717800066272,0.015379589275984559,0.02393566387282213,0.05396046794520556,0.002997600901391166,0.006213251952590477
0.1718654,0.00966397737461521,0.009912382105114118,0.005458573471955543,0.015420972113501514,0.023818528071703104,0.05388003485764696,0.0029870474803483727,0.00622246280931422
0.1723846,0.009575564140769925,0.009919954088747188,0.005460268306498369,0.015462628465598488,0.02370470301629282,0.05380284907539326,0.002976871234588342,0.006231698095476504
0.1729038,0.009488822623994446,0.009928515118367238,0.005461800577025636,0.015504552014237182,0.023594191369478792,0.05372892295540961,0.002967069717948778,0.006240952761742607
0.1734231,0.009403758041276657,0.009938050964664323,0.005463168631084019,0.015546736301292809,0.023486995101718953,0.05365826797363305,0.0029576404238419933,0.006250221709474418
0.1739423,0.009320375058673627,0.009948547249726705,0.005464370891399761,0.015589174730360764,0.023383115495825352,0.05359089472439949,0.0029485807867878173,0.006259499792484777
0.1744615,0.009238677794558675,0.009959989454051583,0.005465405856792775,0.01563186056861816,0.023282553151882705,0.05352681292011414,0.002939888183946679,0.0062687818188115925
0.1749808,0.009158669823049782,0.009972362923542283,0.005466272103040215,0.015674786948740103,0.023185307992298596,0.05346603139116889,0.002931559936652483,0.0062780625525112235
0.1755,0.009080354177616526,0.009985652876488917,0.005466968283688691,0.015717946870870473,0.02309137926698215,0.05340855808610998,0.002923593311944876,0.006287336715470628
0.1760192,0.00900373335486261,0.009999844410529597,0.005467493130814437,0.015761333204646934,0.023000765558647905,0.05335440007205882,0.002915985524100494,0.006296598989237704
0.1765385,0.008928809318480998,0.010014922509589193,0.005467845455730797,0.015804938691279875,0.022913464788241623,0.053303563535389044,0.0029087337361627845,0.006305844016869315
0.1770577,0.008855583503378594,0.010030872050792665,0.0054680241496425286,0.015848755945684995,0.02282947422048486,0.053256053782662224,0.0029018350614700176,0.00631506640479642
0.1775769,0.008784056819967327,0.010047677811349959,0.0054680281842465536,0.015892777458669356,0.02274879046953506,0.053211875241824844,0.0028952865651811223,0.0063242607247057485
0.1780962,0.008714229658618382,0.010065324475409513,0.005467856612278872,0.015936995599170858,0.022671409504758242,0.05317103146366852,0.002889085265798997,0.006333421515437419
0.1786154,0.008646101894276316,0.010083796640877428,0.0054675085680075,0.015981402616551198,0.022597326656611256,0.0531335251235556,0.002883228136690964,0.006342543284897892
0.1791346,0.008579672891229635,0.010103078826199513,0.005466983267671323,0.016025990642942387,0.022526536622631,0.053099358023411536,0.0028777121076060436,0.006351620511987633
0.1796538,0.008514941508034423,0.010123155477103414,0.005466280009864868,0.016070751695646937,0.02245903347352811,0.053068531093985696,0.00287253406618871,0.006360647648542843
0.1801731,0.008451906102587474,0.010144010973298234,0.005465398175869061,0.0161156776795918,0.02239481065938316,0.05304104439738145,0.002867690859488768,0.006369619121290624
0.1806923,0.008390564537345336,0.010165629635129078,0.005464337229928127,0.016160760389836114,0.02233386101594362,0.053016897129856556,0.0028631792954669968,0.006378529333816935
0.1812115,0.008330914184685645,0.010187995730184094,0.0054630967194728205,0.01620599151413265,0.022276176771019895,0.052996087624894425,0.0028589961444961693,0.006387372668546613
0.1817308,0.008272951932406977,0.010211093479851665,0.005461676275290287,0.016251362635542808,0.022221749550978845,0.052978613356546446,0.0028551381408570497,0.006396143488734746
0.18225,0.008216674189363449,0.010234907065825536,0.005460075611640883,0.01629686523510497,0.022170570387333,0.052964470943045204,0.0028516019842289475,0.006404836140468613
0.1827692,0.008162076891230203,0.010259420636555697,0.005458294526322338,0.01634249069455577,0.02212262972342364,0.05295365615068798,0.0028483843411743898,0.00641344495467937
0.1832885,0.008109155506395911,0.01028461831364288,0.005456332900681651,0.01638823029910389,0.022077917421195838,0.05294616389798954,0.002845481846617459,0.00642196424916264
0.1838077,0.008057905041978378,0.01031048419817456,0.005454190699575179,0.01643407524025583,0.022036422768063387,0.05294198826010282,0.0028428911053153243,0.00643038833060711
0.1843269,0.008008320049959335,0.010337002377000233,0.005451867971277332,0.016480016618693038,0.021998134483861682,0.052941122473505665,0.002840608693322502,0.006438711496630245
0.1848462,0.007960394633434485,0.010364156928943739,0.005449364847338349,0.016526045447199763,0.02196304072788631,0.052943558940951534,0.0028386311594473593,0.006446928037820242
0.1853654,0.007914122452974834,0.010391931930950355,0.005446681542391659,0.01657215265364077,0.02193112910601525,0.05294928923668141,0.0028369550267003858,0.006455032239783348
0.1858846,0.007869496733095314,0.010420311464166313,0.0054438183539113885,0.016618329083988175,0.021902386677912368,0.05295830411189407,0.0028355767937337534,0.006463018385195768
0.1864038,0.007826510268826664,0.010449279619948411,0.0054407756619206694,0.016664565505396356,0.02187679996430997,0.052970593500471425,0.0028344929362717,0.006470880755859395
0.1869231,0.0077851554323864584,0.01047882050580133,0.005437553928651549,0.016710852609324,0.021854354954368018,0.052986146524954904,0.002833699908531278,0.006478613634760697
0.1874423,0.007745424179945139,0.010508918251240326,0.005434153698157433,0.01675718101470207,0.021835037113107584,0.05300495150276876,0.0028331941446330176,0.006486211308132117
0.1879615,0.007707308058482856,0.010539557013576943,0.005430575595879091,0.01680354127114642,0.02181883138891595,0.05302699595268555,0.0028329720600010744,0.006493668067515362
0.1884808,0.007670798212732876,0.010570720983625386,0.005426820328165436,0.01684992386221374,0.021805722221120587,0.053052266601528675,0.0028330300527524086,0.0065009782118259805
0.189,0.007635885392207296,0.010602394391327279,0.0054228886817503435,0.016896319208699277,0.02179569354762925,0.0530807493911064,0.0028333645050745517,0.006508136049418546
0.1895192,0.007602559958300769,0.010634561511292504,0.005418781523186862,0.01694271767197469,0.021788728812633065,0.053112429485371336,0.0028339717845915183,0.006515135900151813
0.1900385,0.007570811891467918,0.01066720666825384,0.005414499798240247,0.01698910955736427,0.021784810974369552,0.05314729127779906,0.002834848245717409,0.0065219720974530925
0.1905577,0.007540630798470136,0.010700314242433184,0.005410044531241208,0.017035485117557606,0.021783922512942224,0.05318531839897922,0.002835990230997273,0.006528638990381142
0.1910769,0.007512005919687428,0.010733868674817175,0.005405416824400853,0.01708183455605675,0.02178604543819358,0.053226493724412266,0.0028373940724347704,0.006535130945686861
0.1915962,0.007484926136491017,0.010767854472340152,0.005400617857088735,0.01712814803065582,0.021791161297628106,0.05327079938250471,0.0028390560928061954,0.006541442349871146
0.1921154,0.007459379978672371,0.010802256212972436,0.005395648885075437,0.01717441565695078,0.02179925118438199,0.05331821676275597,0.0028409726069604144,0.006547567611239351
0.1926346,0.007435355631924382,0.010837058550711993,0.005390511239741072,0.01722062751187702,0.02181029574523611,0.053368726524129696,0.0028431399231042902,0.006553501161951989
0.1931538,0.007412840945370328,0.010872246220477506,0.005385206327251074,0.017266773637272373,0.021824275188668918,0.05342230860360271,0.0028455543440731776,0.006559237460071431
0.1936731,0.0073918234391362435,0.010907804042901034,0.005379735627700625,0.017312844043463022,0.021841169292945828,0.053478942224885063,0.0028482121685861205,0.006564770991604566
0.1941923,0.00737229031196226,0.010943716929018191,0.0053741006942290325,0.017358828712869718,0.02186095741424165,0.05353860590730477,0.0028511096924853934,0.006570096272541478
0.1947115,0.007354228448848435,0.010979969884853976,0.0053683031521053835,0.017404717603631735,0.02188361849479272,0.053601277474851376,0.0028542432099600687,0.006575207850890338
0.1952308,0.007337624428730526,0.011016548015902234,0.00536234469778677,0.01745050065324608,0.02190913107107531,0.05366693406537293,0.0028576090147533046,0.006580100308708697
0.19575,0.007322464532181123,0.011053436531496987,0.00535622709795041,0.017496167782219404,0.021937473282006997,0.053735552139921296,0.0028612034013530637,0.006584768264131441
0.1962692,0.007308734749131535,0.01109062074907399,0.005349952188500942,0.0175417088977302,0.021968622877167603,0.05380710749224166,0.0028650226661659675,0.006589206373395608
0.1967885,0.007296420786609791,0.011128086098321228,0.005343521873554191,0.01758711389729891,0.022002557225036374,0.05388157525840206,0.002869063108673974,0.00659340933286225
0.1973077,0.007285508076490126,0.011165818125217377,0.005336938124398658,0.017632372672463682,0.02203925332124209,0.053958929926559165,0.0028733210325735817,0.006597371881035459
0.1978269,0.0072759817832493525,0.011203802495957519,0.005330202978436024,0.017677475112459432,0.022078687796822653,0.054039145346857075,0.002877792746897233,0.006601088800578619
0.1983462,0.007267826811725495,0.011242025000765805,0.005323318538101858,0.01772241110789808,0.02212083692649057,0.05412219474145587,0.0028824745671166235,0.006604554920327901
0.1988654,0.007261027814874131,0.01128047155759479,0.005316286969767754,0.017767170554447705,0.022165676636900722,0.054208050714687164,0.0028873628162276012,0.006607765117302948
0.1993846,0.007255569201517823,0.011319128215711289,0.005309110502626051,0.017811743356508328,0.02221318251491663,0.054296685263333686,0.0028924538258163646,0.00661071431871465
0.1999038,0.007251435144084095,0.011357981159168673,0.005301791427558283,0.017856119430881962,0.02226332981587141,0.05438806978702953,0.0028977439371066973,0.0066133975039698555
0.2004231,0.0072486095863273795,0.011397016710165507,0.0052943320959885016,0.01790028871043454,0.02231609347181957,0.05448217509877803,0.002903229501987967,0.006615809706672805
0.2009423,0.007247076251030451,0.011436221332290513,0.005286734918722552,0.01794424114774713,0.022371448099775936,0.054578971435583615,0.002908906884023637,0.006617946016623051
0.2014615,0.00724681864768097,0.011475581633653972,0.005279002364774392,0.0179879667187538,0.022429368009937823,0.05467842846919391,0.0029147724594400376,0.006619801581809572
0.2019808,0.007247820080118966,0.0115150843699059,0.005271136960180493,0.01803145542636347,0.02248982721388688,0.054780515316948136,0.0029208226180951766,0.006621371610400784
0.2025,0.007250063654151282,0.011554716447141492,0.005263141286803363,0.01807469730406294,0.022552799432766855,0.05488520055272762,0.002927053764427383,0.006622651372730132
0.2030192,0.007253532285129349,0.011594464924694589,0.005255017981125139,0.018117682419498224,0.022618258105433796,0.054992452218003925,0.0029334623183836085,0.006623636203276923
0.2035385,0.007258208705486838,0.01163431701782004,0.0052467697330322435,0.018160400878031415,0.022686176396575282,0.05510223783297999,0.0029400447163272342,0.006624321502642029
0.2040577,0.007264075472234041,0.011674260100265912,0.005238399284591995,0.01820284282627011,0.022756527204795506,0.0552145244078194,0.0029467974119252393,0.0066247027395181035
0.2045769,0.0072711149744059764,0.0117142817067365,0.005229909428822097,0.018244998455566788,0.022829283170663333,0.05532927845395841,0.002953716877014599,0.006624775452653893
0.2050962,0.00727930944046132,0.011754369535247083,0.005221303008453878,0.018286858005485497,0.02290441668472079,0.05544646599549522,0.0029607996024477857,0.006624535252812289
0.2056154,0.007288640945629401,0.01179451144937136,0.005212582914690164,0.01832841176723358,0.022981899895449635,0.055566052580650456,0.002968042098917287,0.0066239778247216986
0.2061346,0.0072990914192024945,0.011834695480382514,0.005203752085958673,0.018369650087056162,0.023061704717193838,0.0556880032932926,0.002975440897759057,0.006623098929020292
0.2066538,0.007310642651770689,0.011874909829288793,0.005194813506661777,0.018410563369591324,0.023143802838035826,0.05581228276452161,0.0029829925517348655,0.0066218944041926695
0.2071731,0.007323276302396607,0.011915142868764586,0.0051857702059234945,0.018451142081183966,0.02322816572762462,0.05593885518430412,0.0029906936357935255,0.006620360168498434
0.2076923,0.00733697390572732,0.011955383144977898,0.00517662525633454,0.018491376753156284,0.023314764644954147,0.056067684313153024,0.0029985407478110124,0.0066184922218921445
0.2082115,0.0073517168790408855,0.011995619379315224,0.0051673817726962485,0.018531257985032867,0.02340357064609036,0.056198733493844244,0.003006530509309512,0.0066162866479341255
0.2087308,0.007367486529225139,0.012035840470004847,0.00515804291076417,0.018570776447718446,0.02349455459184599,0.05633196566316345,0.00301465956615547,0.0066137396156916205
0.20925,0.007384264059686622,0.012076035493639498,0.005148611865992124,0.018609922886626662,0.02358768715540195,0.05646734336367538,0.003022924589236699,0.006610847381629816
0.2097692,0.007402030577187863,0.012116193706599453,0.005139091872277519,0.01864868812475841,0.02368293882987452,0.056604828755508554,0.003031322275118628,0.006607606291492292
0.2102885,0.007420767098611579,0.012156304546376982,0.005129486200708676,0.018687063065728825,0.023780279935827354,0.05674438362814822,0.003039849346679734,0.006604012782170487
0.2108077,0.007440454557650733,0.012196357632803058,0.005119798158314973,0.01872503869674235,0.023879680628727345,0.056885969412229925,0.003048502553726221,0.006600063383561768
0.2113269,0.007461073811423751,0.012236342769177257,0.0051100310868205335,0.018762606091515675,0.023981110906343226,0.05702954719132631,0.0030572786735859883,0.0065957547204157415
0.2118462,0.007482605647014485,0.01227624994330168,0.005100188361402253,0.01879975641314866,0.024084540616085722,0.05717507771371893,0.0030661745116819343,0.006591083514168389
0.2123654,0.007505030787936835,0.012316069328419839,0.005090273389452902,0.01883648091694342,0.024189939462287927,0.057322521404146676,0.003075186902084643,0.0065860465847636706
0.2128846,0.007528329900524121,0.012355791284061434,0.005080289609350067,0.018872770953171872,0.02429727701342446,0.057471838375522076,0.003084312708044513,0.006580640852462223
0.2134038,0.007552483600243493,0.012395406356793967,0.005070240489231651,0.01890861796979195,0.02440652270926777,0.05762298844060656,0.0030935488225034,0.006574863339636788
0.2139231,0.007577472457935761,0.012434905280882279,0.005060129525778672,0.01894401351511266,0.024517645867979925,0.05777593112363565,0.0031028921685858305,0.006568711172554013
0.2144423,0.007603277005981072,0.012474278978857141,0.005049960243006049,0.01897894924040807,0.024630615693138003,0.05793062567188524,0.003112339700069871,0.006562181583142264
0.2149615,0.0076298777443908564,0.012513518561994124,0.00503973619106206,0.019013416902480287,0.02474540128069129,0.05808703106717005,0.0031218884018377304,0.006555271910745031
0.2154808,0.007657255146826439,0.012552615330704054,0.005029460945037105,0.019047408366171317,0.02486197162584834,0.05824510603726599,0.0031315352903062144,0.006547979603859504
0.216,0.007685389666544664,0.012591560774836415,0.0050191381037824135,0.019080915606823786,0.024980295629891895,0.05840480906724809,0.003141277413837131,0.006540302221859829
0.2165192,0.0077142617422708785,0.012630346573897062,0.005008771288739275,0.01911393071269053,0.025100342106919905,0.058566098410736095,0.0031511118531277705,0.006532237436704596
0.2170385,0.007743851803999585,0.012668964597181618,0.0049983641427793985,0.01914644588729333,0.025222079790510804,0.05872893210104002,0.0031610357215815722,0.006523783034628118
0.2175577,0.0077741402787231215,0.012707406903825902,0.004987920329056959,0.019178453451731175,0.025345477340311805,0.05889326796219847,0.0031710461656590883,0.006514936917815141
0.2180769,0.007805107596088722,0.012745665742774753,0.004977443529872928,0.01920994584693872,0.025470503348549094,0.05905906361990292,0.0031811403652093426,0.0065056971060586406
0.2185962,0.007836734193984334,0.012783733552670571,0.004966937445552253,0.019240915635895757,0.02559712634645944,0.059226276512302105,0.0031913155337816696,0.006496061738400383
0.2191154,0.007869000524053552,0.012821602961662801,0.00495640579333446,0.0192713555057886,0.025725314810642958,0.059394863900681834,0.003201568918918115,0.006486029074754007
0.2196346,0.007901887057139997,0.012859266787139596,0.004945852306278279,0.019301258270124105,0.025855037169337125,0.05956478288001726,0.003211897802426458,0.006475597497510305
0.2201538,0.007935374288661399,0.012896718035382915,0.004935280732180881,0.019330616870797138,0.025986261808611993,0.05973599038939604,0.0032222995006339038,0.006464765513124498
0.2206731,0.0079694427439136,0.012933949901148338,0.004924694832512334,0.019359424380111952,0.026118957078486885,0.05990844322231193,0.0032327713646214578,0.006453531753685248
0.2211923,0.008004072983304663,0.012970955767170994,0.004914098381365874,0.019387674002758003,0.026253091298968606,0.06008209803682861,0.0032433107804389957,0.006441894978465273
0.2217115,0.008039245607519186,0.01300772920359918,0.004903495164424575,0.019415359077740467,0.026388632766011538,0.0602569113656147,0.0032539151693010077,0.006429854075453424
0.2222308,0.008074941262612895,0.013044263967357353,0.004892888977944956,0.019442473080265688,0.026525549757399965,0.06043283962585123,0.003264581987763,0.006417408062868191
0.22275,0.008111140645037507,0.0130805540014404,0.004882283627758059,0.01946900962358159,0.026663810538553368,0.060609839129013104,0.003275308727878522,0.006404556090652652
0.2232692,0.008147824506595876,0.013116593434141075,0.004871682928288526,0.019494962460773108,0.026803383368255614,0.06078786609052665,0.0032860929173367873,0.006391297441950951
0.2237885,0.008184973659327324,0.013152376578212588,0.004861090701592143,0.01952032548651238,0.026944236504309205,0.06096687663930495,0.003296932119580876,0.006377631534566435
0.2243077,0.008222568980323088,0.013187897929968283,0.004850510776412343,0.019545092738763505,0.02708633820911605,0.06114682682716279,0.0033078239339065503,0.0063635579224016045
0.2248269,0.00826059141647183,0.013223152168320288,0.00483994698725612,0.01956925840044144,0.02722965675518633,0.06132767263811268,0.0033187659955417263,0.006349076296880057
0.2253462,0.008299021989135123,0.013258134153758929,0.00482940317348977,0.019592816801024628,0.027374160430577117,0.061509369997543334,0.0033297559757066724,0.00633418648835057
0.2258654,0.008337841798752965,0.013292838927274672,0.004818883178454837,0.019615762418120852,0.02751981754426223,0.061691874781281436,0.003340791581655018,0.006318888467473434
0.2263846,0.008377032029379408,0.0133272617092242,0.004808390848604635,0.019638089878985812,0.027666596431434973,0.061875142824537696,0.00335187055669567,0.00630318234658919
0.2269038,0.00841657395314846,0.013361397898142214,0.004797930032661649,0.019659793961993896,0.027814465458745045,0.06205912993073756,0.003362990680195733,0.0062870683810698665
0.2274231,0.008456448934670487,0.013395243069500379,0.004787504580796124,0.019680869598060605,0.027963393029471054,0.06224379188023653,0.003374149767564569,0.006270546970652795
0.2279423,0.008496638435359418,0.013428792974414893,0.004777118343826087,0.01970131187201625,0.028113347588629968,0.06242908443891969,0.003385345670219136,0.00625361866075705
0.2284615,0.008537124017691,0.013462043538303973,0.0047667751724390405,0.019721116023930528,0.028264297628024945,0.06261496336668476,0.0033965762755307745,0.006236284143782511
0.2289808,0.008577887349392401,0.013494990859496566,0.004756478916435498,0.019740277450387766,0.028416211691232863,0.06280138442580761,0.0034078395067536397,0.006218544260391506
0.2295,0.008618910207563373,0.013527631207793529,0.004746233423994538,0.019758791705712785,0.02856905837853295,0.06298830338918893,0.003419133322934984,0.00620040000077293
0.2300192,0.008660174482729157,0.013559961022982413,0.004736042540961484,0.019776654503147483,0.028722806351777826,0.06317567604848102,0.0034304557188075306,0.0061818525058887075
0.2305385,0.008701662182825275,0.013591976913306934,0.004725910110157815,0.01979386171597852,0.028877424339208112,0.06336345822209385,0.003441804724664178,0.006162903068702418
0.2310577,0.008743355437114287,0.013623675653892095,0.0047158399707133754,0.019810409378616597,0.029032881140211738,0.06355160576307972,0.0034531784062152874,0.006143553135389879
0.2315769,0.008785236500034556,0.01365505418512589,0.004705835957420902,0.019826293687628116,0.029189145630028893,0.06374007456689659,0.0034645748644287974,0.006123804306531432
0.2320962,0.008827287754981017,0.013686109610998351,0.004695901900112863,0.01984151100271995,0.029346186764403436,0.06392882057905015,0.003475992235353395,0.006103658338285666
0.2326154,0.008869491718017904,0.013716839197398762,0.004686041623060557,0.019856057847678233,0.029503973584181584,0.06411779980261506,0.003487428689924948,0.0060831171435442415
0.2331346,0.008911831041523342,0.013747240370371772,0.004676258944395398,0.01986993091126205,0.029662475219858608,0.06430696830563624,0.0034988824337563954,0.006062182793067488
0.2336538,0.008954288517765653,0.013777310714333222,0.004666557675552255,0.019883127048052753,0.029821660896074135,0.06449628222841186,0.0035103517069112787,0.006040857516600379
0.2341731,0.008996847082411165,0.013807047970246495,0.004656941620734704,0.019895643279259714,0.029981499936056578,0.06468569779065997,0.0035218347836610815,0.0060191437039684905
0.2346923,0.009039489817963273,0.013836450033760305,0.0046474145764019755,0.01990747679348321,0.030141961766017,0.0648751712985717,0.003533329972226568,0.005997043906153482
0.2352115,0.009082199957132357,0.013865514953308886,0.004637980330777386,0.01991862494743523,0.030303015919492696,0.06506465915175388,0.0035448356145033463,0.005974560836347618
0.2357308,0.009124960886136223,0.013894240928175667,0.004628642663377995,0.01992908526661898,0.030464632041640637,0.06525411785006367,0.0035563500857719492,0.005951697370986822
0.23625,0.009167756147930584,0.013922626306521546,0.004619405344565225,0.019938855445968028,0.030626779893480994,0.0654435040003379,0.0035678717943927315,0.005928456550761705
0.2367692,0.009210569445369056,0.013950669583378886,0.004610272135116139,0.019947933350446048,0.03078942935609083,0.06563277432301959,0.003579399181485963,0.005904841581606043
0.2372885,0.009253384644292123,0.013978369398612467,0.004601246785815104,0.019956317015608314,0.03095255043474795,0.06582188565868424,0.0035909307205974853,0.005880855835662106
0.2378077,0.009296185776544416,0.01400572453484851,0.004592333037065554,0.019964004648126164,0.031116113263024728,0.06601079497446846,0.0036024649173503104,0.005856502852222294
0.2383269,0.009338957042919652,0.014032733915372905,0.004583534618521563,0.01997099462627578,0.031280088106831555,0.06619945937040368,0.0036140003090825447,0.005831786338646484
0.2388462,0.009381682816032492,0.014059396601999759,0.004574855248738946,0.019977285500392728,0.031444445368409304,0.06638783608565738,0.003625535464472003,0.005806710171254487
0.2393654,0.009424347643116495,0.014085711792911302,0.00456629863484563,0.0199828759932937,0.031609155590269736,0.06657588250468395,0.0036370689831478676,0.005781278396192966
0.2398846,0.009466936248747365,0.014111678820470087,0.004557868472231009,0.019987765000666777,0.03177418945908273,0.06676355616328714,0.0036485994952897634,0.005755495230276131
0.2404038,0.00950943353749054,0.014137297149004502,0.004549568444254002,0.01999195159143144,0.03193951780950895,0.06695081475459541,0.003660125661214632,0.005729365061799482
0.2409231,0.009551824596472152,0.014162566372568451,0.0045414022219695425,0.01999543500806946,0.032105111627976184,0.06713761613495188,0.003671646170951804,0.005702892451325909
0.2414423,0.009594094697872325,0.014187486212676093,0.004533373463873204,0.019998214666927503,0.03227094205639772,0.0673239183297198,0.003683159743806688,0.00567608213244339
0.2419615,0.009636229301339689,0.01421205651601241,0.004525485815663645,0.020000290158492206,0.032436980395830504,0.0675096795390053,0.0036946651279135007,0.005648939012493565
0.2424808,0.009678214056325926,0.01423627725212051,0.0045177429100225555,0.02000166124763832,0.03260319811007135,0.06769485814329879,0.003706161099777467,0.005621468173270447
0.243,0.009720034804339136,0.014260148511066452,0.004510148366411749,0.020002327873850333,0.03276956682918867,0.06787941270903647,0.00371764646380689,0.005593674871688529
0.2435192,0.009761677581114759,0.014283670501082493,0.004502705790887053,0.020002290151417933,0.03293605835298776,0.06806330199408332,0.003729120051835489,0.0055655645404194725
0.2440385,0.0098031286187028,0.014306843546189678,0.004495418775928603,0.02000154836960552,0.033102644654407244,0.06824648495313873,0.0037405807226353937,0.005537142788496552
0.2445577,0.00984437434747013,0.014329668083800668,0.004488290900287165,0.020000102992795785,0.03326929788284472,0.06842892074306578,0.0037520273614211758,0.005508415401885996
0.2450769,0.009885401398016592,0.014352144662303754,0.0044813257288460724,0.01999795466060732,0.03343599036740985,0.06861056872814486,0.0037634588793453105,0.005479388344024328
0.2455962,0.009926196603003661,0.014374273938628881,0.004474526812498343,0.01999510418798604,0.03360269462010349,0.06879138848525185,0.00377487421298547,0.005450067756320813
0.2461154,0.00996674699889439,0.014396056675796498,0.004467897688038534,0.019991552565269983,0.033769383338921474,0.06897133980896085,0.00378627232382405,0.005420459958624073
0.2466346,0.01000703982760333,0.014417493740450002,0.0044614418780688486,0.019987300958226942,0.033936029410882126,0.06915038271657144,0.0037976521977203365,0.00539057144965202
0.2471538,0.01004706253805517,0.014438586100372405,0.004455162890918995,0.019982350708064152,0.034102605914976346,0.0693284774530595,0.003809012844375753,0.0053604089073842395
0.2476731,0.010086802787650912,0.014459334821987878,0.004449064220579278,0.019976703331409176,0.03426908612503914,0.06950558449595064,0.003820353296792614,0.0053299791894160335
0.2481923,0.010126248443640478,0.014479741067848753,0.004443149346646412,0.019970360520260907,0.034435443512541554,0.06968166456011445,0.003831672610726856,0.005299289333273384
0.2487115,0.010165387584400786,0.014499806094108563,0.0044374217342815474,0.01996332414190951,0.034601651749301604,0.06985667860247782,0.003842969864135199,0.005268346556688151
0.2492308,0.010204208500618397,0.014519531247981656,0.004431884834180002,0.019955596238824046,0.03476768471011313,0.07003058782665503,0.0038542441566171994,0.005237158257832843
0.24975,0.010242699696375906,0.014538917965189885,0.0044265420825522405,0.019947179028506297,0.03493351647529107,0.0702033536874928,0.003865494608852635,0.0052057320155142915
0.2502692,0.010280849890141367,0.014557967767396854,0.004421396901115671,0.01993807490330932,0.03509912133313212,0.07037493789552925,0.003876720362034659,0.005174075589325555
0.2507885,0.010318648015660013,0.014576682259630108,0.004416452697096849,0.019928286430219253,0.03526447378228971,0.07054530242136617,0.0038879205772991746,0.005142196919755411
0.2513077,0.01035608322274761,0.014595063127691517,0.004411712863243736,0.019917816350598947,0.035429548534062515,0.07071440949995493,0.0038990944351508664,0.005110104128254751
0.2518269,0.010393144877984772,0.014613112135556126,0.004407180777847668,0.019906667579892005,0.03559432051459627,0.0708822216347964,0.003910241134886354,0.005077805517259224
0.2523462,0.010429822565311542,0.0146308311227596,0.0044028598047747645,0.01989484320728601,0.035758764866998465,0.07104870160205559,0.003921359894014941,0.00504530957016743
0.2528654,0.010466106086521593,0.014648222001774434,0.004398753293506479,0.019882346495333884,0.03592285695336594,0.07121381245459127,0.003932449947677464,0.005012624951273999
0.2533846,0.010501985461655348,0.014665286755375035,0.0043948645791890666,0.019869180879532433,0.03608657235672503,0.07137751752590116,0.003943510548063756,0.004979760505656839
0.2539038,0.01053745092929141,0.01468202743399183,0.004391196982691743,0.019855349967857372,0.03624988688288419,0.0715397804339834,0.003954540963829291,0.004946725259017926
0.2544231,0.010572492946735665,0.014698446153054642,0.004387753810673342,0.01984085754025433,0.036412776562198955,0.07170056508511526,0.0039655404795115685,0.0049135284174770385
0.2549423,0.010607102190107475,0.014714545090325602,0.004384538355657299,0.019825707548085488,0.036575217651249346,0.07185983567755061,0.003976508394946833,0.004880179367317907
0.2554615,0.010641269554322394,0.014730326483221989,0.004381553896114802,0.019809904113531545,0.036737186634430076,0.07201755670513794,0.003987444024687689,0.004846687674686277
0.2559808,0.010674986152970778,0.014745792626129534,0.004378803696555948,0.01979345152894875,0.036898660225454065,0.07217369296086064,0.003998346697422191,0.004813063085239399
0.2565,0.010708243318091731,0.014760945867706883,0.004376291007628749,0.01977635425618078,0.0370596153687699,0.07232820954030107,0.004009215755394956,0.004779315523746444
0.2570192,0.010741032599841868,0.014775788608182043,0.004374019066225822,0.019758616925825274,0.03722002924089387,0.07248107184502961,0.004020050553830849,0.004745455093639313
0.2575385,0.010773345766058533,0.014790323296641811,0.004371991095598593,0.019740244336454847,0.03737987925165727,0.0726322455859191,0.004030850460361785,0.004711492076513332
0.2580577,0.010805174801717474,0.01480455242831534,0.004370210305478811,0.019721241453792584,0.03753914304536951,0.07278169678638534,0.0040416148544571515,0.0046774369315772946
0.2585769,0.01083651190828536,0.014818478541852958,0.004368679892207156,0.01970161340984192,0.03769779850189771,0.07292939178555312,0.004052343126858356,0.004643300295052362
0.2590962,0.010867349502967989,0.014832104216601487,0.004367403038868694,0.019681365501970877,0.037855823737663365,0.07307529724134762,0.004063034679017973,0.004609092979519319
0.2596154,0.0108976802178556,0.014845432069877281,0.004366382915434913,0.01966050319195054,0.038013197106556554,0.0732193801335104,0.004073688922543928,0.004574825973213673
0.2601346,0.010927496898967173,0.014858464754238276,0.0043656226789120355,0.019639032104947676,0.038169897200768,0.07336160776653936,0.004084305278649153,0.004540510439268115
0.2606538,0.010956792605195914,0.014871204954756455,0.00436512547349528,0.019616958028471354,0.03832590285153937,0.07350194777255194,0.004094883177607114,0.004506157714901812
0.2611731,0.010985560607158398,0.01488365538629228,0.00436489443072874,0.01959428691127357,0.03848119312983227,0.07364036811407056,0.004105422058213615,0.004471779310555986
0.2616923,0.01101379438595005,0.01489581879077268,0.004364932669670475,0.019571024862203905,0.038635747346916605,0.07377683708672932,0.004115921367255234,0.004437386908975257
0.2622115,0.011041487631809632,0.014907697934474258,0.004365243297062429,0.019547178149018317,0.03878954505487919,0.07391132332190088,0.00412638055898472,0.00440299236423419
0.2627308,0.011068634242695562,0.01491929560531343,0.004365829407504726,0.019522753197142174,0.038942566047053845,0.07404379578924311,0.0041367990946036765,0.004368607700708509
0.26325,0.011095228322776865,0.01493061461014522,0.004366694083633897,0.01949775658838763,0.0390947903583744,0.07417422379916548,0.004147176441752789,0.0043342451119904105
0.2637692,0.01112126418084145,0.014941657772072443,0.004367840396304577,0.019472195059625375,0.03924619826565218,0.07430257700521552,0.004157512074009866,0.004299916959747396
0.2642885,0.011146736328624495,0.014952427927767022,0.004369271404774233,0.01944607550141099,0.03939677028777946,0.07442882540638619,0.004167805470395928,0.004265635772524028
0.2648077,0.011171639479059534,0.014962927924805207,0.004370990156890434,0.019419404956566067,0.039546487185860686,0.07455293934934559,0.004178056114889546,0.004231414244486009
0.2653269,0.011195968544454912,0.014973160619018372,0.004372999689280232,0.01939219061871463,0.03969532996327332,0.07467488953059077,0.004188263495949629,0.0041972652341059815
0.2658462,0.011219718634598192,0.014983128871861004,0.004375303027541226,0.019364439830775383,0.039843279865660525,0.07479464699852836,0.00419842710604681,0.004163201762790459
0.2663654,0.011242885054791091,0.01499283554779749,0.004377903186433836,0.019336160083410384,0.039990318380858335,0.0749121831554853,0.004208546441203567,0.004129237013447345
0.2668846,0.011265463303817516,0.015002283511709144,0.00438080317007436,0.019307359013430857,0.040136427238760146,0.07502746975965328,0.00421862100054321,0.004095384328993526
0.2674038,0.01128744907184722,0.015011475626322822,0.004384005972128369,0.01927804440216069,0.04028158841112177,0.07514047892697065,0.004228650285847815,0.004061657210802043
0.2679231,0.011308838238277658,0.015020414749662373,0.004387514576004023,0.019248224173758214,0.04042578411131037,0.07525118313294576,0.004238633801125207,0.004028069317088335
0.2684423,0.011329626869516619,0.01502910373252409,0.004391331955044889,0.01921790639349681,0.04056899679400047,0.07535955521442614,0.004248571052185057,0.003994634461235073
0.2689615,0.011349811216708292,0.015037545415977122,0.004395461072721875,0.019187099266004953,0.040711209154820266,0.07546556837131702,0.004258461546224117,0.003961366610055092
0.2694808,0.011369387713405406,0.01504574262888984,0.0043999048828238735,0.019155811133466257,0.040852404129951295,0.07556919616825349,0.004268304791420637,0.003928279881991952
0.27,0.011388352973190264,0.015053698185482958,0.004404666329646707,0.019124050473780095,0.04099256489568448,0.07567041253622976,0.004278100296537953,0.003895388545257669
0.2705192,0.011406703787247447,0.015061414882910094,0.004409748348179981,0.019091825898683266,0.04113167486793549,0.07576919177418923,0.00428784757053725,0.0038627070159071883
0.2710385,0.011424437121891123,0.015068895498866433,0.0044151538642914065,0.01905914615183319,0.04126971770172235,0.07586550855057898,0.004297546122199517,0.003830249855849177
0.2715577,0.011441550116049878,0.015076142789226003,0.004420885794908171,0.019026020106852816,0.041406677290608256,0.07595933790487268,0.0043071954597567255,0.003798031770792732
0.2720769,0.01145804007871203,0.015083159485708,0.004426947048194926,0.018992456765337343,0.04154253776611226,0.07605065524906546,0.004316795090532308,0.0037660676081296206
0.2725962,0.01147390448633443,0.015089948293572507,0.004433340523727951,0.018958465254822827,0.04167728349709065,0.07613943636914443,0.004326344520591014,0.0037343723547516874
0.2731154,0.011489140980217794,0.015096511889345823,0.004440069112665038,0.018924054826716354,0.04181089908909167,0.07622565742653771,0.004335843254398262,0.003702961134803083
0.2736346,0.011503747363851603,0.015102852918575611,0.004447135697910635,0.018889234854187587,0.041943369383686285,0.07630929495954457,0.004345290794489078,0.003671849207366969
0.2741538,0.011517721600231642,0.015108973993615974,0.004454543154275764,0.018854014830021224,0.04207467945777767,0.07639032588474862,0.004354686641146726,0.0036410519640863574
0.2746731,0.011531061809153222,0.01511487769144253,0.004462294348632223,0.018818404364429865,0.04220481462289201,0.07646872749841573,0.004364030292091146,0.0036105849267187374
0.2751923,0.01154376626448321,0.015120566551497527,0.004470392140060534,0.01878241318282668,0.04233376042445322,0.07654447747787756,0.004373321242177334,0.0035804637446241135
0.2757115,0.011555833391413976,0.015126043073564901,0.00447883937999108,0.018746051123557234,0.042461502641043904,0.07661755388290138,0.004382558983103802,0.0035507041921860657
0.2762308,0.011567261763702348,0.015131309715675176,0.004487638912337877,0.018709328135589825,0.0425880272836548,0.0766879351570461,0.004391743003131287,0.003521322166165412
0.27675,0.011578050100896735,0.015136368892039894,0.004496793573624354,0.01867225427616357,0.04271332059492449,0.07675560012900433,0.004400872786811883,0.003492333682986041
0.2772692,0.0115881972655555,0.015141222971015235,0.004506306193100586,0.018634839708393653,0.04283736904837107,0.07682052801392936,0.004409947814728804,0.0034637548759524598
0.2777885,0.011597702260459704,0.015145874273094323,0.004516179592851322,0.018597094698832993,0.042960159347617065,0.07688269841474553,0.004418967563246952,0.003435601992398598
0.2783077,0.01160656422582323,0.015150325068927733,0.004526416587894258,0.018559029614989536,0.04308167842560846,0.07694209132344078,0.004427931504274481,0.0034078913907674
0.2788269,0.011614782436503308,0.015154577577371655,0.004537019986267904,0.018520654922798377,0.043201913443828954,0.0769986871223395,0.004436839105035557,0.003380639537620758
0.2793462,0.011622356299214397,0.015158633963563364,0.004547992589108524,0.01848198118404792,0.043320851791509844,0.0770524665853542,0.004445689827854446,0.0033538630045793897
0.2798654,0.011629285349748348,0.015162496337023735,0.0045593371907155615,0.01844301905375928,0.04343848108483627,0.07710341087921514,0.004454483129951076,0.003327578465192291
0.2803846,0.011635569250203658,0.015166166749786875,0.0045710565786050645,0.018403779277518278,0.043554789166150236,0.07715150156467776,0.004463218463248195,0.0033018026917354957
0.2809038,0.011641207786226593,0.015169647194557243,0.004583153533550616,0.018364272688759658,0.04366976410315097,0.0771967205977082,0.00447189527419018,0.0032765525519399276
0.2814231,0.011646200864266957,0.015172939602894828,0.004595630829611282,0.018324510206003137,0.043783394188092746,0.07723905033064757,0.004480513003573597,0.003251845005648248
0.2819423,0.011650548508851128,0.015176045843429267,0.00460849123414611,0.018284502830041214,0.04389566793698028,0.07727847351335608,0.004489071086389511,0.0032276971014007605
0.2824615,0.011654250859874928,0.015178967720103827,0.004621737507814725,0.01824426164107862,0.04400657408876137,0.07731497329433847,0.004497568951677569,0.0032041259729505625
0.2829808,0.011657308169918822,0.015181706970450234,0.004635372404563628,0.01820379779582346,0.044116101604516456,0.07734853322185262,0.004506006022391811,0.0031811488357082907
0.2835,0.011659720801587807,0.015184265263895326,0.004649398671597835,0.018163122524530145,0.04422423966664402,0.07737913724500273,0.004514381715278139,0.003158782983116917
0.2840192,0.011661489224878257,0.015186644200100456,0.004663819049337594,0.018122247127994352,0.04433097767804097,0.077406769714819,0.00452269544076335,0.003137045782957136
0.2845385,0.011662614014573946,0.015188845307334645,0.004678636271359951,0.018081182974500645,0.04443630526127658,0.07743141538532493,0.004530946602855622,0.003115954673583927
0.2850577,0.011663095847673268,0.01519087004088243,0.004693853064325019,0.01803994149672354,0.04454021225775856,0.07745305941459321,0.004539134599056318,0.0030955271600948946
0.2855769,0.011662935500849706,0.01519271978148749,0.004709472147886822,0.01799853418858326,0.04464268872688966,0.07747168736579077,0.00454725882028293,0.0030757808104309977
0.2860962,0.011662133847947403,0.015194395833833125,0.004725496234588614,0.017956972602057593,0.044743724945213705,0.07748728520821349,0.004555318650803025,0.003056733251410303
0.2866154,0.011660691857513653,0.015195899425060775,0.004741928029742608,0.01791526834395164,0.044843311405549764,0.07749983931831046,0.004563313468178954,0.0030384021646954187
0.2871346,0.011658610590370088,0.015197231703327794,0.0047587702312940116,0.017873433072627398,0.04494143881611382,0.07750933648069759,0.00457124264322316,0.0030208052826953442
0.2876538,0.011655891197224233,0.015198393736405915,0.004776025529669308,0.017831478494695293,0.04503809809962721,0.07751576388915987,0.004579105539963844,0.003003960384402556
0.2881731,0.011652534916323065,0.015199386510321825,0.004793696607608672,0.017789416361669957,0.04513328039241097,0.07751910914764196,0.004586901515620763,0.0029878852911662448
0.2886923,0.011648543071150113,0.015200210928041446,0.00481178613998241,0.0177472584665925,0.045226977043465545,0.07751936027122633,0.004594629920590907,0.0029725978624027243
0.2892115,0.011643917068167607,0.01520086780819961,0.004830296793591293,0.017705016640621574,0.0453191796135351,0.07751650568709828,0.0046022900984438,0.0029581159912441136
0.2897308,0.01163865839460516,0.015201357883876805,0.004849231226950603,0.01766270274959563,0.045409879874156484,0.07751053423549709,0.004609881385926219,0.002944457600126461
0.29025,0.011632768616296333,0.015201681801424748,0.004868592090057735,0.017620328690568815,0.04549906980669309,0.07750143517065178,0.004617403112976078,0.0029316406363185605
0.2907692,0.01162624937556447,0.015201840119342381,0.004888382024143115,0.0175779063883231,0.04558674160135457,0.0774891981617001,0.004624854602745309,0.0029196830673927534
0.2912885,0.011619102389159025,0.015201833307203975,0.004908603661404214,0.01753544779185942,0.04567288765620394,0.07747381329358873,0.0046322351716315425,0.0029086028766390627
0.2918077,0.011611329446243561,0.015201661744640813,0.004929259624722408,0.017492964870870535,0.04575750057615364,0.07745527106795286,0.004639544129318448,0.0028984180584240462
0.2923269,0.011602932406436518,0.015201325720377948,0.0049503525273624,0.01745046961219843,0.045840573171952226,0.07743356240397378,0.004646780778824579,0.0028891466134957897
0.2928462,0.011593913197905793,0.015200825431327463,0.004971884972653894,0.017407974016278895,0.04592209845916343,0.07740867863921341,0.004653944416560611,0.0028808065442364975
0.2933654,0.011584273815518055,0.015200160981739552,0.0049938595536552135,0.017365490093575967,0.04600206965713874,0.07738061153042546,0.0046610343323948145,0.0028734158498641663
0.2938846,0.011574016319043659,0.015199332382412667,0.0050162788527984975,0.017323029861008848,0.04608048018798481,0.07734935325434368,0.004668049809726616,0.002866992521584831
0.2944038,0.011563142831417968,0.015198339549963939,0.005039145441516145,0.0172806053383739,0.04615732367552662,0.07731489640844784,0.004674990125568086,0.0028615545376968862
0.2949231,0.01155165553705977,0.015197182306160982,0.005062461879848149,0.01723822854476417,0.046232593944267215,0.07727723401170798,0.004681854550633181,0.002857119858648943
0.2954423,0.01153955668024747,0.015195860377316123,0.005086230716030017,0.01719591149498891,0.04630628501834518,0.07723635950530769,0.004688642349434587,0.002853706422052702
0.2959615,0.011526848563553614,0.015194373393744041,0.005110454486060961,0.01715366619599537,0.04637839112049121,0.07719226675334645,0.004695352780388005,0.002851332137652286
0.2964808,0.011513533546338203,0.015192720889283712,0.005135135713252104,0.017111504643295153,0.046448906670985696,0.07714495004352188,0.004701985095923735,0.0028500148822514894
0.297,0.011499614043301272,0.015190902300885413,0.005160276907754475,0.017069438817397187,0.04651782628661932,0.07709440408779289,0.004708538542605432,0.002849772494600395
0.2975192,0.011485092523095066,0.015188916968263544,0.005185880566066601,0.017027480680249518,0.04658514477965872,0.0770406240230251,0.004715012361255907,0.0028506227702428466
0.2980385,0.011469971506996125,0.01518676413361587,0.005211949170521552,0.01698564217169207,0.04665085715681941,0.07698360541162091,0.004721405787089833,0.002852583456326243
0.2985577,0.011454253567637514,0.015184442941409708,0.005238485188753375,0.0169439352059227,0.0467149586182477,0.0769233442421369,0.00472771804985321,0.002855672246375129
0.2990769,0.011437941327801371,0.015181952438235485,0.005265491073142866,0.016902371667979012,0.046777444556513725,0.07685983692989136,0.004733948373969425,0.0028599067750300646
0.2995962,0.0114210374592719,0.015179291572727988,0.005292969260242729,0.016860963410238548,0.04683831055561731,0.07679308031756481,0.004740095978691725,0.0028653046127532214
0.3001154,0.011403544681748838,0.015176459195555497,0.005320922170182216,0.01681972224894006,0.04689755239000881,0.07672307167579542,0.004746160078261917,0.00287188326050221
0.3006346,0.01138546576182139,0.01517345405947692,0.005349352206051376,0.01677865996072863,0.04695516602362714,0.07664980870377135,0.004752139882075132,0.002879660144373642
0.3011538,0.011366803512002555,0.015170274819466912,0.00537826175326511,0.016737788279227384,0.04701114760895707,0.07657328952982087,0.004758034594850516,0.0028886526102179797
0.3016731,0.011347560789823727,0.015166920032908909,0.005407653178907231,0.016697118891638402,0.04706549348610797,0.07649351271200151,0.004763843416807747,0.0028988779182272375
0.3021923,0.011327740496989352,0.015163388159855908,0.00543752883105477,0.01665666343537537,0.04711820018191615,0.07641047723868825,0.0047695655438493596,0.0029103532374971457
0.3027115,0.01130734557859138,0.015159677563358731,0.005467891038082759,0.016616433494730385,0.047169264409072285,0.07632418252916129,0.0047752001677488455,0.002923095640565372
0.3032308,0.011286379022383167,0.015155786509861432,0.005498742107949792,0.016576440597577204,0.04721868306527596,0.07623462843419401,0.0047807464763445955,0.0029371220979274026
0.30375,0.01126484385811243,0.015151713169663331,0.005530084327464579,0.0165366962121131,0.047266453232418404,0.07614181523664207,0.0047862036537396875,0.002952449472531675
0.3042692,0.01124274315691271,0.015147455617447146,0.005561919961533751,0.016497211743641393,0.04731257217579451,0.07604574365203463,0.004791570880507556,0.0029690945142555373
0.3047885,0.011220080030752744,0.01514301183287251,0.005594251252391134,0.016457998531396546,0.04735703734334512,0.075946414829169,0.004796847333903526,0.002987073854363602
0.3053077,0.011196857631943037,0.015138379701234154,0.0056270804188086965,0.0164190678454137,0.04739984636492977,0.07584383035070924,0.004802032188082185,0.003006403999950035
0.3058269,0.011173079152698818,0.01513355701418402,0.005660409655289386,0.0163804308834442,0.04744099705163008,0.07573799223378928,0.004807124614320529,0.0030271013283663406
0.3063462,0.011148747824758515,0.015128541470516628,0.005694241131242057,0.016342098767918783,0.047480487395083495,0.07562890293062033,0.0048121237812468465,0.003049182081636181
0.3068654,0.011123866919056705,0.015123330677017096,0.005728576990138768,0.016304082542959796,0.04751831556684701,0.07551656532910186,0.004817028855075265,0.0030726623608587854
0.3073846,0.0110984397454505,0.015117922149371197,0.0057634193486547,0.016266393171443877,0.047554479917790576,0.07540098275343518,0.00482183899984591,0.0030975581206025313
0.3079038,0.011072469652498208,0.015112313313136947,0.0057987702957910635,0.016229041532116267,0.047588978977519486,0.0752821589647379,0.004826553377670633,0.0031238851632903364
0.3084231,0.011045960027289012,0.01510650150477716,0.005834631891981398,0.01619203841675789,0.04762181145382564,0.07516009816165824,0.0048311711489842715,0.0031516591335785556
0.3089423,0.011018914295322329,0.01510048397275234,0.005871006168181779,0.016155394527406188,0.0476529762321671,0.07503480498098729,0.004835691472801413,0.0031808955127311175
0.3094615,0.010991335920435467,0.015094257878673308,0.005907895124945496,0.01611912047363061,0.047682472375175526,0.07490628449826761,0.0048401135069786405,0.003211609612990676
0.3099808,0.010963228404778097,0.015087820298512914,0.005945300731482853,0.016083226769863585,0.04771029912219118,0.07477454222839582,0.004844436408482266,0.0032438165719485437
0.3105,0.010934595288832012,0.015081168223876177,0.005983224924706849,0.016047723832787634,0.0477364558888252,0.07463958412621673,0.004848659333661577,0.003277531346915194
0.3110192,0.010905440151474563,0.015074298563328148,0.006021669608265493,0.01601262197877925,0.04776094226654932,0.074501416587107,0.00485278143852766,0.0033127687092930763
0.3115385,0.010875766610084076,0.015067208143778807,0.00606063665156164,0.01597793142141005,0.04778375802231306,0.07436004644754612,0.004856801879037894,0.0033495432389535245
0.3120577,0.010845578320685511,0.015059893711924132,0.006100127888761188,0.015943662269005583,0.047804903098188654,0.07421548098567311,0.0048607198113862285,0.0033878693186194875
0.3125769,0.01081487897813461,0.015052351935742529,0.006140145117790563,0.015909824522262066,0.047824377611043786,0.0740677279218274,0.004864534392299379,0.003427761128255832
0.3130962,0.010783672316338677,0.015044579406045665,0.006180690099324371,0.015876428071921186,0.047842181852241754,0.07391679541907216,0.004868244779339035,0.0034692326394689366
0.3136154,0.010751962108512068,0.015036572638082729,0.006221764555764122,0.015843482696502997,0.04785831628736873,0.07376269208369826,0.004871850131210209,0.0035122976099172883
0.3141346,0.010719752167464396,0.015028328073197088,0.006263370170208931,0.015810998060096892,0.047872781555987,0.07360542696570674,0.004875349608075773,0.0035569695777347646
0.3146538,0.0106870463459194,0.015019842080534236,0.0063055085854190705,0.015778983710210467,0.047885578471412886,0.0734450095592669,0.004878742371877245,0.0036032618559682854
0.3151731,0.010653848536862314,0.015011110958799909,0.00634818140277324,0.015747449075676084,0.047896708020517736,0.07328144980314719,0.0048820275866618655,0.0036511875270314807
0.3156923,0.010620162673913532,0.01500213093806733,0.006391390181220414,0.015716403464614837,0.04790617136355028,0.07311475808111517,0.004885204418915969,0.003700759437176017
0.3162115,0.010585992731726286,0.014992898181632524,0.006435136436227111,0.015685856062457468,0.04791396983397842,0.07294494522230321,0.004888272037904655,0.003751990190982203
0.3167308,0.010551342726406034,0.01498340878791674,0.006479421638720963,0.015655815930021764,0.04792010493834865,0.07277202250153554,0.0048912296160177485,0.0038048921458704874
0.31725,0.010516216715949116,0.014973658792415056,0.00652424721403145,0.015626292001645767,0.04792457835616101,0.07259600163961322,0.004894076329122027,0.0038594774066354367
0.3177692,0.010480618800698322,0.01496364416969021,0.006569614540828675,0.015597293083376079,0.04792739193975766,0.07241689480355328,0.004896811356919664,0.003915757820003807
0.3182885,0.01044455312381294,0.014953360835410703,0.006615524950061073,0.01556882785121042,0.047928547714222405,0.07223471460677863,0.0048994338833128264,0.003973744969218322
0.3188077,0.010408023871750867,0.014942804648432114,0.00666197972389294,0.015540904849393607,0.04792804787728899,0.07204947410925601,0.004901943096774331,0.004033450168648783
0.3193269,0.010371035274760423,0.014931971412920499,0.006708980094642698,0.015513532488766064,0.04792589479925515,0.07186118681757947,0.004904338190724238,0.004094884458432144
0.3198462,0.010333591607379499,0.014920856880516717,0.006756527243722797,0.01548671904516393,0.047922091022899675,0.07166986668499713,0.004906618363912242,0.0041580585991432524
0.3203654,0.01029569718893973,0.01490945675254043,0.006804622300582168,0.01546047265786981,0.04791663926339978,0.07147552811137896,0.004908782820805707,0.0042229830664979725
0.3208846,0.010257356384073369,0.014897766682232501,0.006853266341652168,0.015434801328113194,0.04790954240824656,0.0712781859431238,0.004910830771983162,0.004289668046090435
0.3214038,0.010218573603220515,0.01488578227703439,0.006902460389296892,0.01540971291761946,0.04790080351715644,0.07107785547300347,0.00491276143453307,0.004358123428166164
0.3219231,0.010179353303134273,0.014873499100903177,0.006952205410768757,0.015385215147206359,0.047890425821976716,0.07087455243994249,0.004914574032457608,0.0044283588024328115
0.3224423,0.01013969998738144,0.014860912676660697,0.007002502317170204,0.015361315595426795,0.04787841272658372,0.07066829302873162,0.004916267797081197,0.004500383452910204
0.3229615,0.010099618206836268,0.014848018488375378,0.007053351962422337,0.015338021697256723,0.047864767806772,0.07045909386967335,0.004917841967463475,0.004574206352821393
0.3234808,0.01005911256016476,0.014834811983775373,0.007104755142241289,0.015315340742826894,0.047849494810132814,0.07024697203815729,0.00491929579081636,0.004649836159526339
0.324,0.010018187694297083,0.01482128857669164,0.007156712593123052,0.015293279876197326,0.047832597655920316,0.07003194505416314,0.004920628522924836,0.004727281209499912
0.3245192,0.009976848304885664,0.01480744364952961,0.0072092249913374325,0.015271846094173262,0.0478140804349039,0.06981403088168892,0.0049218394285710475,0.0048065495133558025
0.3250385,0.009935099136746681,0.014793272555768048,0.007262292951931781,0.015251046245161463,0.04779394740920558,0.0695932479281016,0.004922927781961291,0.004887648750917997
0.3255577,0.009892944984282712,0.014778770622483698,0.007315917027745074,0.015230887028065649,0.04777220301212136,0.06936961504340773,0.004923892867155452,0.004970586266341458
0.3260769,0.009850390691884378,0.014763933152900258,0.007370097708432879,0.015211374991219792,0.047748851847925766,0.06914315151944028,0.004924733978498429,0.005055369063283724
0.3265962,0.009807441154308885,0.014748755428959997,0.00742483541950368,0.015192516531357949,0.04772389869165898,0.06891387708895874,0.004925450421053104,0.005142003800129151
0.3271154,0.009764101317033305,0.014733232713916366,0.007480130521367042,0.015174317892619298,0.04769734848889544,0.0686818119246584,0.004926041511034437,0.005230496785267643
0.3276346,0.009720376176580493,0.014717360254945817,0.007535983308394014,0.015156785165586968,0.047669206355492794,0.06844697663808448,0.004926506576244303,0.005320853972429701
0.3281538,0.009676270780815472,0.01470113328577705,0.007592394007990182,0.015139924286359343,0.04763947757732023,0.06820939227844702,0.004926844956506788,0.005413080956079674
0.3286731,0.009631790229210225,0.014684547029336035,0.0076493627796817565,0.015123741035652484,0.04760816760996462,0.06796908033133207,0.004927056004103686,0.005507182966869064
0.3291923,0.009586939673074887,0.014667596700405171,0.007706889714215034,0.015108241037932462,0.04757528207841312,0.06772606271730522,0.00492713908421005,0.005603164867151738
0.3297115,0.00954172431575351,0.01465027750829531,0.007764974832669572,0.015093429760576375,0.047540826776710975,0.06748036179040341,0.004927093575329754,0.005701031146562872
0.3302308,0.00949614941278269,0.014632584659529612,0.007823618085585404,0.015079312513060751,0.047504807667593095,0.06723200033651153,0.004926918869731061,0.0058007859176633925
0.33075,0.00945022027201157,0.014614513360538425,0.007882819352104617,0.01506589444617611,0.04746723088208813,0.0669810015716198,0.004926614373882298,0.0059024329116517
0.3312692,0.00940394225368183,0.014596058820364518,0.00794257843912759,0.015053180551266263,0.047428102719093646,0.06672738913995871,0.004926179508887737,0.00600597547414437
0.3317885,0.009357320770466429,0.014577216253378197,0.008002895080484218,0.015041175659490903,0.04738742964492077,0.06647118711200792,0.004925613710923837,0.006111416561027526
0.3323077,0.009310361287465962,0.01455798088200183,0.008063768936120385,0.015029884441110001,0.047345218292806995,0.06621241998237663,0.004924916431675954,0.006218758734380532
0.3328269,0.009263069322161489,0.0145383479394434,0.008125199591300017,0.015019311404788476,0.04730147546239553,0.06595111266755271,0.004924087138775635,0.006328004158473611
0.3333462,0.009215450444322808,0.014518312672438796,0.00818718655582296,0.015009460896919635,0.047256208119180056,0.06568729050351867,0.00492312531623855,0.006439154595841011
0.3338654,0.009167510275871052,0.014497870344002586,0.008249729263258999,0.015000337100965816,0.047209423393914034,0.06542097924323247,0.004922030464903129,0.006552211403431306
0.3343846,0.009119254490694534,0.014477016236187024,0.008312827070198313,0.014991944036814711,0.047161128581983895,0.06515220505397139,0.004920802102869929,0.006667175528836448
0.3349038,0.009070688814416668,0.014455745652849055,0.00837647925551859,0.014984285560149834,0.04711133114274627,0.06488099451453705,0.004919439765941772,0.006784047506601147
0.3354231,0.009021819024114839,0.014434053922425014,0.008440685019669037,0.014977365361833703,0.047060038698829465,0.0646073746123203,0.0049179430080647235,0.006902827454614193
0.3359423,0.008972650947989123,0.014411936400712741,0.008505443483971406,0.014971186967302257,0.04700725903539972,0.06433137274022517,0.004916311401769966,0.007023515070583336
0.3364615,0.008923190464979958,0.014389388473660792,0.008570753689938196,0.014965753735969249,0.04695300009939305,0.06405301669345191,0.004914544538616654,0.007146109628595408
0.3369808,0.008873443504334126,0.01436640556016447,0.008636614598608088,0.014961068860639302,0.04689726999871322,0.06377233466613987,0.004912642029635811,0.007270609975763435
0.3375,0.008823416045118816,0.01434298311486848,0.008703025089898677,0.014957135366928406,0.0468400770013967,0.06348935524787155,0.004910603505775328,0.0073970145289625625
0.3380192,0.008773114115683971,0.014319116630975992,0.008769983961976542,0.01495395611269064,0.046781429534745095,0.06320410742003922,0.004908428618346088,0.007525321271656618
0.3385385,0.008722543793073557,0.014294801643064054,0.008837489930644671,0.014951533787449869,0.04672133618442528,0.06291662055207493,0.004906117039469205,0.007655527750817186
0.3390577,0.008671711202386738,0.014270033729905197,0.00890554162874726,0.014949870911835098,0.046659805693537525,0.062626924397545,0.004903668462524332,0.007787631073937035
0.3395769,0.008620622516090292,0.014244808517295078,0.008974137605591893,0.014948969837018116,0.046596846961651416,0.062335049090109486,0.004901082602598964,0.007921627906139726
0.3400962,0.008569283953283699,0.014219121680885925,0.009043276326389089,0.014948832744151945,0.04653246904380958,0.062041025139347505,0.004898359196938623,0.008057514467387169
0.3406154,0.008517701778918451,0.01419296894902538,0.009112956171709256,0.014949461643808481,0.046466681149499006,0.0617448834264492,0.004895498005397818,0.008195286529786851
0.3411346,0.00846588230297314,0.014166346105600316,0.00918317543695705,0.014950858375413654,0.04639949264159001,0.061446655199776136,0.004892498810891627,0.008334939415000419
0.3416538,0.008413831879585904,0.014139248992885108,0.009253932331863151,0.014953024606678375,0.04633091303524359,0.061146372070292,0.004889361419847762,0.008476467991755193
0.3421731,0.008361556906145786,0.014111673514393706,0.009325224979993508,0.014955961833023487,0.04626095199678811,0.060844066006865885,0.0048860856626589625,0.008619866673460189
0.3426923,0.008309063822344575,0.014083615637734914,0.009397051418276004,0.014959671376997018,0.046189619342567025,0.060539769331450256,0.00488267139413553,0.008765129415928156
0.3432115,0.008256359109190686,0.01405507139747016,0.009469409596544515,0.014964154387681979,0.046116925037759195,0.060233514714136,0.00487911849395782,0.008912249715205094
0.3437308,0.008203449287986633,0.014026036897973054,0.00954229737710029,0.014969411840093101,0.04604287919517372,0.05992533516808662,0.004875426867128466,0.009061220605508704
0.34425,0.008150340919271696,0.01399650831628995,0.00961571253429056,0.014975444534560867,0.04596749207402083,0.05961526404435402,0.004871596444424092,0.009212034657277237
0.3447692,0.008097040601731461,0.013966481905000659,0.009689652754104237,0.014982253096101196,0.0458907740786605,0.059303335026578766,0.004867627182846281,0.009364683975330168
0.3452885,0.008043554971075976,0.013935953995078345,0.009764115633784529,0.014989837973769213,0.045812735757330324,0.05898958212557811,0.004863519066071546,0.009519160197142213
0.3458077,0.007989890698888391,0.013904920998747555,0.009839098681458276,0.014998199439995624,0.045733387800854154,0.058674039673825486,0.0048592721049000665,0.00967545449123213
0.3463269,0.007936054491446047,0.013873379412339237,0.009914599315781772,0.01500733758990451,0.04565274104133233,0.05835674231982524,0.004854886337702935,0.009833557555667859
0.3468462,0.00788205308851603,0.013841325819141588,0.009990614865602753,0.015017252340611836,0.04557080645081442,0.05803772502238624,0.004850361830867664,0.009993459616689548
0.3473654,0.007827893262127166,0.013808756892245467,0.01006714256963822,0.01502794343050436,0.04548759513995515,0.05771702304479789,0.004845698679241656,0.010155150427452027
0.3478846,0.007773581815320477,0.013775669397383273,0.01014417957616768,0.015039410418499235,0.045403118356653914,0.057394671948911784,0.00484089700657332,0.01031861926688828
0.3484038,0.007719125580880003,0.013742060195760183,0.01022172294274133,0.015051652683284886,0.04531738748467807,0.05707070758913254,0.0048359569659504695,0.010483854938695478
0.3489231,0.0076645314200459195,0.013707926246876712,0.010299769635902652,0.015064669422544004,0.04523041404227026,0.05674516610632164,0.004830878740235633,0.010650845770445058
0.3494423,0.007609806221211753,0.013673264611341678,0.010378316530924825,0.01507845965215959,0.04514220968073953,0.05641808392161857,0.004825662542497886,0.01081957961281837
0.3499615,0.007554956898607451,0.01363807245367457,0.010457360411560323,0.015093022205405078,0.04505278618303589,0.05608949773018387,0.0048203086164408035,0.010990043838969366
0.3504808,0.007499990390970027,0.013602347045096365,0.010536897969803009,0.015108355732119503,0.0449621554623078,0.055759444494869186,0.004814817236826128,0.011162225344015824
0.351,0.007444913660203413,0.013566085766307724,0.010616925805662064,0.015124458697868578,0.044870329560441874,0.05542796143981934,0.004809188709892763,0.011336110544660603
0.3515192,0.007389733690029109,0.013529286110253405,0.010697440426947081,0.01514132938309248,0.04477732064658418,0.05509508604401157,0.004803423373770704,0.011511685378944373
0.3520385,0.007334457484629149,0.013491945684871689,0.010778438249063702,0.015158965882240989,0.04468314101564273,0.05476085603473692,0.004797521598889498,0.011688935306131295
0.3525577,0.0072790920672828495,0.01345406221582751,0.010859915594819223,0.015177366102896583,0.04458780308677043,0.05442530938102863,0.00479148378838084,0.011867845306729094
