Time,Rectus Femoris right,Rectus Femoris left,Hamstrings right,Hamstrings left,TibilaisÂ Anterior right,TibilaisÂ Anterior left,Gastrocnemius right,Gastrocnemius left
0.0,-0.0031700945308542855,0.0028708366110567545,0.01772374386827328,0.0034320974931781726,0.0017065045990593867,0.0013868351886993876,-0.0015550678380205159,0.0019453528454116988
0.0004655,-0.003082842946575494,0.002949429956877785,0.01775780196055297,0.003494633783807571,0.0018646406120066646,0.001610483944015495,-0.0014598090683615567,0.002069442388042131
0.000931,-0.0029957089982405546,0.0030282137357062642,0.01779156220424429,0.0035568322497979,0.0020230060814479356,0.0018340807090421677,-0.0013646567186120203,0.0021939248130922835
0.0013966,-0.0029087012226304064,0.0031071757905772094,0.01782502449741237,0.0036186828923735473,0.0021815842590986877,0.0020575941979863815,-0.0012696228560108607,0.002318787791532385
0.0018621,-0.0028218280569954255,0.0031863038482279546,0.017858188963613308,0.0036801758088084685,0.0023403583919718815,0.0022809930957876216,-0.0011747194902706768,0.0024440189270675105
0.0023276,-0.002735097835601359,0.0032655855216567223,0.01789105595476224,0.00374130119648545,0.0024993117277668435,0.0025042460672674337,-0.0010799585690135114,0.0025696057594952284
0.0027931,-0.0026485187863260398,0.0033450083127281637,0.01792362605391889,0.003802049356930538,0.002658427520253861,0.0027273217662818505,-0.0009853519732205994,0.0026955357680556705
0.0032586,-0.0025620990273096888,0.003424559614824975,0.017955900077986708,0.0038624106998197405,0.0028176890346510177,0.0029501888448703654,-0.000890911512698878,0.0028217963747697093
0.0037241,-0.00247584656366149,0.003504226715544678,0.017987879080321734,0.003922375746955131,0.002977079552989858,0.003172815962395284,-0.0007966489215670414,0.0029483749477611314
0.0041897,-0.0023897692842249894,0.0035839967994406694,0.01801956435324715,0.00398193513620748,0.003136582379466523,0.0033951717946655202,-0.0007025758537638881,0.0030752588045589078
0.0046552,-0.0023038749584047466,0.003663856950806637,0.01805095743046946,0.004041079625422556,0.0032961808457750955,0.00361722504303919,-0.0006087038785816627,0.003202435215375934
0.0051207,-0.0022181712330565403,0.003743794156503435,0.018082060089392206,0.004099800096288246,0.0034558583164199857,0.0038389444434996857,-0.0005150444762270291,0.003329891406360891
0.0055862,-0.0021326656294432984,0.003823795308827521,0.018112874353322924,0.004158087558159641,0.00361559819400432,0.004060298775700262,-0.00042160903341225526,0.003457614562820237
0.0060517,-0.00204736554025884,0.0039038472084200757,0.018143402493569202,0.004215933151839249,0.0037753839244914138,0.004281256871972489,-0.0003284088389791145,0.003585591832407616
0.0065172,-0.0019622782267213934,0.003983936567215961,0.0181736470314195,0.004273328153309454,0.003935199002436537,0.004501787626294172,-0.00023545507955791633,0.0037138103282782025
0.0069828,-0.0018774108157387742,0.004064050011431702,0.01820361074000448,0.004330263977414362,0.004095026976186285,0.0047218600032125965,-0.00014275883526392166,0.003842257132205684
0.0074483,-0.0017927702971470196,0.004144174084591727,0.01823329664603456,0.004386732181488162,0.0042548514530429335,0.0049414430467190976,-5.0331075433186285e-05,0.0039709192976597725
0.0079138,-0.0017083635210241915,0.0042242952505921255,0.018262708031409357,0.004442724468927136,0.0044146561043912225,0.005160505889071119,4.181734560036756e-05,0.004099783852842264
0.0083793,-0.0016241971950809759,0.004304399896801203,0.018291848434694606,0.004498232692702431,0.004574424670785084,0.005379017759558057,0.0001336756926850646,0.004228837803679758
0.0088448,-0.001540277882129579,0.004384474337196118,0.01832072165246206,0.0045532488588107475,0.004734140966991883,0.005596947993207323,0.00022523335398733595,0.004358068136771233
0.0093103,-0.001456611997632286,0.004464504815534869,0.018349331740487848,0.004607765129660097,0.004893788886991844,0.005814266039427213,0.00031647984508197016,0.004487461822288651
0.0097759,-0.0013732058073309013,0.004544477508562875,0.018377683014804573,0.00466177382738782,0.005053352408930438,0.006030941470583333,0.0004074048129954442,0.004617005816828846
0.0102414,-0.0012900654249581593,0.004624378529253372,0.018405780052602533,0.004715267437108145,0.005212815600021549,0.006246943990505541,0.0004979980402010465,0.004746687066214906
0.0107069,-0.0012071968100320538,0.00470419393008082,0.01843362769297525,0.004768238610086627,0.005372162621399393,0.006462243442922518,0.0005882494485645179,0.004876492508245352
0.0111724,-0.0011246057657339317,0.004783909706326527,0.018461231037504536,0.004820680166838934,0.005531377732917297,0.006676809819821271,0.0006781491032389477,0.005006409075389443
0.0116379,-0.0010422979368711228,0.0048635117994156795,0.018488595450680236,0.004872585100151498,0.005690445297891648,0.006890613269728926,0.0007676872165076775,0.005136423697427006
0.0121034,-0.0009602788079248043,0.0049429861002849955,0.018515726560149947,0.004923946578021637,0.005849349787789474,0.0071036241059142516,0.0008568541515739788,0.005266523304031238
0.012569,-0.0008785537011837675,0.005022318452780233,0.01854263025679408,0.004974757946514767,0.006008075786858259,0.00731581281450644,0.0009456404262963053,0.00539669482729298
0.0130345,-0.0007971277749647273,0.005101494657082802,0.01856931269462204,0.005025012732536363,0.006166607996696723,0.007527150062528654,0.001034036716867957,0.005526925204184959
0.0135,-0.0007160060219197885,0.005180500473164722,0.018595780290485715,0.005074704646516302,0.00632493124076547,0.007737606705843878,0.0011220338614400522,0.005657201378964487
0.0139655,-0.0006351932674316555,0.0052593216242711556,0.018622039723606987,0.005123827585003279,0.006483030468836653,0.007947153797010642,0.0012096228636867719,0.005787510305513094
0.014431,-0.000554694168097136,0.005337943800429738,0.01864809793491654,0.00517237563316696,0.006640890761382025,0.008155762593046132,0.0012967948963119112,0.0059178389496115135
0.0148966,-0.000474513210299453,0.0054163526619858795,0.018673962126201586,0.00522034306720562,0.006798497333898983,0.00836340456309427,0.001383541304495827,0.006048174291148403
0.0153621,-0.0003946547088698355,0.005494533843163239,0.01869963975906059,0.005267724356657109,0.006955835541174339,0.008570051395996318,0.0014698536092818994,0.006178503326261121
0.0158276,-0.0003151228058388163,0.005572472955648533,0.01872513855366302,0.005314514166611047,0.007112890881485592,0.008775675007761543,0.0015557235109016532,0.006308813069406868
0.0162931,-0.00023592146927760697,0.005650155592199886,0.018750466487312375,0.005360707359820315,0.007269649000739454,0.008980247548935486,0.0016411428920377123,0.006439090555362437
0.0167586,-0.0001570544922298476,0.005727567330277947,0.01877563179281073,0.005406298998709979,0.007426095696547438,0.00918374141186327,0.0017261038210237738,0.006569322841150761
0.0172241,-7.852549173393478e-05,0.005804693735699001,0.018800642956623474,0.005451284347281935,0.0075822169222382494,0.009386129237845377,0.0018105985549808229,0.006699497007892411
0.0176897,-3.3790793601574435e-07,0.005881520366309343,0.01882550871684297,0.005495658872913631,0.007737998790806813,0.009587383924183224,0.0018946195428888328,0.006829600162580166
0.0181552,7.750499670638666e-05,0.005958032775680178,0.018850238060950777,0.0055394182480492755,0.007893427578799772,0.009787478631111833,0.0019781594285931954,0.006959619439774692
0.0186207,0.00015500013813027062,0.006034216516822353,0.01887484022337832,0.005582558351781995,0.008048489730137368,0.009986386788616857,0.0020612110537451297,0.007089542003219359
0.0190862,0.00023214461128282505,0.006110057145920203,0.018899324682866887,0.005625075271325399,0.008203171859871586,0.010184082103133204,0.0021437674606753086,0.007219355047372235
0.0195517,0.00030893569064719697,0.006185540226083833,0.01892370115962842,0.005666965303373007,0.008357460757880486,0.010380538564122471,0.0022258218951999352,0.007349045798853307
0.0200172,0.0003853708306787275,0.006260651331119142,0.018947979612309422,0.0057082249553440136,0.008511343392498556,0.010575730450526608,0.0023073678093584976,0.007478601517805108
0.0204828,0.00046144766615205586,0.006335376049314913,0.018972170234761148,0.005748850946513933,0.008664806914082876,0.010769632337095379,0.0023883988640824266,0.007608009499165094
0.0209483,0.0005371640124195102,0.00640969998724625,0.018996283452619854,0.005788840209028797,0.00881783865851486,0.010962219100585532,0.0024689089317938753,0.007737257073848414
0.0214138,0.0006125178655812208,0.006483608773593668,0.019020329919701578,0.005828189888801793,0.008970426150637242,0.011153465925829848,0.002548892098933835,0.007866331609840299
0.0218793,0.0006875074025674066,0.006557088062977079,0.01904432051421636,0.005866897346291516,0.00912255710762592,0.01134334831167452,0.002628342668418793,0.007995220513197777
0.0223448,0.0007621309811333093,0.006630123539803898,0.01906826633480712,0.005904960157161299,0.009274219442296203,0.0115318420767835,0.002707255162025111,0.00812391122896116
0.0228103,0.0008363871397672692,0.006702700922130442,0.01909217869641849,0.0059423761128193815,0.009425401266342951,0.011718923365308796,0.002785624322700312,0.008252391241976114
0.0232759,0.0009102745975124595,0.006774805965535747,0.019116069126001018,0.0059791432208399845,0.00957609089351399,0.011904568652425855,0.0028634451168004166,0.008380648077627626
0.0237414,0.0009837922537028212,0.0068464244670068675,0.019139949358056067,0.006015259705265515,0.009726276842716132,0.012088754749733503,0.0029407127362524703,0.008508669302487643
0.0242069,0.0010569391876137633,0.006917542268834702,0.019163831330026568,0.006050724006790299,0.009875947841053046,0.012271458810517966,0.0030174226006413718,0.008636442524878657
0.0246724,0.00112971465802821,0.006988145262519332,0.01918772717753872,0.006085534782826286,0.010025092826794136,0.012452658334880596,0.0030935703592201123,0.008763955395356066
0.0251379,0.0012021181027185902,0.007058219392683774,0.019211649229499674,0.006119690907451195,0.010173700952273547,0.012632331174728922,0.003169151892842528,0.008891195607112438
0.0256034,0.0012741491378453892,0.007127750660995068,0.019235610003055997,0.006153191471239613,0.010321761586718346,0.012810455538630786,0.003244163315817661,0.009018150896307192
0.026069,0.0013458075572729132,0.00719672513009155,0.01925962219841785,0.006186035780977635,0.010469264319004837,0.01298700999653125,0.0033186009776848364,0.009144809042325206
0.0265345,0.0014170933318029552,0.007265128927515113,0.01928369869355355,0.006218223359261748,0.010616198960341931,0.013161973484332113,0.003392461464908564,0.00927115786796791
0.027,0.0014880066083271088,0.007332948249647249,0.019307852538759204,0.0062497539439827655,0.010762555546880458,0.013335325308333888,0.0034657416024923625,0.009397185239580436
0.0274655,0.001558547708898539,0.007400169365647572,0.019332096951107935,0.006280627487695809,0.010908324342247231,0.013507045149540235,0.003538438455510587,0.009522879067118312
0.027931,0.0016287171297241026,0.007466778621393526,0.019356445308783166,0.006310844156877441,0.011053495840002663,0.01367711306782485,0.003610549330557333,0.00964822730415716
0.0283966,0.0016985155400777792,0.0075327624434198825,0.019380911145300255,0.006340404331071216,0.011198060766020599,0.013845509505960876,0.0036820717771114788,0.009773217947848807
0.0288621,0.0017679437811364642,0.007598107342856605,0.019405508143620836,0.006369308601923063,0.011342010080789068,0.014012215293512929,0.0037530035888169305,0.009897839038827176
0.0293276,0.0018370028647392187,0.007662799919363578,0.019430250130163963,0.006397557772108107,0.011485334981630535,0.014177211650591786,0.0038233428046771933,0.010022078661067269
0.0297931,0.001905693972071117,0.00772682686506065,0.019455151068718222,0.006425152854150685,0.011628026904840232,0.014340480191471787,0.0038930877101634393,0.010145924941700545
0.0302586,0.0019740184522728404,0.0077901749684513725,0.019480225054258834,0.00645209506913958,0.011770077527741021,0.014502002928071,0.003962236838235297,0.010269366050789883
0.0307241,0.0020419778209771655,0.007852831118338786,0.01950548630667372,0.00647838584534065,0.01191147877065323,0.014661762273294158,0.004030788970273648,0.01039239020106729
0.0311897,0.0021095737587734967,0.007914782307731558,0.01953094916440247,0.006504026816709135,0.012052222798777741,0.014819741044238405,0.004098743136924734,0.01051498564763741
0.0316552,0.0021768081096015914,0.00797601563773879,0.019556628077992067,0.006529019821304062,0.012192302023990636,0.01497592246526195,0.004166098618854895,0.01063714068764987
0.0321207,0.002243682879075616,0.008036518321451818,0.019582537603573185,0.0065533668996071446,0.012331709106547547,0.015130290170915871,0.004232854947415287,0.01075884365994341
0.0325862,0.0023102002327396697,0.00809627768781135,0.019608692396260757,0.006577070292748664,0.012470436956695934,0.01528282820873944,0.0042990119052159275,0.010880082944664722
0.0330517,0.002376362494255909,0.008155281185458373,0.019635107203482573,0.006600132440642724,0.012608478736193434,0.015433521041919725,0.004364569526608528,0.01100084696286492
0.0335172,0.0024421721435263872,0.008213516386567244,0.01966179685823956,0.006622555980034283,0.012745827859730446,0.015582353551816511,0.0044295280980775845,0.011121124176076422
0.0339828,0.002507631814749715,0.008270970990659429,0.0196887762723014,0.006644343742460353,0.012882477996255156,0.0157293110403539,0.004493888158539364,0.01124090308587306
0.0344483,0.002572744294413658,0.008327632828396379,0.01971606042934111,0.006665498752127668,0.013018423070199165,0.015874379232280196,0.004557650499548575,0.011360172233416137
0.0349138,0.0026375125192247767,0.008383489865350006,0.019743664378012296,0.006686024223709161,0.013153657262601957,0.016017544277297985,0.00462081616541275,0.011478920198989159
0.0353793,0.002701939573976225,0.008438530205749167,0.01977160322497265,0.006705923560061527,0.013288175012132423,0.016158792752066577,0.004683386453214541,0.011597135601523891
0.0358448,0.0027660286893548447,0.00849274209620062,0.019799892127857217,0.006725200349866152,0.013421971016005705,0.01629811166207917,0.004745362912742288,0.011714807098120327
0.0363103,0.002829783239688694,0.008546113929382813,0.019828546288204928,0.006743858365195667,0.013555040230793566,0.01643548844341719,0.00480674734632932,0.01183192338356314
0.0367759,0.00289320674063616,0.00859863424771093,0.019857580944341657,0.006761901559008338,0.013687377873126494,0.016570910964384372,0.004867541808602466,0.011948473189837132
0.0372414,0.0029563028468178225,0.008650291746971597,0.019887011364223026,0.00677933406257252,0.013818979420285855,0.01670436752702307,0.004927748606140357,0.012064445285644066
0.0377069,0.0030190753493922052,0.008701075279925766,0.019916852838239917,0.00679616018282336,0.01394984061068445,0.016835846868515397,0.0049873702970421666,0.012179828475923327
0.0381724,0.0030815281735765638,0.008750973859878317,0.019947120671989522,0.006812384399653963,0.014079957444233798,0.01696533816247165,0.005046409690407489,0.012294611601378652
0.0386379,0.0031436653761138353,0.008799976664213009,0.01997783017901466,0.006828011363143234,0.014209326182596427,0.017092831020108414,0.0051048698457282085,0.012408783538013184
0.0391034,0.0032054911426868836,0.008848073037891492,0.02000899667351391,0.0068430458907225945,0.014337943349321428,0.01721831549131859,0.00516275407219328,0.012522333196675004
0.039569,0.003267009785281159,0.008895252496915173,0.020040635463025036,0.006857492964283805,0.014465805729861423,0.017341782065635535,0.005220065927907408,0.012635249522615258
0.0400345,0.003328225739496902,0.008941504731748753,0.020072761841084138,0.006871357727230138,0.014592910371469061,0.017463221673093283,0.0052768092190246555,0.012747521495060879
0.0405,0.003389143561812023,0.008986819610704348,0.020105391079862804,0.006884645481473131,0.014719254582971042,0.01758262568498493,0.005332987998798018,0.012859138126803945
0.0409655,0.003449767926796792,0.009031187183285185,0.020138538422785585,0.006897361684377184,0.01484483593441769,0.017699985914521012,0.0053886065665459905,0.012970088463809546
0.041431,0.0035101036242814556,0.009074597683487883,0.02017221907713,0.00690951194565421,0.014969652256605945,0.017815294617389822,0.0054436694665371405,0.013080361584844075
0.0418966,0.0035701555564779065,0.009117041533062422,0.02020644820661114,0.0069211020242106215,0.015093701640473673,0.017928544492221532,0.005498181486793698,0.013189946601125725
0.0423621,0.003629928735056492,0.009158509344728947,0.020241240923952936,0.006932137824948841,0.015216982436363064,0.018039728680958034,0.005552147657815123,0.013298832655998927
0.0428276,0.0036894282781790434,0.009198991925350505,0.02027661228344794,0.006942625395525565,0.015339493253150876,0.01814884076913044,0.005605573251222627,0.013407008924634346
0.0432931,0.003748659407489179,0.009238480279060816,0.020312577273507507,0.0069525709230689615,0.01546123295724326,0.018255874786046247,0.005658463778325561,0.013514464613756067
0.0437586,0.0038076274450609205,0.009276965610346107,0.020349150809204037,0.006961980730856926,0.015582200671432794,0.018360825204888295,0.005710824988610601,0.013621188961397522
0.0442241,0.0038663378103066665,0.009314439327079932,0.02038634772480714,0.006970861274958557,0.015702395773615235,0.01846368694272757,0.005762662868154605,0.013727171236687728
0.0446897,0.003924796016845525,0.009350893043509898,0.02042418276631543,0.006979219140840932,0.01582181789536347,0.01856445536045199,0.005813983637962016,0.013832400739669338
0.0451552,0.003983007669333021,0.009386318583195115,0.02046267058398593,0.006987061039943281,0.015940466920355945,0.018663126262613194,0.005864793752227649,0.013936866801150001
0.0456207,0.004040978460253144,0.00942070798189319,0.020501825724863306,0.006994393806220617,0.016058342982656893,0.018759695897193316,0.005915099896525646,0.014040558782588537
0.0460862,0.004098714166673724,0.009454053490395626,0.020541662625311367,0.007001224392658926,0.016175446464845582,0.018854160955293776,0.005964908985925418,0.014143466076017427
0.0465517,0.004156220646966052,0.009486347577310511,0.020582195603549614,0.007007559867763957,0.016291777995991866,0.018946518570747792,0.006014228163035359,0.014245578104003198
0.0470172,0.004213503837489697,0.009517582931791503,0.020623438852197827,0.007013407412025715,0.0164073384494755,0.01903676631965844,0.006063064795975169,0.014346884319646248
0.0474828,0.00427056974924339,0.009547752466212157,0.020665406430831795,0.007018774314360687,0.016522128940646797,0.01912490221986376,0.006111426476277679,0.01444737420662163
0.0479483,0.004327424464482869,0.009576849318784799,0.020708112258553305,0.007023667968533895,0.01663615082432666,0.019210924730330394,0.006159321016721054,0.014547037279262279
0.0484138,0.004384074133306513,0.009604866856123204,0.020751570106577532,0.007028095869562761,0.016749405692144028,0.019294832750476987,0.006206756449092393,0.014645863082686039
0.0488793,0.004440524970209591,0.009631798675748378,0.02079579359084082,0.007032065610104777,0.01686189536970923,0.01937662561942846,0.006253741021883667,0.014743841192967806
0.0493448,0.004496783250607905,0.009657638608536795,0.02084079616463184,0.0070355848768309135,0.016973621913621985,0.019456303115202165,0.0063002831979209585,0.014840961217358013
0.0498103,0.004552855307331621,0.009682380721110384,0.020886591111249058,0.007038661446786636,0.01708458760831326,0.019533865453826713,0.006346391651927943,0.014937212794548535
0.0502759,0.0046087475270900095,0.009706019318167553,0.020933191536687393,0.007041303183742359,0.017194794962720875,0.019609313288394162,0.0063920752680244955,0.015032585594987002
0.0507414,0.004664466346907836,0.009728548944754478,0.020980610362357002,0.007043518034535089,0.017304246706799274,0.019682647708046022,0.006437343137161255,0.015127069321240392
0.0512069,0.004720018250534104,0.009749964388475817,0.021028860317837083,0.007045314025402978,0.017412945787864464,0.019753870236893453,0.006482204554490945,0.01522065370840862
0.0516724,0.0047754097648238375,0.00977026068164396,0.02107795393366769,0.00704669925831445,0.017520895366775428,0.019822982832871778,0.006526669016677165,0.015313328524588788
0.0521379,0.004830647456093531,0.009789433103365852,0.02112790353418276,0.007047681907293518,0.01762809881395364,0.019889987886529376,0.006570746219141394,0.015405083571390686
0.0526034,0.004885737926450921,0.009807477181566418,0.021178721230387856,0.007048270214742887,0.01773455970524269,0.019954888219750742,0.0066144460532487955,0.015495908684504069
0.053069,0.0049406878100996575,0.00982438869494747,0.02123041891288647,0.0070484724877664055,0.017840281817610423,0.02001768708441347,0.006657778603433504,0.015585793734318232
0.0535345,0.004995503769619481,0.009840163674880985,0.021283008244859174,0.007048297094492444,0.017945269124696364,0.020078388160978677,0.006700754144263956,0.015674728626594393
0.054,0.005050192492222476,0.009854798407235521,0.021336500655100114,0.007047752460399745,0.018049525792207505,0.02013699555701438,0.0067433831374488756,0.01576270330319137
0.0544655,0.005104760685985951,0.009868289434134484,0.02139090733111551,0.007046847064647345,0.01815305617316563,0.020193513805651014,0.006785676228784495,0.01584970774284501
0.054931,0.005159215076062505,0.009880633555644933,0.021446239212289026,0.007045589436410159,0.018255864803009482,0.0202479478639684,0.006827644245043626,0.015935731962001754
0.0553966,0.005213562400867792,0.009891827831395507,0.021502506983118612,0.007043988151221855,0.01835795639455519,0.02030030311131323,0.00686929819080721,0.01602076601570681
0.0558621,0.005267809408246594,0.009901869582122138,0.021559721066529525,0.007042051827326617,0.01845933583281829,0.02035058534754612,0.0069106492452389754,0.01610479999854722
0.0563276,0.005321962851617852,0.009910756391140212,0.021617891617267848,0.007039789122041441,0.018560008169700867,0.020398800791217114,0.006951708758803858,0.01618782404565019
0.0567931,0.005376029486099369,0.00991848610574199,0.02167702851537881,0.007037208728130561,0.018659978618547155,0.020444956077668847,0.0069924882499308285,0.01626982833373687
0.0572586,0.005430016064613037,0.009925056838518232,0.021737141359774007,0.0070343193701936455,0.018759252548570957,0.02048905825706637,0.007032999401620796,0.016350803082231826
0.0577241,0.005483929333971522,0.009930466968603096,0.02179823946189139,0.007031129801069364,0.018857835479158144,0.020531114792352957,0.0070732540580002974,0.01643073855442823
0.0581897,0.005537776030947465,0.009934715142841536,0.021860331839451828,0.007027648798255907,0.018955733074047392,0.02057113355713127,0.0071132642208216815,0.01650962505870904
0.0586552,0.00559156287832646,0.009937800276878456,0.02192342721031592,0.007023885160349984,0.019052951135392255,0.02060912283346917,0.007153042045910585,0.016587452949824288
0.0591207,0.005645296580945171,0.009939721556168945,0.021987533986444534,0.0070198477035058274,0.01914949559770771,0.020645091309629573,0.0071925998395615314,0.016664212630224755
0.0595862,0.005698983821716194,0.009940478436908859,0.022052660267966526,0.007015545257915627,0.019245372521704246,0.020679048077723607,0.007231950054882538,0.016739894551452344
0.0600517,0.005752631257641327,0.009940070646885029,0.02211881383735694,0.0070109866643127796,0.019340588088012853,0.02071100263128627,0.007271105288089633,0.01681448921558737
0.0605172,0.0058062455158150615,0.009938498186244238,0.022186002153728887,0.007006180770499298,0.0194351485908043,0.02074096486277383,0.00731007827475224,0.016887987176753112
0.0609828,0.0058598331894201845,0.009935761328180104,0.022254232347242175,0.007001136427898642,0.01952906043130664,0.020768945060982282,0.0073488818859904345,0.01696037904267783
0.0614483,0.005913400833717504,0.009931860619536898,0.02232351121363145,0.006995862488135178,0.01962233011122483,0.020794953908386118,0.007387529124625202,0.01703165547631445
0.0619138,0.00596695496203189,0.009926796881329277,0.02239384520885665,0.006990367799641438,0.019714964226066813,0.020819002478396784,0.007426033121283009,0.01710180719751813
0.0623793,0.006020502041736951,0.009920571209176887,0.022465240443878147,0.006984661204294311,0.019806969458380595,0.020841102232540192,0.007464407130456158,0.017170824984781903
0.0628448,0.006074048490240859,0.009913184973652714,0.022537702679558916,0.006978751534081268,0.01989835257090717,0.02086126501755281,0.007502664526520532,0.017238699677030487
0.0633103,0.006127600670975949,0.009904639820544028,0.02261123732169601,0.006972647607797711,0.019989120399654784,0.020879503062395836,0.007540818799712406,0.017305422175472478
0.0637759,0.0061811648893948645,0.009894937671024756,0.022685849416183377,0.006966358227776545,0.020079279846900278,0.02089582897518706,0.007578883552066099,0.01737098344551108
0.0642414,0.006234747388976052,0.00988408072173813,0.022761543644308213,0.0069598921766510545,0.02016883787412356,0.020910255740049996,0.007616872493314279,0.017435374518713576
0.0647069,0.0062883543472415085,0.00987207144478855,0.02283832431818283,0.0069532582141522085,0.02025780149488139,0.02092279671387974,0.007654799436752792,0.01749858649483967
0.0651724,0.0063419918717896855,0.009858912587641704,0.022916195376314032,0.006946465073941492,0.020346177767626566,0.020933465623025147,0.007692678295071927,0.017560610543928684
0.0656379,0.0063956659963464325,0.009844607172932082,0.022995160379312,0.006939521460480359,0.020433973788478728,0.020942276559886886,0.007730523076156023,0.017621437908445687
0.0661034,0.006449382676836858,0.009829158498177185,0.02307522250574047,0.00693243604593738,0.020521196683953073,0.020949243979431018,0.007768347878853369,0.017681059905486487
0.066569,0.006503147787480925,0.009812570135397904,0.02315638454811003,0.006925217467134121,0.020607853603653376,0.020954382695617668,0.007806166888718316,0.017739467929041394
0.0670345,0.006556967116915538,0.009794845930644709,0.023238648909016234,0.006917874322530801,0.02069395171293588,0.020957707877744536,0.00784399437372757,0.017796653452317533
0.0675,0.006610846364345861,0.009775990003429482,0.023322017597424267,0.006910415169252695,0.020779498185550662,0.020959235046705035,0.007881844679972582,0.01785260803011947
0.0679655,0.006664791135728512,0.0097560067460631,0.023406492225101994,0.006902848520158288,0.020864500196267257,0.020958980071161065,0.00791973222732997,0.017907323301287758
0.068431,0.00671880693998928,0.009734900822899002,0.0234920740032031,0.006895182840950112,0.020948964913491276,0.020956959163630638,0.00795767150511185,0.017960790991195047
0.0688966,0.006772899185277919,0.009712677169483286,0.023578763739002303,0.0068874265473291875,0.021032899491878868,0.02095318887649066,0.007995677067697968,0.018013002914299244
0.0693621,0.006827073175262542,0.009689340991611938,0.02366656183278435,0.006879588002193975,0.021116311064955828,0.020947686097895147,0.00803376353015152,0.01806395097675332
0.0698276,0.006881334105466086,0.009664897764296021,0.02375546827488861,0.006871675512884682,0.021199206737748166,0.02094046804760915,0.008071945563820513,0.018113627179071293
0.0702931,0.006935687059647259,0.009639353230635733,0.023845482642911076,0.006863697328473733,0.021281593579430904,0.020931552272758384,0.008110237891926579,0.018162023618850005
0.0707586,0.006990137006228358,0.009612713400604243,0.023936604099065287,0.0068556616371032,0.02136347861600176,0.020920956643494616,0.00814865528514305,0.018209132493546224
0.0712241,0.007044688794772293,0.009584984549742317,0.02402883138770374,0.0068475765633699785,0.02144486882298636,0.020908699348576566,0.008187212557164139,0.018254946103308637
0.0716897,0.0070993471525110825,0.009556173217764667,0.024122162833001132,0.006839450165759477,0.02152577111818132,0.02089479889086605,0.008225924560266997,0.018299456853864186
0.0721552,0.0071541166809280625,0.009526286207078951,0.02421659633680066,0.006831290434128573,0.021606192354441684,0.020879274082738982,0.008264806180868334,0.018342657259458172
0.0726207,0.007209001852395953,0.009495330581218448,0.024312129376624452,0.0068231052872386126,0.02168613931251883,0.020862144041410808,0.008303872335077305,0.01838453994584749
0.0730862,0.007264007006872889,0.009463313663189398,0.024408759003849118,0.006814902570339207,0.02176561869395521,0.02084342818417593,0.008343137964246303,0.018425097653346347
0.0735517,0.00731913634865846,0.009430243033734163,0.02450648184204725,0.006806690052803616,0.02184463711404203,0.02082314622356064,0.008382618030521287,0.0184643232399237
0.0740172,0.007374393943211743,0.009396126529511476,0.024605294085495694,0.006798475425816507,0.021923201094846096,0.02080131816238913,0.00842232751239324,0.01850220968435165
0.0744828,0.0074297837140332385,0.009360972241195177,0.024705191497851296,0.006790266300114887,0.022001317058311883,0.02077796428876219,0.008462281400252365,0.018538750089404026
0.0749483,0.007485309439612605,0.009324788511493003,0.02480616941099497,0.006782070203783028,0.022078991319444755,0.020753105170948274,0.008502494691946588,0.018573937685104253
0.0754138,0.007540974750443943,0.009287583933087219,0.0249082227240447,0.006773894580102198,0.022156230079581205,0.02072676165218669,0.008542982388345926,0.01860776583202149
0.0758793,0.0075967831261104166,0.009249367346499057,0.025011345902538257,0.006765746785455971,0.022233039419751882,0.0206989548454027,0.008583759488914216,0.01864022802461398
0.0763448,0.007652737892439855,0.009210147837879117,0.025115532977786143,0.006757634087291879,0.022309425294142992,0.020669706127834413,0.008624840987289679,0.018671317894618383
0.0768103,0.00770884221873297,0.009169934736726101,0.02522077754639522,0.006749563662140134,0.022385393523661486,0.02063903713557117,0.008666241866875696,0.0187010292144839
0.0772759,0.007765099115065729,0.009128737613536338,0.02532707276996342,0.00674154259369008,0.022460949789609268,0.020606969758003246,0.008707977096443158,0.01872935590084972
0.0777414,0.007821511429667388,0.00908656627738669,0.02543441137494563,0.006733577870925009,0.022536099627471575,0.020573526132182628,0.008750061625745653,0.018756292018064575
0.0782069,0.007878081846375593,0.009043430773453496,0.02554278565269085,0.006725676386315881,0.022610848420824434,0.020538728637094883,0.008792510381148711,0.018781831781747093
0.0786724,0.007934812882169925,0.00899934138047015,0.025652187459650432,0.006717844934074491,0.02268520139536592,0.02050259988784253,0.008835338261274245,0.018805969562385796
0.0791379,0.007991706884785217,0.008954308608126032,0.025762608217757197,0.006710090208466521,0.02275916361307582,0.020465162729740846,0.008878560132661289,0.018828699888977514
0.0796034,0.008048766030405876,0.008908343194409378,0.02587403891497498,0.006702418802184884,0.022832739966508135,0.02042644023232752,0.008922190825444078,0.018850017452703056
0.080069,0.008105992321442438,0.008861456102896704,0.0259864701060181,0.006694837204783757,0.022905935173220534,0.02038645568328786,0.00896624512904849,0.018869917110638908
0.0805345,0.008163387584391491,0.008813658519991323,0.026099891913240032,0.006687351801173602,0.022978753770344938,0.020345232582297715,0.009010737787907811,0.01888839388950375
0.081,0.008220953467780082,0.008764961852113501,0.02621429402769032,0.0066799688701774645,0.023051200109302963,0.020302794634786327,0.00905568349719877,0.018905442989438564
0.0814655,0.008278691440195624,0.00871537772284469,0.02632966571033879,0.0066726945831488155,0.023123278350670094,0.020259165745621883,0.009101096898598721,0.01892105978781919
0.081931,0.008336602788402345,0.008664917970028293,0.0264459957934657,0.006665535002651153,0.02319499245919219,0.020214370012722756,0.009146992576064801,0.01893523984310009
0.0823966,0.008394688615545235,0.008613594642829332,0.02656327268221635,0.006658496081199572,0.02326634619895779,0.020168431720597863,0.009193385051635819,0.018947978898688288
0.0828621,0.008452949839442402,0.008561419998755338,0.02668148435631855,0.0066515836600644866,0.02333734312872972,0.020121375333819677,0.009240288781257551,0.018959272886846276
0.0833276,0.008511387190966746,0.008508406500640721,0.02680061837196119,0.006644803468137682,0.023407986597439086,0.02007322549043375,0.009287718150632125,0.018969117932622816
0.0837931,0.008570001212517773,0.008454566813596803,0.02692066186383182,0.006638161120860886,0.02347827973984483,0.020024006995308815,0.009335687471092053,0.018977510357810354
0.0842586,0.008628792256584382,0.00839991380192959,0.02704160154731118,0.0066316621192170295,0.023548225472361788,0.01997374481343167,0.009384210975499454,0.018984446684927755
0.0847241,0.008687760484399383,0.008344460526027353,0.027163423720822248,0.006625311848784378,0.02361782648905999,0.01992246406315119,0.009433302814170982,0.018989923641226862
0.0851897,0.008746905864686502,0.008288220239219948,0.02728611426833116,0.0066191155788537116,0.023687085257837786,0.019870190009376034,0.009482977050828918,0.018993938162721328
0.0856552,0.00880622817250062,0.008231206384611818,0.027409658661997145,0.006613078461608741,0.023756004016771297,0.019816948056730677,0.009533247658578868,0.018996487398236034
0.0861207,0.008865726988161921,0.008173432591890538,0.027534041964968437,0.0066072055313699555,0.02382458477064238,0.01976276374267444,0.009584128515914432,0.018997568713475386
0.0865862,0.00892540169628458,0.008114912674112712,0.027659248834320825,0.006601501703902092,0.02389282928764737,0.019707662730588372,0.009635633402749194,0.018997179695108606
0.0870517,0.00898525148490058,0.008055660624468962,0.027785263524135403,0.006595971775785407,0.023960739096288375,0.019651670802834774,0.009687775996476335,0.0189953181548701
0.0875172,0.009045275344679157,0.00799569061302974,0.027912069888711807,0.006590620423850898,0.024028315482449,0.01959481385379433,0.009740569868056142,0.018991982133672765
0.0879828,0.009105472068242339,0.007935016983473635,0.02803965138591318,0.006585452204679604,0.02409555948665602,0.01953711788288589,0.009794028478131689,0.018987169905732074
0.0884483,0.009165840249576925,0.007873654249799848,0.028167991080639065,0.0065804715541660464,0.0241624719015284,0.01947860898757398,0.00984816517317289,0.018980879982698685
0.0889138,0.009226378283543245,0.00781161709302649,0.028297071648422437,0.006575682787145796,0.024229053269414828,0.019419313356369095,0.009902993181649139,0.018973111117797196
0.0893793,0.009287084365480886,0.007748920357876361,0.02842687537914726,0.006571090097087139,0.024295303880220838,0.019359257261825708,0.009958525610230655,0.01896386230996853
0.0898448,0.009347956490911602,0.007685579049451862,0.0285573841808834,0.006566697555846738,0.024361223769426232,0.019298467053542837,0.010014775440018626,0.01895313280801343
0.0903103,0.00940899245533944,0.0076216083299006894,0.028688579583835774,0.006562509113489137,0.02442681271629361,0.019236969151171773,0.010071755522804185,0.018940922114734325
0.0907759,0.009470189854148136,0.0075570235150739275,0.02882044274440505,0.006558528598169894,0.024492070242268377,0.01917479003743557,0.010129478577356221,0.018927229991072683
0.0912414,0.009531546082595708,0.0074918400711781385,0.0289529544493574,0.006554759716082097,0.0245569956095706,0.01911195625116461,0.010187957185737995,0.01891205646023887
0.0917069,0.00959305833590607,0.007426073611423005,0.029086095120100835,0.0065512060514659205,0.02462158781997879,0.019048494380352544,0.010247203789652527,0.01889540181183135
0.0921724,0.009654723609457473,0.007359739892666035,0.02921984481706573,0.0065478710666808946,0.024685845613805563,0.018984431055236724,0.010307230686816693,0.01887726660594184
0.0926379,0.009716538699067457,0.007292854812055792,0.02935418324418708,0.006544758102340441,0.02474976746906504,0.01891979294140714,0.010368050027364012,0.018857651677243025
0.0931034,0.009778500201373918,0.007225434403675078,0.029489089753486016,0.006541870377508231,0.024813351600831427,0.018854606732947757,0.010429673810276135,0.018836558139055163
0.093569,0.009840604514311823,0.007157494835185455,0.0296245433497482,0.00653921098995586,0.024876595960788343,0.01878889914561396,0.010492113879842984,0.018813987387387772
0.0940345,0.009902847837685039,0.007089052404474452,0.029760522695296887,0.00653678291648129,0.024939498236968026,0.018722696910049803,0.010555381922151622,0.01878994110495254
0.0945,0.009965226173832654,0.00702012353630674,0.02989700611485886,0.006534589013287481,0.02500205585367953,0.018656026765048624,0.010619489461603855,0.018764421265143317
0.0949655,0.010027735328389136,0.006950724778980501,0.03003397160052135,0.006532632016420588,0.025064265971624845,0.018588915450860426,0.01068444785746262,0.01873743013597897
0.095431,0.01009037091113754,0.006880872800990186,0.030171396816778575,0.006530914542267132,0.025126125488201718,0.018521389702549407,0.01075026830042714,0.018708970284004735
0.0958966,0.010153128336954942,0.006810584387696778,0.03030925910566636,0.006529439088109541,0.0251876310379916,0.01845347624340478,0.010816961809236787,0.018679044578147494
0.0963621,0.010216002826849244,0.00673987643800661,0.030447535491983462,0.006528208032739474,0.025248778993431305,0.018385201778408057,0.0108845392273035,0.0186476561935203
0.0968276,0.010278989409086423,0.006668765961059765,0.030586202688598192,0.006527223637128367,0.02530956546566647,0.01831659298775982,0.010953011219372585,0.018614808615171254
0.0972931,0.010342082920407288,0.006597270072929002,0.030725237101838977,0.00652648804515465,0.02536998630558486,0.018247676520468936,0.011022388268211652,0.018580505641771782
0.0977586,0.010405278007332703,0.006525405993330108,0.030864614836967844,0.006526003284387099,0.02543003710502744,0.01817847898800698,0.011092680671327551,0.01854475138923905
0.0982241,0.010468569127556282,0.0064531910423445095,0.03100431170373582,0.006525771266923781,0.025489713198174967,0.01810902695803073,0.011163898537711181,0.018507550294287238
0.0986897,0.010531950551423407,0.00638064263715493,0.031144303222019536,0.006525793790286043,0.025549009663107775,0.018039346948175314,0.011236051784610087,0.018468907117902167
0.0991552,0.010595416363495515,0.006307778288794831,0.03128456462753841,0.006526072538366953,0.025607921323536283,0.01796946541992058,0.011309150134328812,0.01842882694873364
0.0996207,0.010658960464198505,0.006234615598912289,0.031425070877651874,0.0065266090824336025,0.025666442750699583,0.01789940877253312,0.011383203111056938,0.018387315206399732
0.1000862,0.010722576571554163,0.006161172256548947,0.031565796657236404,0.00652740488218262,0.025724568265429418,0.017829203337086236,0.011458220037724707,0.01834437764469721
0.1005517,0.010786258222993506,0.006087466034934612,0.03170671638464205,0.006528461286848252,0.025782291940376765,0.017758875370560145,0.011534210032886115,0.018300020354711996
0.1010172,0.010849998777250834,0.006013514788298035,0.03184780421772822,0.0065297795363622865,0.025839607602398,0.017688451050024402,0.011611182007629391,0.018254249767823638
0.1014828,0.01091379141633732,0.005939336448694366,0.031989034059978605,0.006531360762565051,0.025896508835097646,0.017617956466904627,0.011689144662514828,0.018207072658597584
0.1019483,0.010977629147592866,0.005864949022849765,0.0321303795666951,0.0065332059904666985,0.0259529889815246,0.017547417621335416,0.011768106484540068,0.018158496147559072
0.1024138,0.011041504805814919,0.005790370589023606,0.03227181415127074,0.006535316139557919,0.02600904114701863,0.017476860416601278,0.011848075744133008,0.018108527703842386
0.1028793,0.011105411055462828,0.005715619293888704,0.03241331099154181,0.006537692025169167,0.026064658202204268,0.017406310653667354,0.01192906049217256,0.018057175147709444
0.1033448,0.011169340392936293,0.005640713349429937,0.03255484303621909,0.006540334359877463,0.026119832786129272,0.017335794025801533,0.012011068557037548,0.018004446652931945
0.1038103,0.0112332851489264,0.005565671029861642,0.032696383011398295,0.0065432437549597725,0.02617455730954493,0.017265336113289495,0.012094107541683908,0.017950350749031604
0.1042759,0.011297237490837757,0.005490510668564113,0.0328379034271493,0.006546420721891936,0.02622882395832576,0.017194962378244125,0.012178184820750395,0.017894896323373582
0.1047414,0.011361189425280215,0.005415250655039508,0.03297937658418372,0.006549865673892051,0.026282624697026132,0.017124698159510596,0.0122633075376929,0.017838092623108846
0.1052069,0.01142513280062867,0.005339909431887435,0.03312077458060012,0.006553578927507239,0.026335951272571427,0.017054568667668413,0.01234948260194737,0.017779949256962087
0.1056724,0.011489059309649451,0.005264505491800454,0.03326206931870589,0.006557560704242704,0.026388795218081545,0.01698459898013157,0.01243671668612131,0.017720476196862376
0.1061379,0.01155296049219171,0.005189057374579673,0.03340323251191462,0.006561811132232019,0.026441147856824544,0.016914814036347942,0.012525016223213762,0.017659683779414428
0.1066034,0.011616827737942285,0.0051135836641705975,0.03354423569171754,0.006566330247947609,0.026493000306298066,0.016845238633098867,0.01261438740386368,0.017597582707208986
0.107069,0.011680652289242404,0.005038102985719324,0.03368505021472749,0.006571117997950369,0.026544343482436256,0.016775897419899946,0.012704836173626555,0.01753418404997127
0.1075345,0.011744425243964633,0.0049626340026491704,0.03382564726979363,0.006576174240677389,0.026595168103939668,0.01670681489450401,0.012796368230279334,0.017469499245547
0.108,0.011808137558448444,0.004887195413757751,0.03396599788518527,0.006581498748266745,0.02664546469672599,0.016638015398507094,0.01288898902115362,0.01740354010072565
0.1084655,0.01187178005049281,0.004811805950334502,0.0341060729358428,0.006587091208418258,0.026695223598499292,0.016569523113058267,0.012982703740497198,0.017336318791900694
0.108931,0.011935343402404259,0.004736484373298626,0.034245843150694365,0.006592951226289126,0.02674443496343591,0.016501362054674024,0.013077517326863942,0.017267847865566493
0.1093966,0.011998818164098679,0.004661249470357351,0.034385279120037006,0.006599078326423343,0.0267930887669851,0.016433556071157856,0.013173434460532185,0.01719814023865141
0.1098621,0.012062194756255251,0.004586120053184387,0.034524351302981725,0.006605471954713789,0.026841174810783013,0.01636612883762553,0.013270459560951619,0.017127209198686745
0.1103276,0.012125463473520713,0.004511114954618428,0.03466303003496253,0.006612131480395928,0.026888682727678297,0.01629910385263649,0.013368596784219002,0.01705506840381095
0.1107931,0.012188614487762107,0.004436253025881472,0.03480128553531006,0.0066190561980720665,0.026935601986867785,0.016232504434431735,0.013467850020582954,0.01698173188260838
0.1112586,0.012251637851366093,0.004361553133816745,0.034939087914890796,0.006626245329765163,0.026981921899140605,0.01616635371727823,0.013568222891978246,0.016907214033781943
0.1117241,0.012314523500582824,0.004287034158145973,0.035076407183812996,0.006633698027001158,0.027027631622228838,0.016100674647919963,0.013669718749590125,0.016831529625658828
0.1121897,0.012377261258912335,0.004212714988745724,0.03521321325920047,0.006641413372918753,0.027072720166262845,0.016035489982135463,0.013772340671449196,0.01675469379552853
0.1126552,0.012439840840531426,0.004138614522942537,0.035349475973035026,0.006649390384405601,0.027117176399329174,0.015970822281401623,0.013876091460057647,0.016676722048812355
0.1131207,0.012502251853759017,0.004064751662826535,0.03548516508006841,0.006657628014259803,0.027160989053128838,0.015906693909663466,0.013980973640047674,0.016597630258063566
0.1135862,0.012564483804557974,0.003991145312583203,0.03562025026580384,0.006666125153375611,0.027204146728733638,0.015843127030209514,0.014086989455873186,0.01651743466179729
0.1140517,0.01262652610007154,0.003917814375842988,0.03575470115454749,0.006674880632952214,0.027246637902438,0.015780143602652372,0.014194140869536052,0.01643615186314935
0.1145172,0.012688368052192424,0.0038447777530483513,0.03588848731752955,0.006683893226724479,0.027288450931703755,0.015717765380014088,0.014302429558348156,0.016353798828363107
0.1149828,0.012749998881162657,0.003772054338837872,0.036021578281094625,0.0066931616532144534,0.027329574061195107,0.01565601390591596,0.014411856912730572,0.016270392885103527
0.1154483,0.01281140771920233,0.003699663019446998,0.03615394353496086,0.006702684578002418,0.027369995428901138,0.01559491051187242,0.014522424034051122,0.016185951720597898
0.1159138,0.012872583614165153,0.003627622670124999,0.03628555254054677,0.006712460616016218,0.027409703072342965,0.015534476314688619,0.014634131732501518,0.016100493379602895
0.1163793,0.012933515533218755,0.003555952152567668,0.03641637473936476,0.00672248833383757,0.02744868493486281,0.015474732213961326,0.014746980525015163,0.016014036262198092
0.1168448,0.012994192366547561,0.003484670312365304,0.03654637956147999,0.00673276625202397,0.027486928871992167,0.015415698889682678,0.014860970633226615,0.01592659912140641
0.1173103,0.01305460293107591,0.0034137959764655003,0.03667553643403316,0.006743292847444794,0.027524422657896192,0.01535739679994628,0.01497610198147363,0.015838201060642328
0.1177759,0.01311473597420908,0.003343347950650245,0.03680381478982548,0.0067540665556301005,0.027561153991891376,0.015299846178755043,0.01509237419484261,0.015748861530989113
0.1182414,0.013174580177589754,0.0032733450170268135,0.036931184075964296,0.006765085773130626,0.027597110505033436,0.015243067033930158,0.015209786597258163,0.015658600328306783
0.1187069,0.013234124160867312,0.0032038059315319337,0.03705761376256733,0.0067763488598873685,0.027632279766772412,0.015187079145120606,0.015328338209617449,0.015567437590173022
0.1191724,0.013293356485477414,0.0031347494214486763,0.03718307335152381,0.006787854141609152,0.02766664929167178,0.015131902061912606,0.015448027747969842,0.015475393792659699
0.1196379,0.013352265658429254,0.0030661941829355057,0.037307532385310496,0.006799599912156495,0.027700206546188277,0.015077555102038542,0.015568853621742382,0.015382489746947848
0.1201034,0.013410840136098091,0.002998158878566918,0.0374309604558607,0.0068115844359300645,0.027732938955509108,0.015024057349684941,0.015690813932011476,0.01528874659578405
0.120569,0.013469068328020882,0.0029306621348850937,0.03755332721348418,0.006823805950261961,0.027764833910442887,0.014971427653899189,0.01581390646982122,0.015194185809781088
0.1210345,0.01352693860069326,0.002863722539961957,0.037674602375836065,0.006836262667808084,0.027795878774360714,0.014919684627094722,0.015938128714548753,0.015098829183565723
0.1215,0.013584439281366482,0.0027973586409710486,0.037794755736932605,0.006848952778939744,0.02782606089018372,0.014868846643654506,0.016063477832317156,0.015002698831776363
0.1219655,0.01364155866184333,0.002731588941768594,0.03791375717621139,0.006861874454132711,0.027855367587413513,0.014818931838632554,0.01618995067445643,0.014905817184913477
0.122431,0.013698285002272187,0.0026664319004831355,0.03803157666763403,0.00687502584635182,0.027883786189202044,0.01476995810655325,0.016317543776013348,0.014808206985045551
0.1228966,0.013754606534938662,0.0026019059271130897,0.038148184288828615,0.006888405093429223,0.02791130401945761,0.01472194310030828,0.016446253354311026,0.014709891281373351
0.1233621,0.01381051146805419,0.00253802938113159,0.038263550230269526,0.006902010320434375,0.027937908409983787,0.01467490423015099,0.01657607530755914,0.014610893425655237
0.1238276,0.01386598798954114,0.0024748205690979753,0.03837764480449186,0.006915839642033787,0.027963586707648123,0.014628858662788041,0.01670700521351601,0.014511237067496238
0.1242931,0.0139210242708141,0.0024122977422752667,0.038490438455337624,0.006929891164838603,0.027988326281577755,0.014583823320568323,0.01683903832820395,0.014410946149503522
0.1247586,0.013975608470557111,0.0023504790942529873,0.0386019017672308,0.006944162989738094,0.02801211453037908,0.014539814880768958,0.01697216958467957,0.01431004490231085
0.1252241,0.014029728738496713,0.0022893827585746727,0.038712005474478416,0.006958653214217191,0.028034938889378868,0.014496849774978348,0.01710639359186088,0.01420855783947456
0.1256897,0.014083373219170716,0.0022290268063694142,0.038820720470594705,0.0069733599346563065,0.028056786837884345,0.014454944188576083,0.01724170463341322,0.014106509752243642
0.1261552,0.014136530055692648,0.00216942924398678,0.038928017817645655,0.00698828124861173,0.028077645906460058,0.014414114060309473,0.01737809666669607,0.014003925704206546
0.1266207,0.014189187393511727,0.002110608010634456,0.03903386875561127,0.007003415257075066,0.028097503684219635,0.01437437508196649,0.017515563321772853,0.013900831025817316
0.1270862,0.014241333384168242,0.002052580976017965,0.03913824471176296,0.007018760066710191,0.02811634782613112,0.014335742698144763,0.017654097900486113,0.013797251308803837
0.1275517,0.014292956189044248,0.00199536593798182,0.03924111731005358,0.007034313792066336,0.028134166060334767,0.014298232106116224,0.017793693375600543,0.01369321240046091
0.1280172,0.014344043983109405,0.0019389806201514804,0.03934245838051748,0.007050074557765877,0.028150946195472582,0.014261858255786958,0.017934342390016827,0.01358874039783113
0.1284828,0.01439458495866185,0.0018834426695754874,0.039442239968677864,0.007066040500665449,0.028166676128028968,0.014226635849751718,0.01807603725605944,0.013483861641776453
0.1289483,0.014444567329063858,0.00182876965436717,0.0395404343449584,0.007082209771988964,0.02818134384968166,0.014192579343442552,0.01821876995484185,0.013378602710943497
0.1294138,0.014493979332472161,0.0017749790613452916,0.03963701401409598,0.00709858053943111,0.028194937454662176,0.014159702945370858,0.01836253213571262,0.013272990415625564
0.1298793,0.014542809235562745,0.001722088293673011,0.039731951724551066,0.007115150989229918,0.02820744514712493,0.014128020617462168,0.0185073151157861,0.01316705179152447
0.1303448,0.014591045337249944,0.0016701146684945168,0.03982522047791209,0.007131919328207054,0.02821885524852429,0.01409754607548291,0.018653109879561407,0.013060814093415364
0.1308103,0.01463867597239973,0.0016190754145686815,0.039916793538289995,0.0071488837857745435,0.028229156204999023,0.014068292789558259,0.018799907078633427,0.012954304788717893
0.1312759,0.014685689515537,0.0015689876698990774,0.04000664444169916,0.007166042615906781,0.028238336594764,0.014040273984780135,0.018947697031499563,0.012847551550977122
0.1317414,0.014732074384546599,0.0015198684793596869,0.04009474700542102,0.007183394099076783,0.028246385135509026,0.01401350264190433,0.019096469723465962,0.012740582253257679
0.1322069,0.0147778190443678,0.0014717347923156327,0.04018107533734678,0.00720093654415577,0.028253290691804905,0.013987991498135594,0.019246214806656673,0.01263342496145448
0.1326724,0.014822912010681857,0.001424603460238243,0.04026560384529584,0.00721866829027528,0.028259042282516755,0.013963753047999416,0.019396921600129166,0.01252610792752346
0.1331379,0.014867341853592161,0.0013784912343137628,0.04034830724630685,0.0072365877086511205,0.028263629088224378,0.013940799544299163,0.019548579090099567,0.01241865958263565
0.1336034,0.014911097201296413,0.0013334147630450109,0.040429160575898404,0.00725469320436856,0.028267040458649383,0.013919142999157037,0.019701175930280715,0.012311108530257995
0.134069,0.014954166743750196,0.0012893905898452825,0.04050813919729645,0.007272983218128198,0.028269265920088726,0.013898795185137286,0.019854700442336292,0.012203483539164292
0.1345345,0.014996539236321224,0.0012464351506238133,0.04058521881062566,0.007291456227952072,0.02827029518285419,0.013879767636449967,0.020009140616454073,0.01209581353637959
0.135,0.015038203503433446,0.0012045647713621202,0.040660375462061624,0.0073101107508495335,0.02827011814871744,0.013862071650233477,0.020164484112041386,0.011988127600061346
0.1354655,0.015079148442200214,0.0011637956656805643,0.04073358555294069,0.007328945344442459,0.02826872491836016,0.013845718287913922,0.020320718258545756,0.011880454952320584
0.135931,0.015119363026045649,0.0011241439323944828,0.04080482584882415,0.007347958608549351,0.02826610579882901,0.01383071837663935,0.02047783005640366,0.011772824951986229
0.1363966,0.015158836308313323,0.0010856255530592494,0.040874073488513046,0.007367149186727839,0.028262251310994854,0.013817082510786739,0.02063580617812016,0.011665267087315676
0.1368621,0.015197557425861437,0.0010482563895036297,0.040941305993009755,0.00738651576777507,0.028257152197015786,0.013804821053539536,0.020794632969482106,0.011557810968654597
0.1373276,0.015235515602643588,0.0010120521813508105,0.041006501274422374,0.007406057087185438,0.028250799427803456,0.013793944138533427,0.020954296450907402,0.011450486321048888
0.1377931,0.015272700153274234,0.0009770285435265083,0.041069637644807325,0.007425771928565035,0.02824318421049192,0.013784461671567869,0.02111478231893277,0.011343322976811579
0.1382586,0.015309100486577808,0.0009432009637535897,0.041130693824945726,0.007445659125002192,0.02823429799590826,0.013776383332380859,0.021276075947842234,0.011236350868047428
0.1387241,0.015344706109120379,0.0009105848000326732,0.04118964895304863,0.007465717560393471,0.02822413248604395,0.013769718576484218,0.021438162391438424,0.011129600019137873
0.1391897,0.01537950662872266,0.0008791952781082201,0.041246482593385966,0.0074859461707244375,0.028212679641525854,0.013764476637056629,0.02160102638495866,0.01102310053918892
0.1396552,0.01541349175795318,0.0008490474889196434,0.041301174744834086,0.0075063439453045035,0.028199931689085612,0.01376066652689152,0.021764652347137516,0.010916882614444456
0.1401207,0.015446651317600325,0.0008201563860369958,0.0413537058493365,0.0075269099279551225,0.028185881129026067,0.013758297040396765,0.02192902438241745,0.010810976500667474
0.1405862,0.015478975240121987,0.0007925367830808187,0.041404056800272426,0.007547643218150558,0.028170520742683083,0.013757376755643144,0.02209412628330902,0.010705412515491631
0.1410517,0.015510453573071615,0.0007662033511257623,0.04145220895072792,0.007568542972110371,0.028153843599881073,0.01375791403645838,0.02225994153290186,0.010600221030745519
0.1415172,0.015541076482499397,0.0007411706160876282,0.04149814412166437,0.007589608403842738,0.028135843066380183,0.01375991703456354,0.02242645330752761,0.010495432464752066
0.1419828,0.01557083425632739,0.0007174529560935256,0.04154184460997933,0.007610838786137663,0.028116512811313,0.013763393691748609,0.022593644479575653,0.01039107727460548
0.1424483,0.015599717307697627,0.000695064598834892,0.04158329319645447,0.0076322334515090615,0.0280958468146084,0.013768351742083894,0.02276149762046238,0.0102871859484281
0.1429138,0.01562771617829234,0.000674019618903165,0.0416224731535855,0.007653791793084722,0.028073839374400042,0.013774798714163983,0.022929995003754693,0.01018378899760947
0.1433793,0.015654821541625653,0.0006543319351079453,0.041659368253288795,0.007675513265443081,0.028050485114416608,0.013782741933380872,0.023099118608448023,0.010080916949029852
0.1438448,0.015681024206306272,0.0006360153077775104,0.04169396277447913,0.007697397385395785,0.028025778991350954,0.013792188524222886,0.023268850122399157,0.009978600337270367
0.1443103,0.01570631511927067,0.0006190833360415665,0.04172624151051267,0.007719443732715014,0.027999716302204918,0.013803145412595936,0.023439170945913905,0.009876869696811858
0.1447759,0.015730685368986516,0.0006035494550961271,0.04175618977648952,0.007741651950804605,0.02797229269160657,0.013815619328163584,0.023610062195489518,0.009775755554224481
0.1452414,0.015754126188626177,0.000589426933450421,0.041783793416409476,0.00776402174731407,0.027943504159096282,0.013829616806702402,0.02378150470771155,0.009675288420349995
0.1457069,0.015776628959210455,0.0005767288701557315,0.04180903881017501,0.00778655289469466,0.02791334706637809,0.013845144192469063,0.023953479043304682,0.00957549878247862
0.1461724,0.01579818521272295,0.0005654681920160855,0.04183191288043484,0.0078092452306966495,0.02788181814453257,0.013862207640575571,0.024125965491336897,0.009476417096522303
0.1466379,0.0158187866351957,0.0005556576507807321,0.041852403099261616,0.007832098658807072,0.0278489145011876,0.013880813119369005,0.024298944073576252,0.009378073779186149
0.1471034,0.015838425069766886,0.0005473098203183863,0.041870497494656767,0.00785511314862704,0.027814633627643214,0.013900966412812134,0.024472394548999216,0.009280499200139687
0.147569,0.01585709251971151,0.0005404370937732561,0.041886184656875707,0.007878288736187797,0.027778973405946747,0.013922673122861164,0.024646296418449454,0.009183723674189627
0.1480345,0.01587478115144592,0.0005350516807029293,0.04189945374456607,0.007901625524204607,0.027741932115914573,0.01394593867183679,0.024820628929445674,0.009087777453455638
0.1485,0.015891483297507072,0.0005311656041982485,0.041910294490711666,0.007925123682267497,0.027703508442096514,0.013970768304784742,0.02499537108113703,0.008992690719550613
0.1489655,0.015907191459507218,0.000528790697985375,0.04191869720837445,0.007948783446967847,0.027663701480679027,0.013997167091821836,0.02517050162940438,0.008898493575766867
0.149431,0.015921898311064667,0.0005279386035103005,0.041924652796226695,0.007972605121959781,0.027622510746323166,0.014025139930463521,0.02534599909210543,0.008805216039269618
0.1498966,0.015935596700711176,0.0005286207670061404,0.04192815274386524,0.007996589077955231,0.027579936178933156,0.014054691547928908,0.025521841754461674,0.008712888033299091
0.1503621,0.01594827965477633,0.0005308484365436099,0.04192918913689943,0.008020735752651614,0.027535978150351508,0.014085826503419245,0.02569800767458487,0.008621539379382571
0.1508276,0.015959940380249227,0.0005346326590651483,0.04192775466180432,0.008045045650591073,0.027490637470976322,0.014118549190365879,0.02587447468914064,0.008531199789557766
0.1512931,0.0159705722676177,0.0005399842774032155,0.04192384261053046,0.00806951934295034,0.027443915396296436,0.014152863838643885,0.02605122041914661,0.008441898858608871
0.1517586,0.015980168893685198,0.000546913927283318,0.04191744688486197,0.008094157467260438,0.027395813633339802,0.014188774516747613,0.02622822227590233,0.008353666056316758
0.1522241,0.015988724024365422,0.0005554320343123508,0.041908562000514384,0.008118960727055563,0.027346334347030245,0.014226285133924564,0.026405457467048,0.008266530719724713
0.1526897,0.015996231617454712,0.0005655488109528531,0.04189718309096448,0.008143929891450612,0.027295480166447533,0.014265399442264,0.026582903002748872,0.008180522045421178
0.1531552,0.016002685825382112,0.0005772742534837827,0.04188330591100423,0.008169065794646897,0.027243254190985555,0.014306121038736727,0.026760535702001976,0.008095669081840912
0.1536207,0.0160080809979369,0.0005906181389484285,0.04186692684001143,0.0081943693353657,0.027189659996403166,0.014348453367182459,0.026938332199061506,0.008012000721585963
0.1540862,0.016012411684973315,0.0006055900220900802,0.041848042884929326,0.00821984147620945,0.02713470164076206,0.014392399720241103,0.02711626894997915,0.007929545693767748
0.1545517,0.016015672639092052,0.0006221992322760886,0.041826651682948225,0.008245483242950392,0.027078383670245922,0.014437963241224441,0.02729432223925541,0.007848332556371535
0.1550172,0.016017858818297974,0.0006404548704109541,0.04180275150388182,0.008271295723746767,0.027020711124854952,0.014485146925924508,0.027472468186597748,0.007768389688644536
0.1554828,0.016018965388633385,0.0006603658058390961,0.041776341252231744,0.008297280068286554,0.02696168954396965,0.01453395362435506,0.02765068275378122,0.007689745283508774
0.1559483,0.016018987726786043,0.0006819406732379694,0.04174742046893391,0.008323437486858825,0.026901324971777912,0.014584386042422402,0.027828941751607054,0.007612427339999856
0.1564138,0.016017921422671028,0.0007051878695022146,0.04171598933278058,0.008349769249352771,0.026839623962559317,0.014636446743521858,0.028007220846954586,0.007536463655732723
0.1568793,0.0160157622819854,0.0007301155506195527,0.041682048661512636,0.008376276684184386,0.026776593585820855,0.014690138150056055,0.02818549556992178,0.007461881819395459
0.1573448,0.016012506328734518,0.00075673162853916,0.04164559991257702,0.008402961177150845,0.026712241431278413,0.014745462544871133,0.028363741321049407,0.007388709203272126
0.1578103,0.016008149807728855,0.0007850437680332866,0.041606645183545114,0.008429824170212522,0.026646575613678537,0.01480242207260693,0.028541933378623853,0.00731697295579562
0.1582759,0.01600268918705002,0.000815059383552891,0.04156518721218883,0.008456867160202722,0.026579604777455083,0.014861018740957058,0.028720046906053443,0.007246699994131461
0.1587414,0.015996121160484645,0.0008467856360780783,0.0415212293762118,0.00848409169746526,0.026511338101215535,0.014921254421834855,0.028898056959312874,0.007177916996793451
0.1592069,0.015988442649924765,0.0008802294299641274,0.04147477569263387,0.008511499384420173,0.02644178530205182,0.014983130852441143,0.029075938494450386,0.00711065039629213
0.1596724,0.015979650807733177,0.0009153974097838905,0.04142583081682766,0.008539091874058088,0.026370956639670703,0.015046649636229804,0.029253666375152122,0.007044926371816992
0.1601379,0.015969743019072263,0.000952295957167352,0.04137440004120566,0.008566870868363888,0.02629886292033916,0.015111812243767274,0.029431215380358075,0.006980770841953542
0.1606034,0.015958716904194634,0.0009909311876391315,0.04132048929355678,0.008594838116670568,0.026225515500640305,0.015178620013482089,0.029608560211924023,0.006918209457436321
0.161069,0.015946570320693916,0.001031308947454721,0.041264105135030565,0.008622995413944295,0.02615092629103551,0.015247074152301098,0.029785675502323826,0.006857267593939213
0.1615345,0.015933301365713935,0.001073434810436255,0.04120525475776775,0.008651344599001888,0.02607510775922828,0.0153171757361693,0.029962535822386588,0.006797970344904457
0.162,0.015918908378114462,0.00111731407480861,0.04114394598217542,0.00867988755266199,0.02599807293332584,0.015388925710451053,0.030139115689063176,0.006740342514411895
0.1624655,0.015903389940591577,0.001162951760036632,0.04108018725384579,0.008708626195831367,0.02591983540479434,0.015462324890211111,0.030315389573216587,0.006684408610090059
0.162931,0.015886744881750695,0.0012103526036642987,0.04101398764011815,0.008737562487527781,0.025840409331204028,0.015537373960374586,0.030491331907430776,0.006630192836070722
0.1633966,0.015868972278130233,0.0012595210581566156,0.04094535682628487,0.008766698422840974,0.02575980943876112,0.015614073475765372,0.03066691709383275,0.006577719085988551
0.1638621,0.015850071456173852,0.0013104612877450706,0.04087430511144373,0.008796036030833333,0.02567805102462341,0.015692423861022743,0.03084211951192297,0.006527010936027515
0.1643276,0.015830041994149235,0.0013631771652774878,0.040800843404000434,0.008825577372381817,0.025595149958997105,0.015772425410395998,0.03101691352640916,0.006478091638015744
0.1647931,0.015808883724011333,0.001417672269073153,0.040724983216826736,0.008855324537962733,0.025511122687012357,0.01585407828741707,0.03119127349503862,0.00643098411257058
0.1652586,0.01578659673320796,0.0014739498797841188,0.040646736662080865,0.008885279645380922,0.025425986230375047,0.01593738252445108,0.031365173776424254,0.006385710942295628
0.1657241,0.015763181366425537,0.0015320129772636432,0.04056611644569825,0.00891544483744487,0.02533975818879216,0.016022338022124685,0.03153858873785942,0.0063422943650316465
0.1661897,0.015738638227272762,0.0015918642374427618,0.04048313586156109,0.008945822279589241,0.02525245674116819,0.016108944548632098,0.031711492763116626,0.00630075626716317
0.1666552,0.015712968179900033,0.001653506029216054,0.04039780878535592,0.008976414157446296,0.025164100646569803,0.016197201738918546,0.03188386026022497,0.006261118176982709
0.1671207,0.01568617235055241,0.0017169404113377164,0.04031014966812855,0.009007222674367588,0.025074709244956,0.016287109093740943,0.03205566566922095,0.006223401258114399
0.1675862,0.01565825212905399,0.0017821691293291248,0.040220173529545794,0.009038250048897366,0.024984302457670922,0.016378665978605423,0.03222688346986747,0.006187626302998922
0.1680517,0.01562920917022157,0.0018491936123991237,0.04012789595087315,0.009069498512199013,0.024892900787696508,0.01647187162258134,0.03239748818933567,0.006153813726441532
0.1685172,0.015599045395205569,0.0019180149703783523,0.040033333067677555,0.009100970305435963,0.02480052531966194,0.016566725116991286,0.03256745440984433,0.006121983559224983
0.1689828,0.01556776299275604,0.0019886339906689874,0.0399365015622643,0.009132667677108462,0.024707197719606954,0.01666322541397668,0.03273675677625175,0.006092155441789179
0.1694483,0.015535364420411653,0.002061051135211351,0.039837418655856945,0.009164592880347605,0.02461294023449606,0.016761371324938427,0.03290537000359497,0.006064348617979341
0.1699138,0.015501852405609392,0.002135266537468899,0.03973610210052933,0.009196748170168032,0.024517775691480757,0.01686116151885222,0.033073268884571655,0.0060385819288644805
0.1703793,0.015467229946712622,0.0022112799994331517,0.039632570170898454,0.009229135800680653,0.024421727496907117,0.01696259452045834,0.03324042829695991,0.006014873806627941
0.1708448,0.015431500313955201,0.0022890909886502005,0.039526841655587286,0.009261758022266687,0.024324819635066306,0.0170656687083262,0.03340682321097176,0.005993242268531795
0.1713103,0.015394667050299276,0.002368698635270439,0.03941893584846633,0.009294617078714276,0.024227076666685637,0.01717038231279429,0.033572428696536136,0.005973704910956878
0.1717759,0.015356733972204412,0.0024501017291232163,0.039308872539682786,0.009327715204318854,0.024128523727157958,0.017276733413786674,0.033737219930507385,0.005956278903520285
0.1722414,0.015317705170305822,0.0025332987168181285,0.03919667200648592,0.009361054620948382,0.024029186524507036,0.017384719938507667,0.033901172203796,0.005940980983272194
0.1727069,0.015277585009999447,0.0026182876988746825,0.03908235500385683,0.00939463753507453,0.02392909133708669,0.01749433965901666,0.03406426092841839,0.005927827448973895
0.1731724,0.01523637813193156,0.002705066426882083,0.03896594275495082,0.009428466134770852,0.023828265011011478,0.017605590189685404,0.03422646164446309,0.005916834155458918
0.1736379,0.01519408945239062,0.002793632300690916,0.0388474569413599,0.009462542586679022,0.023726734957316968,0.01771846898454024,0.03438775002697067,0.005908016508079164
0.1741034,0.015150724163598937,0.002883982365638504,0.03872691969320297,0.009496869032944263,0.02362452914884821,0.017832973334491856,0.03454810189272494,0.005901389457237931
0.174569,0.015106287733901746,0.0029761133098097146,0.03860435357905098,0.009531447588121108,0.023521676116875185,0.01794910036445552,0.03470749320695286,0.0058969674930117125
0.1750345,0.015060785907851416,0.003070021461335005,0.038479781595694124,0.009566280336050769,0.023418204947434615,0.018066847030364885,0.03486590008993107,0.005894764639862693
0.1755,0.015014224706184682,0.003165702785727455,0.03835322715775819,0.009601369326711524,0.023314145277397568,0.018186210116082922,0.035023298823496925,0.005894794451443826
0.1759655,0.014966610425691007,0.003263152883260548,0.038224714087177286,0.009636716573043614,0.023209527290262547,0.018307186230213813,0.035179665857462315,0.005897070005498487
0.176431,0.014917949638970458,0.003362366986388445,0.038094266602530014,0.009672324047750317,0.023104381711673814,0.018429771802819867,0.03533497781592852,0.0059016038988567
0.1768966,0.014868249194079622,0.003463339957210495,0.037961909308246604,0.009708193680076976,0.022998739804664978,0.01855396308204753,0.0354892115035003,0.005908408242529966
0.1773621,0.014817516214064233,0.003566066284981747,0.037827667183694284,0.00974432735256983,0.022892633364628212,0.018679756130666556,0.0356423439113972,0.005917494656906753
0.1778276,0.014765758096377498,0.00367054008367127,0.03769156557214845,0.009780726897816592,0.0227860947140098,0.01880714682252623,0.03579435222346011,0.005928874267050738
0.1782931,0.014712982512183417,0.0037767550895701184,0.037553630169657265,0.009817394095170745,0.022679156696732837,0.018936130838932582,0.03594521382205051,0.00594255769810389
0.1787586,0.014659197405544782,0.003884704658950848,0.03741388701380726,0.009854330667461502,0.02257185267234828,0.01906670366495033,0.03609490629383994,0.00595855507079648
0.1792241,0.014604410992495992,0.003994381765780544,0.03727236247239761,0.00989153827769139,0.02246421650991531,0.019198860585633304,0.03624340743548693,0.005976875997066105
0.1796897,0.01454863176000105,0.004105778999489391,0.03712908323203075,0.009929018525723449,0.022356282581612208,0.01933259668218694,0.03639069525919827,0.0059975295757878
0.1801552,0.01449186846479743,0.0042188885627969,0.0369840762866271,0.009966772944960012,0.022248085756079117,0.019467906828066508,0.03653674799817165,0.006020524388617284
0.1806207,0.014434130132126622,0.004333702269597975,0.03683736892587168,0.010004802999015128,0.02213966139149421,0.019604785685014493,0.03668154411191634,0.0060458684959494345
0.1810862,0.014375426054352434,0.0044502115429110554,0.03668898872360047,0.010043110078382631,0.02203104532838528,0.019743227699040692,0.03682506229144834,0.006073569432994047
0.1815517,0.01431576578946854,0.00456840741289067,0.03653896352613447,0.010081695497101901,0.02192227388217919,0.01988322709634854,0.03696728146435663,0.006103634205971001
0.1820172,0.01425515915949706,0.00468828051490676,0.036387321440569255,0.010120560489423345,0.02181338383549177,0.02002477787921127,0.03710818079973698,0.0061360692884269204
0.1824828,0.014193616248780266,0.004809821087693236,0.03623409082302788,0.010159706206475614,0.021704412430160917,0.020167873821801467,0.037247739712990384,0.0061708806176754725
0.1829483,0.014131147402167738,0.0049330189715682685,0.036079300266884703,0.010199133712936601,0.02159539735902567,0.020312508465977586,0.037385937870483124,0.006208073591363431
0.1834138,0.014067763223101427,0.00505786360672889,0.03592297859096781,0.010238843983710267,0.021486376757454132,0.020458675117031155,0.03752275519406633,0.006247653064164634
0.1838793,0.014003474571601003,0.005184344031622534,0.03576515482774736,0.010278837900611269,0.021377389194623234,0.020606366839398312,0.03765817186545268,0.006289623344603959
0.1843448,0.01393829256215199,0.005312448881398163,0.03560585821151715,0.010319116249059394,0.02126847366455347,0.020755576452339455,0.03779216833044822,0.0063339881920134134
0.1848103,0.013872228561499049,0.00544216638643968,0.035445118166576514,0.010359679714785701,0.021159669576902004,0.020906296525590874,0.03792472530303731,0.006380750813622395
0.1852759,0.013805294186346838,0.005573484370984299,0.03528296429541957,0.010400528880552217,0.02105101674751749,0.021058519374992358,0.03805582376931861,0.006429913861784147
0.1857414,0.013737501300970918,0.005706390251828542,0.03511942636693868,0.01044166422288706,0.02094255538876009,0.021212237058095097,0.03818544499129042,0.006481479431340374
0.1862069,0.013668862014741283,0.005840871037124521,0.03495453430464886,0.010483086108836753,0.020834326099590336,0.02136744136975435,0.03831357051048349,0.006535449057125977
0.1866724,0.01359938867956127,0.005976913325269125,0.03478831817493992,0.0105247947927376,0.020726369855430547,0.021524123837711684,0.03844018215143987,0.0065918237116158
0.1871379,0.01352909388722465,0.006114503303888691,0.03462080817536292,0.010566790413007935,0.020618727997802695,0.021682275718171686,0.03856526202503632,0.0066506038027152325
0.1876034,0.013457990466693852,0.0062536267489217015,0.03445203462295737,0.010609072988963172,0.020511442223746675,0.021841887991378255,0.03868879253165094,0.006711789171696492
0.188069,0.013386091481302228,0.006394269023802032,0.034282027942625734,0.01065164241765563,0.02040455457502305,0.022002951357195502,0.03881075636417155,0.006775379091282378
0.1885345,0.013313410225883213,0.0065364150787452086,0.034110818655561204,0.01069449847074114,0.020298107427104434,0.022165456230698335,0.03893113651084454,0.0068413722638792605
0.189,0.013239960223829174,0.006680049450140184,0.03393843736773488,0.010737640791374525,0.020192143477959938,0.02232939273777786,0.0390499162579625,0.006909766819961092
0.1894655,0.013165755224082651,0.006825156260049092,0.03376491475844798,0.010781068891135991,0.020086705736637105,0.02249475071076681,0.03916707919238942,0.0069805603166062154
0.189931,0.013090809198062627,0.00697171921581745,0.033590281568954716,0.01082478214699059,0.019981837511646092,0.02266151968409032,0.03928260920392205,0.007053749736188758
0.1903966,0.013015136336528397,0.007119721609797304,0.03341456859116149,0.010868779798282834,0.01987758239915075,0.022829688889947356,0.03939649048748659,0.007129331485226384
0.1908621,0.012938751046383493,0.007269146319185802,0.03323780665640781,0.01091306094376862,0.019773984270971347,0.02299924725402829,0.039508707545169656,0.007207301393386114
0.1913276,0.012861667947422033,0.007419975805981678,0.03306002662433443,0.01095762453868662,0.019671087262403582,0.023170183391274066,0.03961924518808281,0.007287654712649912
0.1917931,0.01278390186901981,0.007572192117062135,0.03288125937184407,0.011002469391871295,0.01956893575985842,0.023342485601682537,0.03972808853805999,0.0073703861166416855
0.1922586,0.012705467846772237,0.0077257768843826,0.032701535782160035,0.011047594162909622,0.019467574388327413,0.02351614186616751,0.03983522302918744,0.007455489700117275
0.1927241,0.012626381119081298,0.007880711325301826,0.03252088673398792,0.011092997359343819,0.019367047998677927,0.023691139842476373,0.0399406344091664,0.007542958978619007
0.1931897,0.012546657123693511,0.008036976243034802,0.03233934309078561,0.011138677333922264,0.019267401654782607,0.023867466861171985,0.0400443087405092,0.007632786888296313
0.1936552,0.012466311494190935,0.008194552027235923,0.03215693569014673,0.011184632281901015,0.019168680620487513,0.02404510992168475,0.04014623240157035,0.007724965785893898
0.1941207,0.012385360056437198,0.008353418654714844,0.03197369533330272,0.011230860238398416,0.01907093034642319,0.024224055688440726,0.04024639208741424,0.00781948744890886
0.1945862,0.01230381882498059,0.008513555690287415,0.031789652774748725,0.01127735907580544,0.018974196456662908,0.024404290487071517,0.040344774810521726,0.00791634307591816
0.1950517,0.012221703999416291,0.008674942287764066,0.03160483871199845,0.011324126501254438,0.018878524735232407,0.024585800300711714,0.040441367901337726,0.008015523287077738
0.1955172,0.012139031960709784,0.008837557191077983,0.03141928377547315,0.01137116005414902,0.018783961112475368,0.024768570766389594,0.040536159008662136,0.008117018124794527
0.1959828,0.012055819267483545,0.009001378735555387,0.03123301851852972,0.011418457103757928,0.018690551651278947,0.02495258717151672,0.04062913609988615,0.008220817054572584
0.1964483,0.011972082652269083,0.00916638484933015,0.0310460734076327,0.011466014846875691,0.018598342533163576,0.02513783445048191,0.04072028746107609,0.00832690896603445
0.1969138,0.011887839017726418,0.009332553054904925,0.030858478812674978,0.01151383030555296,0.01850738004424122,0.025324297181355097,0.040809601696906714,0.008435282174118826
0.1973793,0.011803105432833015,0.00949986047086092,0.03067026499745173,0.011561900324899337,0.018417710561046245,0.025511959582706314,0.04089706773044602,0.008545924420455583
0.1978448,0.011717899129044187,0.009668283813718342,0.030481462110291867,0.011610221570961591,0.018329380536243004,0.025700805510545086,0.04098267480279322,0.008658822874919054
0.1983103,0.011632237496426959,0.00983779939994949,0.030292100174851202,0.011658790528680019,0.018242436484214208,0.0258908184553853,0.04106641247257172,0.008773964137360486
0.1987759,0.011546138079769298,0.010008383148146395,0.030102209081071328,0.011707603499925705,0.018156924966534194,0.026081981539440673,0.041148270615279085,0.008891334239520515
0.1992414,0.011459618574666632,0.010180010581344847,0.029911818576308025,0.011756656601621313,0.01807289257733106,0.02627427751395585,0.041228239422495996,0.00901091864712242
0.1997069,0.011372696823587505,0.010352656829506562,0.02972095825663288,0.011805945763947981,0.017990385928541592,0.02646768875667791,0.04130630940095675,0.009132702262146887
0.2001724,0.011285390811920244,0.010526296632161246,0.029529657558311873,0.011855466728640835,0.01790945163506282,0.02666219726947312,0.04138247137148395,0.009256669425288975
0.2006379,0.011197718664002355,0.010700904341210168,0.02933794574946445,0.011905215047375508,0.017830136299804053,0.02685778467609348,0.04145671646779076,0.009382803918597863
0.2011034,0.011109698639134446,0.010876453923892856,0.029145851921906715,0.011955186080248013,0.017752486498643087,0.027054432220097645,0.04152903613515463,0.009511088968299986
0.201569,0.011021349127580323,0.011052918965918413,0.028953404983182267,0.012005374994350245,0.01767654876529031,0.027252120762930508,0.0415994221289668,0.009641507247806042
0.2020345,0.010932688646554877,0.011230272674762912,0.028760633648784215,0.012055776762443281,0.017602369576064338,0.027450830782165703,0.041667866513162476,0.00977404088090235
0.2025,0.010843735836201284,0.011408487883134224,0.028567566434571846,0.012106386161730537,0.01752999533458281,0.027650542369915113,0.04173436165853666,0.009908671445126992
0.2029655,0.01075450945555897,0.011587537052605585,0.02837423164938535,0.0121571977727328,0.017459472356371998,0.027851235231409248,0.04179890024095081,0.010045379975331075
0.203431,0.010665028378523728,0.0117673922774191,0.028180657387861803,0.012208205978266974,0.017390846853398822,0.028052888683752324,0.04186147523943548,0.010184146967425436
0.2038966,0.010575311589801297,0.011948025288460312,0.02798687152345567,0.012259404962530335,0.017324164918528985,0.028255481654855506,0.04192207993419445,0.010324952382312975
0.2043621,0.010485378180855567,0.012129407457404899,0.027792901701666834,0.012310788710291986,0.01725947250991507,0.028458992682551764,0.0419807079045163,0.010467775650006785
0.2048276,0.01039524734585261,0.012311509801038402,0.027598775333478848,0.012362351006193133,0.017196815435318542,0.02866339991389553,0.042037353026599944,0.010612595673934187
0.2052931,0.010304938377601602,0.012494302985749871,0.02740451958901016,0.012414085434157595,0.017136239336369805,0.028868681104650153,0.04209200947130115,0.010759390835426649
0.2057586,0.010214470663493673,0.012677757332200123,0.027210161391380636,0.012465985376914018,0.017077789672770533,0.029074813618965994,0.04214467170180731,0.010908138998395591
0.2062241,0.010123863681439716,0.012861842820165283,0.027015727410795713,0.012518044015631058,0.017021511706442498,0.029281774429251693,0.042195334471247764,0.011058817514193983
0.2066897,0.010033136995808128,0.013046529093556145,0.026821244058850262,0.012570254329666767,0.016967450485627155,0.02948954011624102,0.04224399282024689,0.011211403226663542
0.2071552,0.009942310253363451,0.013231785465613738,0.026626737483054178,0.012622609096433347,0.016915650828940292,0.029698086869257477,0.042290642074426864,0.011365872477367367
0.2076207,0.00985140317920681,0.013417580924281478,0.026432233561581597,0.01267510089137834,0.01686615730938616,0.029907390486678766,0.04233527784186671,0.011522201111007666
0.2080862,0.00976043557271905,0.013603884137754142,0.026237757898245576,0.012727722088083277,0.016819014238335494,0.030117426376602943,0.04237789601052409,0.011680364481028247
0.2085517,0.00966942730350738,0.013790663460203805,0.026043335817700065,0.012780464858480688,0.016774265649472098,0.030328169557718228,0.0424184927456258,0.011840337455401405
0.2090172,0.00957839830735632,0.013977886937682819,0.025848992360870723,0.012833321173190295,0.016731955282712558,0.030539594660378217,0.04245706448703308,0.012002094422598756
0.2094828,0.009487368582183697,0.014165522314203836,0.025654752280616214,0.012886282801975197,0.016692126568103798,0.030751675927884102,0.04249360794658718,0.012165609297745565
0.2099483,0.009396358184002382,0.01435353703799679,0.025460640037621392,0.012939341314318687,0.01665482260970302,0.030964387217975373,0.04252812010544066,0.012330855528958014
0.2104138,0.009305387222888388,0.014541898267942645,0.0252666797965237,0.01299248808012233,0.0166200861694446,0.031177702004530353,0.04256059821137958,0.012497806103862856
0.2108793,0.009214475858955937,0.014730572880183692,0.025072895422274012,0.013045714270525777,0.016587959650998477,0.0313915933794776,0.042591039776141426,0.012666433556298713
0.2113448,0.009123644298340016,0.014919527474910018,0.02487931047673289,0.013099010858848745,0.016558485083624584,0.031606034054919054,0.04261944257273336,0.012836709973198291
0.2118103,0.009032912789186984,0.015108728383321722,0.02468594821550323,0.013152368621655515,0.016531704106027865,0.03182099636546565,0.04264580463275543,0.013008607001650586
0.2122759,0.008942301617653777,0.015298141674766348,0.024492831585000003,0.013205778139942245,0.016507657950218562,0.03203645227078578,0.04267012424373305,0.01318209585614217
0.2127414,0.008851831103916328,0.015487733164050877,0.024299983219757775,0.013259229800447336,0.0164863874253824,0.032252373358367004,0.04269239994646309,0.013357147325976494
0.2132069,0.00876152159818786,0.015677468418927497,0.02410742543997634,0.0133127137970851,0.016467932901765348,0.03246873084649101,0.04271263053237767,0.013533731782870092
0.2136724,0.008671393476747804,0.0158673127677523,0.02391518024930475,0.013366220132502913,0.016452334294577597,0.032685495587421835,0.0427308150409302,0.0137118191887245
0.2141379,0.008581467137982132,0.01605723130731583,0.023723269332863808,0.013419738619762091,0.0164396310479216,0.03290263807080684,0.04274695275700797,0.013891379103572625
0.2146034,0.008491762998435914,0.016247188910844347,0.02353171405550674,0.01347325888414259,0.0164298621187489,0.03312012842729007,0.04276104320837612,0.014072380693698242
0.215069,0.008402301488878907,0.016437150236170543,0.023340535460317884,0.013526770365071663,0.016423065960850785,0.03333793643233722,0.04277308616315769,0.014254792739927136
0.2155345,0.008313103050384959,0.016627079734072275,0.023149754267348655,0.013580262318176495,0.01641928050888791,0.033556031510271325,0.04278308162735438,0.014438583646088432
0.216,0.008224188130425945,0.016816941656777783,0.022959390872590104,0.01363372381746087,0.016418543162464175,0.03377438273851827,0.042791029842412835,0.014623721447644523
0.2164655,0.008135577178980927,0.01700670006663576,0.022769465347181085,0.01368714375760582,0.016420890770250347,0.03399295885206107,0.04279693128284089,0.01481017382048789
0.216931,0.008047290644661198,0.017196318844948544,0.02257999743685091,0.013740510856394359,0.016426359614163027,0.03421172824810155,0.04280078665387813,0.014997908089903042
0.2173966,0.007959348970851779,0.01738576170096655,0.02239100656159508,0.013793813657260389,0.016434985393604815,0.034430658990928294,0.042802596889225164,0.015186891239691698
0.2178621,0.007871772591869925,0.017574992181041988,0.02220251181558258,0.013847040531961953,0.01644680320977175,0.034649718816989195,0.04280236314883565,0.015377089921459208
0.2183276,0.007784581929141141,0.01776397367793987,0.022014531967293034,0.013900179683378956,0.016461847550034357,0.034868875140167184,0.042800086816775065,0.015568470464060126
0.2187931,0.007697797387393123,0.01795266944030401,0.02182708545988182,0.013953219148435515,0.01648015227239855,0.03508809505725752,0.04279576949915004,0.015760998883200775
0.2192586,0.007611439350868062,0.01814104258227584,0.021640190411770954,0.014006146801147007,0.016501750590052933,0.03530734535364518,0.042789413022111485,0.015954640891196505
0.2197241,0.007525528179553648,0.01832905609326367,0.021453864617463625,0.01405895035579178,0.016526675056008824,0.035526592509181124,0.04278101942993468,0.016149361906881297
0.2201897,0.0074400842054331,0.018516672847859832,0.021268125548579934,0.014111617370207412,0.016554957547839533,0.035745802704255855,0.0427705909831791,0.016345127065667302
0.2206552,0.007355127728754555,0.018703855615903243,0.02108299035511118,0.014164135249211257,0.016586629252525364,0.0359649418260691,0.04275813015693024,0.01654190122975176
0.2211207,0.0072706790143200915,0.0188905670726846,0.020898475866889997,0.014216491248144938,0.01662172065141102,0.03618397547509383,0.042743639639125745,0.016739648998468627
0.2215862,0.007186758287794625,0.019076769809291457,0.020714598595273442,0.01426867247654231,0.01666026150528214,0.03640286897173286,0.0427271223289675,0.016938334718782238
0.2220517,0.007103385732034951,0.019262426343090316,0.020531374735035916,0.014320665901920387,0.016702280839567766,0.03662158736316617,0.04270858133542108,0.017137922495920013
0.2225172,0.007020581483439109,0.019447499128342618,0.020348820166468756,0.014372458353692552,0.016747806929675417,0.036840095430386834,0.04268801997580389,0.017338376204141186
0.2229828,0.006938365628316217,0.019631950566951564,0.020166950457683117,0.014424036527203393,0.01679686728646548,0.03705835769542334,0.04266544177446258,0.017539659497638374
0.2234483,0.006856758199276918,0.019815743019336335,0.019985780867112685,0.01447538698788429,0.016849488641871427,0.037276338428746,0.04264085046154057,0.0177417358215687
0.2239138,0.006775779171644471,0.019998838815430322,0.019805326346212765,0.014526496175528925,0.016905696934672348,0.03749400165685511,0.042614249971835855,0.017944568423210967
0.2243793,0.00669544845988653,0.020181200265799667,0.019625601542352208,0.014577350408687738,0.016965517296424225,0.037711311170048174,0.042585644443749314,0.01814812036324539
0.2248448,0.006615785914067566,0.020362789672878336,0.019446620801894587,0.01462793588918028,0.017028974037556273,0.03792823053036385,0.042555038218323384,0.018352354527152174
0.2253103,0.006536811316321901,0.02054356934231583,0.01926839817346504,0.01467823870672433,0.017096090633638584,0.03814472307969982,0.04252243583837039,0.018557233636725314
0.2257759,0.006458544377347221,0.020723501594433435,0.019090947411399065,0.01472824484368061,0.017166889711827248,0.03836075194810207,0.042487842047689975,0.018762720261697834
0.2262414,0.006381004732918427,0.020902548775784777,0.018914281979369448,0.014777940179911802,0.017241393037493065,0.03857628006222294,0.04245126179037426,0.018968776831474736
0.2267069,0.0063042119404216074,0.02108067327081641,0.0187384150541874,0.014827310497754551,0.017319621501039828,0.03879127015394546,0.042412700210199425,0.01917536564696979
0.2271724,0.006228185475407896,0.021257837513623947,0.018563359529773803,0.014876341487103064,0.017401595104918084,0.039005684769171246,0.042372162650101707,0.019382448892542332
0.2276379,0.0061529447281669725,0.021434003999799153,0.018389128021296358,0.01492501875060282,0.017487332950840335,0.03921948627676962,0.042329654651735896,0.019589988648030087
0.2281034,0.006078509000319898,0.021609135298363252,0.01821573286946827,0.014973327808952833,0.017576853227203496,0.03943263687768561,0.04228518195511375,0.019797946900873924
0.228569,0.006004897501431009,0.021783194063781566,0.018043186145003998,0.015021254106314802,0.017670173196724523,0.03964509861420484,0.042238750498319565,0.020006285558330315
0.2290345,0.0059321293456386075,0.021956143048054513,0.017871499653227537,0.01506878301582734,0.017767309184295085,0.03985683337937334,0.042190366417299646,0.020214966459767267
0.2295,0.0058602235483042504,0.02212794511287984,0.017700684938828575,0.015115899845223428,0.017868276565061132,0.04006780292657038,0.042140036045722425,0.020423951389039366
0.2299655,0.005789199022680486,0.022298563241880745,0.017530753290761893,0.015162589842549062,0.017973089752733252,0.04027796887923215,0.04208776591490515,0.020633202086937457
0.230431,0.005719074576596977,0.02246796055289453,0.017361715747285327,0.015208838201981038,0.01808176218813379,0.040487292740723796,0.0420335627538032,0.02084268026370838
0.2308966,0.005649868909164967,0.022636100310316144,0.01719358310113156,0.01525463006974168,0.01819430632798678,0.04069573590435735,0.041977433489057456,0.02105234761164004
0.2313621,0.0055816006075001656,0.022802945937490958,0.01702636590480893,0.015299950550108292,0.018310733633956824,0.04090325966355257,0.041919385245095024,0.021262165817706926
0.2318276,0.005514288143464221,0.022968461029150896,0.016860074476026315,0.015344784711515026,0.018431054561943126,0.04110982522213794,0.04185942534427812,0.021472096576271117
0.2322931,0.005447949870425097,0.02313260936388787,0.01669471890323704,0.015389117592744809,0.018555278551634913,0.04131539370478883,0.04179756130709623,0.021682101601833578
0.2327586,0.005382604020036808,0.023295354916658403,0.016530309051296665,0.01543293420920887,0.01868341401633453,0.04151992616759997,0.04173380085239631,0.021892142641830457
0.2332241,0.005318268699039093,0.023456661871313008,0.016366854567229288,0.015476219559311406,0.018815468333054548,0.041723383608789036,0.04166815189764565,0.022102181489468947
0.2336897,0.005254961886077674,0.02361649463314375,0.016204364886096966,0.015518958630896836,0.018951447832895135,0.04192572697952822,0.041600622559221784,0.022312179996597105
0.2341552,0.005192701428545773,0.023774817841443353,0.016042849236966646,0.01556113640777697,0.019091357791708015,0.04212691719490013,0.04153122115272377,0.02252210008660188
0.2346207,0.005131505039447628,0.023931596382068855,0.01588231664896888,0.015602737876335464,0.019235202421053355,0.04232691514497427,0.04145995619329932,0.02273190376732946
0.2350862,0.005071390294284738,0.024086795400002643,0.015722775957442495,0.015643748032206764,0.019382984859455905,0.042525681705999956,0.04138683639598215,0.022941553144021774
0.2355517,0.005012374627965577,0.02424038031190356,0.015564235810159232,0.015684151887026643,0.019534707163966693,0.04272317775171124,0.04131187067603469,0.023151010432262985
0.2360172,0.004954475331739528,0.024392316818640583,0.015406704673622176,0.015723934475251403,0.019690370302036464,0.04291936416473913,0.04123506814929105,0.023360237970929475
0.2364828,0.004897709550155777,0.024542570917801276,0.015250190839431733,0.015763080861042684,0.019849974143706924,0.04311420184812611,0.04115643813249593,0.023569198235136604
0.2369483,0.004842094278047867,0.02469110891616717,0.015094702430712821,0.01580157614521477,0.020013517454125742,0.04330765173693784,0.041075990143634986,0.023777853849175478
0.2374138,0.004787646357544608,0.02483789744214801,0.01494024740859668,0.015839405472241157,0.02018099788639114,0.04349967480996659,0.04099373390225307,0.023986167599432673
0.2378793,0.004734382475107991,0.02498290345816656,0.014786833578750764,0.015876554037317133,0.020352411974731772,0.04369023210152103,0.04090967932975693,0.02419410244728578
0.2383448,0.0046823191585987104,0.025126094272985577,0.014634468597950076,0.015913007093474936,0.020527755128027413,0.04387928471329684,0.0408238365496998,0.024401621541967282
0.2388103,0.0046314727743698835,0.025267437553968375,0.014483159980683261,0.01594874995874807,0.020707021623675912,0.044066793826322816,0.04073621588804546,0.024608688233389332
0.2392759,0.004581859524389496,0.025406901339264196,0.014332915105786902,0.01598376802338118,0.0208902046018118,0.04425272071297726,0.0406468278734094,0.024815266084921635
0.2397414,0.004533495443392102,0.02554445404990942,0.014183741223101592,0.016018046757081853,0.021077296059881758,0.04443702674906986,0.040555683237274716,0.025021318886114512
0.2402069,0.004486396396060267,0.025680064501835582,0.014035645460143444,0.01605157171631045,0.021268286847582103,0.04461967342598425,0.04046279291418034,0.025226810665359096
0.2406724,0.004440578074236232,0.02581370191777509,0.013888634828784852,0.016084328551604132,0.02146316666216344,0.04480062236287675,0.04036816804187859,0.025431705702476298
0.2411379,0.004396055994164264,0.025945335939055625,0.013742716231938467,0.01611630301493099,0.02166192404410753,0.04497983531892643,0.04027181996145928,0.02563596854122621
0.2416034,0.004352845493764157,0.02607493663727432,0.013597896470238261,0.016147480967070117,0.021864546373181373,0.04515727420563203,0.04017376021743727,0.025839564001729425
0.242069,0.004310961729936332,0.02620247452584292,0.01345418224871159,0.016177848385013512,0.022071019864873555,0.04533290109915061,0.04007400055780009,0.026042457192791694
0.2425345,0.004270419675898983,0.026327920571395273,0.013311580183436067,0.016207391369385468,0.022281329567217675,0.04550667825267352,0.03997255293401238,0.026244613524123297
0.243,0.004231234118557706,0.026451246205048472,0.013170096808175038,0.016236096151875264,0.02249545935800756,0.04567856810883499,0.039869429500973344,0.02644599871844454
0.2434655,0.004193419655908041,0.026572423333509003,0.01302973858098529,0.01626394910267884,0.022713391942408824,0.045848533312148984,0.039764642616923515,0.026646578823468936
0.243931,0.00415699069447135,0.026691424350014915,0.012890511890790565,0.016290936737945252,0.022935108850971154,0.04601653672146979,0.03965820484329711,0.026846320223755746
0.2443966,0.004121961446764484,0.02680822214510507,0.012752423063914447,0.01631704572722367,0.02316059043804543,0.04618254142247205,0.039550128944515935,0.027045189652423533
0.2448621,0.004088345928803684,0.026922790117206295,0.012615478370566032,0.016342262900906682,0.02338981588060978,0.046346510740145536,0.03944042788772117,0.027243154202716488
0.2453276,0.004056157957643187,0.02703510218302913,0.012479684031271724,0.01636657525766579,0.0236227631775083,0.046508408251299954,0.039329114842439304,0.02744018133941522
0.2457931,0.004025411148949036,0.027145132787762764,0.012345046223246484,0.016389969971874842,0.02385940914910617,0.046668197797075324,0.0392162031801792,0.02763623891008371
0.2462586,0.0039961189146086006,0.027252856915059815,0.012211571086697699,0.01641243440101743,0.024099729437364582,0.04682584349545297,0.03910170647395757,0.027831295156143965
0.2467241,0.003968294460376366,0.027358250096801585,0.01207926473105484,0.016433956093074235,0.02434369850633884,0.046981309753762246,0.038985638497750726,0.0280253187237699
0.2471897,0.00394195078355653,0.02746128842263449,0.011948133241117988,0.016454522793886518,0.02459128964310277,0.04713456128117791,0.03886801322587138,0.02821827867459193
0.2476552,0.003917100670722983,0.027561948549268574,0.011818182683118409,0.016474122454492056,0.024842474959102433,0.0472855631012031,0.03874884483226944,0.028410144496203788
0.2481207,0.0038937566954772066,0.027660207709529133,0.01168941911068432,0.016492743238429863,0.025097225391941858,0.047434280564132764,0.03862814768975649,0.028600886112463187
0.2485862,0.003871931216244622,0.02775604372115281,0.01156184857070499,0.016510373529010212,0.02535551070760342,0.04758067935949229,0.03850593636915368,0.02879047389357823
0.2490517,0.0038516363741099013,0.027849434995319916,0.011435477109086387,0.016527001936546357,0.025617299503105234,0.04772472552844601,0.0383822256383627,0.028978878665971545
0.2495172,0.0038328840906917106,0.027940360544915253,0.01131031077639152,0.016542617305544405,0.025882559209597793,0.04786638547617029,0.038257030461359504,0.029166071721914353
0.2499828,0.003815686066057347,0.028028799992510317,0.011186355633358739,0.016557208721847707,0.026151256095901847,0.04800562598418617,0.038130365997110026,0.029352024828922692
0.2504483,0.003800053776677716,0.02811473357806045,0.011063617756291525,0.016570765519732043,0.026423355272489374,0.04814241422264685,0.03800224759840714,0.029536710238908317
0.2509138,0.0037859984734230348,0.028198142166311276,0.010942103242313511,0.016583277288947824,0.02669882069590932,0.048276717762575715,0.03787269081062775,0.029720100697077038
0.2513793,0.00377353117959965,0.028279007253909656,0.010821818214483102,0.016594733881705608,0.02697761517365964,0.048408504588051494,0.03774171137040874,0.029902169450567413
0.2518448,0.0037626626890283213,0.028357310976215123,0.010702768826762589,0.01660512541960124,0.02725970036950685,0.04853774310833677,0.037609325204240415,0.030082890256823244
0.2523103,0.0037534035641643274,0.028433036113808194,0.010584961268837316,0.016614442300476973,0.027545036809254308,0.04866440216994724,0.037475548426976105,0.030262237391694015
0.2527759,0.0037457641342597517,0.028506166098692477,0.010468401770781064,0.01662267520521508,0.02783358388696009,0.04878845106865902,0.037340397340256744,0.030440185657258638
0.2532414,0.003739754493568327,0.02857668502018771,0.010353096607564333,0.016629815104460807,0.028125299871605218,0.048909859561451996,0.03720388843084923,0.030616710389369216
0.2537069,0.0037353844995932487,0.028644577630511526,0.0102390521034026,0.01663585326527164,0.028420141914212767,0.049028597878388085,0.037066038368897734,0.030791787464912734
0.2541724,0.0037326637713783768,0.028709829350048535,0.010126274635941875,0.016640781257690286,0.028718066055418188,0.04914463673442378,0.036926864006087294,0.030965393308789602
0.2546379,0.0037316016878432474,0.028772426272306233,0.010014770640279157,0.016644590961238943,0.029019027233490945,0.04925794734115709,0.036786382373719465,0.031137504900608345
0.2551034,0.0037322073861623083,0.028832355168558157,0.00990454661281555,0.01664727457133284,0.029322979292807406,0.049368501418508896,0.03664461068070008,0.03130809978109589
0.255569,0.0037344897601887814,0.02888960349217568,0.009795609114940188,0.016648824605611116,0.029629874992774682,0.04947627120633878,0.036501566311439464,0.03147715605822309
0.2560345,0.0037384574589235486,0.0289441593826504,0.009687964776543417,0.016649233910183334,0.029939666017204936,0.04958122947599544,0.03635726682366573,0.03164465241304533
0.2565,0.0037441188850294367,0.02899601166930989,0.009581620299357963,0.01664849566578977,0.03025230298413949,0.04968334954180109,0.036211729946151655,0.03181056810525813
0.2569655,0.0037514821933912717,0.029045149874729725,0.0094765824601271,0.016646603393873857,0.030567735456121722,0.0497826052724695,0.036064973576356,0.03197488297846841
0.257431,0.0037605552897220485,0.029091564217845145,0.009372858113599012,0.016643550962564917,0.03088591195091755,0.04987897110245647,0.03591701577798042,0.03213757746518187
0.2578966,0.0037713458292155493,0.029135245616765663,0.009270454195346648,0.01663933259256931,0.03120677995268213,0.04997242204324171,0.03576787477844304,0.03229863259150773
0.2583621,0.00378386121524571,0.029176185691296107,0.009169377724412467,0.016633942862967942,0.03153028592357096,0.05006293369454055,0.03561756896626995,0.0324580299815817
0.2588276,0.003798108598113021,0.029214376765167513,0.009069635805777448,0.01662737671691807,0.03185637531579347,0.050150482255443704,0.03546611688840577,0.03261575186170855
0.2592931,0.0038140948738382354,0.02924981186798118,0.008971235632653889,0.01661962946725705,0.032184992584106835,0.0502350445354832,0.03531353724744441,0.03277178106422566
0.2597586,0.003831826683003631,0.029282484736869237,0.008874184488601592,0.016610696802005828,0.032516081198747625,0.050316597965622316,0.03515984889878073,0.03292610103108853
0.2602241,0.003851310409642071,0.02931238981787484,0.008778489749467322,0.016600574789769694,0.03284958365879844,0.05039512060916737,0.03500507084768392,0.033078695817179544
0.2606897,0.0038725521801741144,0.02933952226705509,0.00868415888514766,0.016589259885033947,0.033185441505986596,0.05047059117259876,0.034849222246293034,0.03322955009334075
0.2611552,0.003895557862393423,0.029363877951309597,0.008591199461175581,0.016576748933352068,0.03352359533891157,0.050542989016318964,0.034692322390535164,0.033378649149131266
0.2616207,0.003920333064500697,0.02938545344893734,0.008499619140131275,0.016563039176424026,0.03386398482769779,0.05061229416531487,0.034534390716966845,0.03352597889530981
0.2620862,0.003946883134186382,0.029404246049924365,0.008409425682877765,0.016548128257062335,0.0342065487290688,0.0506784873197315,0.03437544679953931,0.03367152586604236
0.2625517,0.003975213157762352,0.029420253755964576,0.008320626949621964,0.016532014224043566,0.034551224901838755,0.0507415498653544,0.034215510346288266,0.03381527722083492
0.2630172,0.004005327959342777,0.029433475280215785,0.008233230900801842,0.016514695536842875,0.03489795032281694,0.05080146388399736,0.03405460119594895,0.03395722074619102
0.2634828,0.004037232100074344,0.029443910046792865,0.00814724559780047,0.016496171070249095,0.03524666110312071,0.050858212163792084,0.03389273931449682,0.03409734485699326
0.2639483,0.004070929877416019,0.02945155818999975,0.008062679203487858,0.01647644011885785,0.035597292504891895,0.05091177820937629,0.03372994479161454,0.034235638597608135
0.2644138,0.004106425324468523,0.02945642055330176,0.007979539982591745,0.016455502401439972,0.035949778958411685,0.05096214625197628,0.033566237837085386,0.034372091642713085
0.2648793,0.0041437222093536705,0.029458498688039455,0.007897836301898692,0.016433358065182365,0.03630405407960874,0.05100930125937963,0.03340163877711327,0.03450669429784439
0.2653448,0.004182824034643763,0.02945779485188504,0.007817576630287128,0.01641000768979834,0.03666005068795483,0.05105322894579369,0.03323616805056957,0.034639437499664416
0.2658103,0.004223734036841181,0.02945431200704213,0.007738769538594149,0.01638545229150438,0.03701770082474225,0.05109391578158493,0.03306984620516709,0.03477031281594644
0.2662759,0.004266455185908332,0.02944805381818944,0.007661423699318133,0.01635969332686006,0.03737693577173688,0.05113134900289369,0.032902693893561596,0.03489931244527508
0.2667414,0.004310990184848064,0.02943902465016883,0.007585547886159292,0.016332732696467823,0.037737686070200734,0.05116551662111888,0.03273473186938186,0.03502642921646019
0.2672069,0.00435734146933465,0.029427229565417993,0.007511150973400502,0.016304572748529245,0.038099881540277304,0.05119640743226639,0.03256598098318952,0.035151656587661666
0.2676724,0.004405511207395398,0.02941267432114806,0.007438241935130764,0.016275216282254378,0.038463451300733295,0.051224011026155127,0.032396462178370534,0.03527498864522287
0.2681379,0.004455501299142901,0.029395365366266548,0.007366829844313796,0.016244666551120657,0.03882832378904957,0.05124831779547382,0.03222619648696039,0.035396420102209655
0.2686034,0.00450731337655793,0.029375309838046343,0.007296923871704269,0.016212927265977922,0.03919442678185422,0.05126931894468179,0.03205520502540572,0.035515946296652424
0.269069,0.0045609488033228965,0.029352515558541858,0.007228533284614267,0.016180002597995916,0.039561687415690446,0.051287006498746644,0.0318835089902654,0.0356335631894881
0.2695345,0.004616408674705817,0.029326991030754004,0.007161667445532588,0.016145897181450646,0.03993003220811147,0.05130137331171157,0.03171112965385406,0.035749267362199036
0.27,0.004673693817494633,0.029298745434546185,0.007096335810599479,0.016110616116345955,0.04029938707909477,0.05131241307508453,0.031538088359831275,0.035863056014145425
0.2704655,0.004732804789981756,0.029267788622314057,0.007032547927939402,0.016074164970866757,0.04066967737276769,0.051320120326041184,0.03136440651873967,0.03597492695958756
0.270931,0.004793741881998655,0.02923413111441216,0.006970313435854399,0.016036549783660554,0.0410408278794363,0.051324490455433254,0.031190105603495135,0.036084878624394176
0.2713966,0.00485650511500028,0.02919778409434061,0.006909642060880584,0.01599777706594414,0.041412762857909284,0.051325519715593314,0.031015207144832756,0.036192910042432774
0.2718621,0.004921094242199106,0.029158759403695264,0.0068505436157102195,0.01595785380343248,0.041785406058108626,0.05132320522792702,0.030839732726712133,0.03629902085163768
0.2723276,0.004987508748748549,0.029117069536884872,0.006793027996981835,0.015916787458086907,0.04215868074395861,0.05131754499028347,0.03066370398168625,0.036403211289751505
0.2727931,0.005055747851975451,0.029072727635618755,0.006737105182940779,0.015874585969680017,0.0425325097165449,0.05130853788409419,0.030487142586238154,0.0365054821897356
0.2732586,0.005125810501661343,0.02902574748316922,0.0066827852309726,0.015831257757174713,0.04290681533753555,0.05129618368127136,0.030310070256089717,0.036605834974844986
0.2737241,0.005197695380372133,0.02897614349841302,0.0066300782750115805,0.015786811719915212,0.04328151955285563,0.05128048305085576,0.03013250874148686,0.03670427165336336
0.2741897,0.005271400903835866,0.028923930729656433,0.006578994522826782,0.015741257238628185,0.043656543916607414,0.05126143756540452,0.029954479822465435,0.036800794812993975
0.2746552,0.005346925221368146,0.028869124848248988,0.006529544253187902,0.015694604176232675,0.04403180961522795,0.05123904970710911,0.02977600530410173,0.03689540761490273
0.2751207,0.005424266216344786,0.028811742141990844,0.006481737812913249,0.015646862878458033,0.044407237491875584,0.05121332287363358,0.02959710701175163,0.03698811378741083
0.2755862,0.005503421506721263,0.0287517995083391,0.006435585613802114,0.015598044174269545,0.04478274807103674,0.05118426138366339,0.029417806786282277,0.037078917619335516
0.2760517,0.005584388445598474,0.028689314447418044,0.006391098129453788,0.015548159376101942,0.04515826158334428,0.051151870482155255,0.02923812647930026,0.03716782395297873
0.2765172,0.0056671641218343,0.028624305054838355,0.006348285891975432,0.015497220279901126,0.04553369799059833,0.05111615634527874,0.02905808794838025,0.037254838176763984
0.2769828,0.005751745360700428,0.028556790014330112,0.006307159488580988,0.015445239164974672,0.045908977010980304,0.05107712608503998,0.028877713052298172,0.037339966217523425
0.2774483,0.005838128724583895,0.02848678859019431,0.006267729558083306,0.015392228793651682,0.046284018144450635,0.0510347877535783,0.028697023646273006,0.03742321453243809
0.2779138,0.005926310513732753,0.028414320619577594,0.006230006787281652,0.015338202410752648,0.046658740698320204,0.05098915034712644,0.02851604157722149,0.0375045901006365
0.2783793,0.006016286767045228,0.028339406504574734,0.0061940019072468135,0.015283173742869974,0.04703306381298558,0.050940223809625096,0.028334788679030127,0.03758410041445859
0.2788448,0.006108053262901716,0.028262067204163327,0.006159725689506089,0.015227156997459764,0.04740690648781785,0.05088801903598265,0.028153286767849065,0.03766175347039379
0.2793103,0.0062016055200388885,0.02818232422597531,0.006127188942130519,0.015170166861745592,0.047780187607194304,0.05083254787497105,0.027971557637412218,0.03773755775970353
0.2797759,0.00629693879846516,0.028100199617909685,0.006096402505726766,0.015112218501435034,0.04815282596666251,0.050773823131748635,0.027789623054388216,0.037811522258738496
0.2802414,0.006394048100416685,0.028015715959591053,0.006067377249336115,0.015053327559249931,0.04852474029922549,0.05071185857000088,0.027607504753766464,0.0378836564189622
0.2807069,0.00649292817135305,0.027928896353678574,0.006040124066243039,0.014993510153271534,0.048895849301737015,0.05064666891369029,0.02742522443428266,0.037953970156691934
0.2811724,0.006593573500991767,0.02783976441703008,0.006014653869695768,0.014932782875101963,0.04926607166139592,0.05057826984840701,0.027242803753887997,0.038022473842569085
0.2816379,0.0066959783243806205,0.02774834427172612,0.005990977588541298,0.014871162787843555,0.049635326082328485,0.05050667802231222,0.027060264325266214,0.03808917829077056
0.2821034,0.0068001366230069195,0.027654660535958678,0.0059691061627772535,0.014808667423897992,0.050003531312248335,0.050431911046666444,0.026877627711402556,0.03815409474797345
0.282569,0.006906042125942666,0.027558738314789232,0.005949050539023029,0.014745314782587332,0.05037060616918321,0.050353987495935636,0.026694915421208595,0.03821723488208491
0.2830345,0.007013688311024609,0.02746060319078067,0.005930821665912637,0.014681123327599264,0.05073646956825815,0.05027292690746819,0.02651214890520685,0.03827861077074907
0.2835,0.007123068406068155,0.027360281214507596,0.005914430489411693,0.014616111984259175,0.05110104054852454,0.05018874978073717,0.02632934955127888,0.03833823488964267
0.2839655,0.0072341753901140815,0.027257798894949687,0.005899887948060971,0.014550300136631803,0.05146423829982466,0.05010147757614269,0.026146538680480617,0.038396120100571085
0.284431,0.007347001994706971,0.02715318318977264,0.005887204968148894,0.014483707624455408,0.05182598218968097,0.05001113271337041,0.025963737542928453,0.03845227963937623
0.2848966,0.007461540705204289,0.027046461495501387,0.005876392458815398,0.014416354739911586,0.05218619179019932,0.049917738569302685,0.02578096731375936,0.03850672710366772
0.2853621,0.007577783762115018,0.026937661637590336,0.00586746130708962,0.014348262224233858,0.05254478690497502,0.049821319475479346,0.025598249089168443,0.03855947644038859
0.2858276,0.007695723162466782,0.026826811860395264,0.005860422372863829,0.01427945126415819,0.05290168759599055,0.04972190071510516,0.025415603882526963,0.03861054193322674
0.2862931,0.007815350661200406,0.02671394081705149,0.005855286483806144,0.01420994348821861,0.05325681421049317,0.049619508519600744,0.025233052620583847,0.0386599381898831
0.2867586,0.007936657772590854,0.026599077559262864,0.005852064430214574,0.014139760962890989,0.053610087407840776,0.049514170064693955,0.025050616139753464,0.03870768012920761
0.2872241,0.008059635771693545,0.02648225152700591,0.005850766959814965,0.014068926188587958,0.0539614281863039,0.04940591346604887,0.024868315182492492,0.038753782968213794
0.2876897,0.008184275695815021,0.02636349253815342,0.005851404772505484,0.013997462095507857,0.05431075790981159,0.0492947677744296,0.024686170393768473,0.03879826220898282
0.2881552,0.008310568346007019,0.02624283077802161,0.005853988515050266,0.01392539203934047,0.05465799833462889,0.04918076297039624,0.024504202317622594,0.038841133625467546
0.2886207,0.008438504288582973,0.02612029678884481,0.005858528775724871,0.013852739796832247,0.055003071635953464,0.04906392995853013,0.024322431393829072,0.03888241325020715
0.2890862,0.008568073856656068,0.025995921459181476,0.005865036078916144,0.013779529561213618,0.055345900434418546,0.048944300561185886,0.024140877954653465,0.03892211736096248
0.2895517,0.008699267151697923,0.025869736013255203,0.0058735208796790745,0.01370578593749094,0.05568640782248971,0.04882190751176752,0.023959562221711975,0.03896026246728238
0.2900172,0.008832074045117048,0.0257417720002344,0.005883993558253188,0.013631533937605555,0.05602451739074264,0.04869678444752682,0.02377850430293386,0.038996865297010824
0.2904828,0.00896648417985617,0.025612061283454283,0.005896464414541026,0.013556798975462362,0.056360153254009324,0.04856896590188288,0.023597724189628785,0.03903194278274447
0.2909483,0.009102486972007532,0.025480636029585012,0.005910943662551286,0.013481606861830215,0.056693240077379733,0.048438487296262864,0.023417241753660927,0.03906551204825
0.2914138,0.009240071612445165,0.025347528697749942,0.005927441424809264,0.013405983799116426,0.05702370310204625,0.0483053849314647,0.023237076744731428,0.039097590394850196
0.2918793,0.009379227068473169,0.025212772028598306,0.005945967726737289,0.013329956376017579,0.0573514681709774,0.04816969597854306,0.023057248787770743,0.0391281952877877
0.2923448,0.00951994208548891,0.02507639903333683,0.005966532491007933,0.013253551562048806,0.05767646175440785,0.04803145846922022,0.022877777380442194,0.03915734434257491
0.2928103,0.009662205188659992,0.02493844298272501,0.005989145531872783,0.013176796701953637,0.05799861097513131,0.04789071128582352,0.022698681890757934,0.039185055311338694
0.2932759,0.009806004684613831,0.02479893739603883,0.006013816549469575,0.01309971950999646,0.058317843633583284,0.04774749415075159,0.02251998155480837,0.039211346069168186
0.2937414,0.009951328663138588,0.02465791603000785,0.006040555124110453,0.013022348064139535,0.058634088232700866,0.047601847615472,0.022341695474605978,0.0392362346004739
0.2942069,0.010098164998894207,0.024515412867730426,0.006069370710554087,0.01294471080010642,0.05894727400254692,0.04745381304905387,0.022163842616044264,0.039259738985366256
0.2946724,0.010246501353132311,0.02437146210757183,0.00610027263226436,0.012866836505333556,0.05925733092468664,0.04730343262624003,0.02198644180697247,0.03928187738606133
0.2951379,0.01039632517542375,0.02422609815204991,0.006133270075658302,0.012788754312811712,0.059564189756304266,0.04715074931506388,0.021809511735386384,0.03930266803332147
0.2956034,0.01054762370539263,0.024079355596712915,0.0061683720843459505,0.01271049369481888,0.0598677820540485,0.04699580686401659,0.021633070947735446,0.03932212921293824
0.296069,0.01070038397445585,0.02393126921901406,0.006205587553364814,0.012632084456546186,0.06016804019759487,0.04683864978877041,0.021457137847346243,0.039340279252265284
0.2965345,0.010854592807567228,0.023781873967187228,0.0062449252234116175,0.01255355672961835,0.06046489741291398,0.04667932335846456,0.02128173069296219,0.03935713650680874
0.297,0.011010236824965505,0.02363120494912818,0.006286393675074007,0.01247494096551012,0.0607582877952343,0.04651787358155971,0.021106867597399073,0.03937271934688302
0.2974655,0.011167302443925584,0.02347929742128532,0.006330001323064894,0.012396267928860118,0.061048146331689014,0.046354347191267554,0.020932566526315883,0.03938704614434026
0.297931,0.01132577588051249,0.02332618677756401,0.006375756410462108,0.012317568690683558,0.06133440892363656,0.04618879163056137,0.02075884529710026,0.03940013525938175
0.2983966,0.01148564315133752,0.023171908538248274,0.006423667002955959,0.01223887462148525,0.06161701240864504,0.04602125503677364,0.02058572157786763,0.039412005027459826
0.2988621,0.011646890075316128,0.023016498338943543,0.006473740983107353,0.012160217384274427,0.06189589458213061,0.045851786225786464,0.020413212886573145,0.039422673746278704
0.2993276,0.011809502275427038,0.02285999191954409,0.00652598604461898,0.012081628927482928,0.06217099421863999,0.045680434675820385,0.020241336590235248,0.03943215966290269
0.2997931,0.011973465180472069,0.022702425113228782,0.006580409686622146,0.01200314147778828,0.06244225109276707,0.045507250510827414,0.020070109904269814,0.03944048096098017
0.3002586,0.012138764026836203,0.022543833835488882,0.0066370192079817265,0.011924787532843257,0.0627096059996934,0.04533228448349467,0.019899549891933693,0.03944765574809198
0.3007241,0.012305383860247352,0.022384254073191858,0.006695821701621686,0.01184659985391348,0.06297300077534237,0.04515558795786565,0.019729673463876413,0.03945370204323301
0.3011897,0.01247330953753531,0.022223721873685338,0.006756824048873602,0.011768611458424696,0.06323237831613716,0.044977212891587286,0.019560497377798785,0.03945863776443599
0.3016552,0.012642525728389224,0.0220622733339454,0.006820032913850556,0.011690855612421431,0.06348768259835247,0.04479721181779135,0.019392038238217082,0.03946248071654682
0.3021207,0.012813016917112913,0.021899944589773655,0.006885454737848762,0.011613365822938712,0.06373885869705047,0.04461563782661969,0.01922431249633129,0.03946524857916053
0.3025862,0.012984767404377179,0.021736771805047583,0.0069530957337792295,0.011536175830288688,0.06398585280459147,0.0444325445464028,0.019057336449995868,0.039466958894727136
0.3030517,0.013157761308968242,0.021572791161028664,0.007022961880631758,0.011459319600263895,0.06422861224871003,0.04424798612450195,0.018891126243791263,0.039467629056836415
0.3035172,0.013331982569531331,0.021408038845732856,0.007095058917973488,0.01138283131625891,0.06446708551014739,0.04406201720782521,0.0187256978691943,0.03946727629869058
0.3039828,0.013507414946308385,0.021242551043367804,0.007169392340484247,0.01130674537131207,0.06470122223983173,0.04387469292302844,0.018561067164845506,0.03946591768177343
0.3044483,0.01368404202286887,0.021076363923841296,0.007245967392530903,0.011231096360068958,0.0649309732755972,0.043686068856412456,0.01839724981691139,0.03946357008472443
0.3049138,0.013861847207832697,0.0209095136323451,0.007324789062782909,0.011155919070669271,0.06515629065843309,0.04349620103352791,0.01823426135953964,0.03946025019242586
0.3053793,0.014040813736584381,0.020742036279018404,0.007405862078871268,0.01108124847655873,0.06537712764825404,0.04330514589849936,0.018072117175405394,0.039455974485311004
0.3058448,0.014220924672977727,0.02057396792869471,0.007489190902093124,0.011007119728227696,0.06559343873918255,0.04311296029308058,0.01791083249634671,0.039450759228901185
0.3063103,0.014402162911030495,0.020405344590736108,0.007574779722164213,0.010933568144878175,0.06580517967433515,0.042919701435453365,0.017750422404087557,0.03944462046357921
0.3067759,0.014584511176608793,0.020236202208958526,0.007662632452021445,0.010860629206020857,0.06601230746010396,0.04272542689878259,0.01759090183104676,0.039437573994606547
0.3072414,0.014767952029101191,0.020066576651651527,0.007752752722677924,0.010788338543003878,0.06621478037992574,0.04253019458954075,0.017432285561231168,0.039429635382391595
0.3077069,0.014952467863082686,0.019896503701696083,0.007845143878132756,0.010716731930474965,0.06641255800753054,0.04233406272561574,0.0172745882312115,0.03942081993301599
0.3081724,0.015138040909968797,0.019726019046783637,0.007939808970337995,0.010645845277778726,0.0666056012196623,0.04213708981421579,0.01711782433117914,0.03941114268902554
0.3086379,0.015324653239660011,0.019555158269739567,0.008036750754225096,0.010575714620290822,0.06679387220826401,0.041939334629586156,0.01696200820608215,0.039400618420492285
0.3091034,0.015512286762176843,0.019383956838954115,0.008135971682793253,0.010506376110690791,0.06697733449212043,0.04174085619055228,0.016807154056838632,0.039389261616353706
0.309569,0.015700923229285787,0.019212450098923608,0.008237473902261974,0.010437866010175456,0.06715595292795254,0.041541713737904024,0.016653275941625707,0.03937708647603496
0.3100345,0.015890544236116477,0.01904067326090467,0.008341259247290305,0.01037022067961492,0.06732969372095954,0.041341966711635744,0.01650038777724223,0.039364106901359656
0.3105,0.016081131222770415,0.01886866139368397,0.008447329236265138,0.010303476570653312,0.06749852443480604,0.041141674728056556,0.016348503340543517,0.03935033648875437
0.3109655,0.016272665475921776,0.018696449414465785,0.008555685066661016,0.01023767021675654,0.06766241400105381,0.04094089755678514,0.016197636269946074,0.039335788521752034
0.311431,0.016465128130410896,0.018524072079879647,0.00866632761047387,0.01017283822420936,0.0678213327280382,0.040739695097643226,0.01604780006700043,0.03932047596379886
0.3118966,0.016658500170831144,0.0183515639771101,0.00877925740973109,0.010109017263064185,0.06797525230918976,0.04053812735746171,0.015899008098029997,0.03930441145136951
0.3123621,0.01685276243310985,0.01817895951515042,0.008894474672080259,0.010046244058044024,0.06812414583080136,0.040336254426813156,0.015751273595833774,0.039287607287394534
0.3128276,0.01704789560608402,0.018006292916182078,0.009011979266458862,0.009984555379401868,0.06826798777924069,0.04013413645668421,0.015604609661450683,0.0392700754350042
0.3132931,0.017243880233071558,0.01783359820708147,0.009131770718847153,0.009923988033738885,0.06840675404760788,0.0399318336351013,0.015459029265983222,0.03925182751159231
0.3137586,0.017440696713438675,0.017660909211055478,0.009253848208106336,0.009864578854783661,0.06854042194183811,0.03972940616372271,0.015314545252478131,0.0392328747832034
0.3142241,0.017638325304164152,0.01748825953940716,0.009378210561904117,0.00980636469413471,0.06866897018624955,0.03952691423441,0.015171170337861644,0.03921322815924614
0.3146897,0.017836746121401067,0.017315682583432843,0.009504856252729637,0.009749382411968396,0.06879237892853785,0.03932441800579166,0.015028917114926923,0.03919289818753598
0.3151552,0.01803593914203665,0.0171432115064518,0.009633783393999744,0.009693668867714448,0.06891062974421888,0.03912197757983177,0.014887798054371132,0.03917189504966911
0.3156207,0.018235884205250807,0.016970879235969686,0.009764989736258481,0.009639260910701152,0.06902370564052197,0.03891965297841633,0.014747825506879692,0.03915022855673007
0.3160862,0.018436561014073746,0.01679871845597677,0.009898472663471622,0.0095861953707724,0.06913159105973578,0.038717504119969826,0.01460901170525519,0.03912790814533469
0.3165517,0.018637949136943197,0.016626761599382034,0.010034229189418082,0.009534509048878701,0.069234271882009,0.03851559079611418,0.014471368766588472,0.03910494287400985
