Time,Rectus Femoris right,Rectus Femoris left,Hamstrings right,Hamstrings left,TibilaisÂ Anterior right,TibilaisÂ Anterior left,Gastrocnemius right,Gastrocnemius left
0.0,0.002238054791934498,0.002274518613448084,-0.00528719631831005,0.0004050957671928451,0.007908129090852778,0.01641312399611551,0.0034173198517546133,0.01129775330037113
0.0004655,0.0023454409145979888,0.002363727708573193,-0.00511734597469393,0.00045470783263604534,0.008094925025140521,0.016572821465033846,0.0037169529759418086,0.011472283553485558
0.000931,0.0024532964785247595,0.002452657495953597,-0.00494689051408002,0.0005042264098996242,0.008283061764152444,0.01673180429099618,0.004016467954009785,0.01164620072626632
0.0013966,0.0025616097491397882,0.002541294002748416,-0.004775839591987645,0.0005536454715941596,0.008472524198179242,0.01689004053987228,0.004315821420550601,0.011819475533613186
0.0018621,0.0026703688606586626,0.002629623309277996,-0.004604202855606793,0.0006029590328722437,0.008663296908399924,0.017047498329259926,0.004614969959784909,0.011992078801612632
0.0023276,0.00277956181871341,0.0027176315535417106,-0.004431989941029215,0.000652161153610832,0.008855364169600234,0.017204145838867282,0.004913870118261304,0.012163981477754097
0.0027931,0.002889176503023094,0.0028053049357151956,-0.004259210470544156,0.0007012459405759874,0.009048709952993134,0.01735995132093553,0.0052124784175972385,0.012335154641123768
0.0032586,0.0029992006701078785,0.0028926297226239427,-0.004085874050001742,0.0007502075495685789,0.009243317929140227,0.01751488311069693,0.005510751367255371,0.012505569512567817
0.0037241,0.0031096219560453717,0.002979592252190157,-0.0039119902662470216,0.0007990401875495351,0.009439171470973007,0.01766890963686351,0.005808645477349243,0.012675197464817186
0.0041897,0.0032204278792681744,0.003066178937849788,-0.0037375686846275375,0.0008477381147432798,0.009636253656912733,0.01782199943214142,0.006106117271472131,0.012844010032566213
0.0046552,0.0033316058434016273,0.003152376272936639,-0.0035626188465772515,0.0008962956467180066,0.00983454727408778,0.017974121143765887,0.00640312329954291,0.013011978922497766
0.0051207,0.003443143140140793,0.0032381708350304626,-0.0033871502672795533,0.0009447071564414564,0.010034034821647154,0.018125243544051612,0.006699620150662801,0.013179076023247879
0.0055862,0.00355502695216574,0.003323549290266006,-0.0032111724334119643,0.0009929670763108708,0.010234698514168927,0.018275335540953425,0.006995564465976845,0.013345273415303284
0.0060517,0.0036672443560941785,0.003408498397600014,-0.0030346948009750403,0.0010410699001557947,0.010436520285162195,0.018424366188631802,0.007290912951533959,0.013510543380825437
0.0065172,0.0037797823254705296,0.00349300501303331,-0.002857726793207845,0.0010890101852124043,0.010639481790661267,0.018572304698017805,0.007585622391139443,0.013674858413394816
0.0069828,0.0038926277337904738,0.00357705609378519,-0.002680277798592217,0.0011367825540680408,0.010843564412910695,0.018719120447371878,0.007879649659193829,0.01383819122766935
0.0074483,0.004005767357560037,0.003660638702417467,-0.0025023571689478923,0.0011843816965746473,0.011048749264139858,0.018864782992830807,0.008172951733512044,0.014000514768950773
0.0079138,0.0041191878793882504,0.003743740010905619,-0.0023239742176203817,0.0012318023717298155,0.011255017190425702,0.019009262078937064,0.008465485708117025,0.014161802222652727
0.0083793,0.004232875891112414,0.0038263473046545446,-0.002145138217763309,0.0012790394095241761,0.011462348775642294,0.0191525276491447,0.008757208806002033,0.014322027023664335
0.0088448,0.004346817896955012,0.003908447986456506,-0.001965858400716712,0.0013260877127539072,0.011670724345495747,0.019294549856295702,0.009048078391856139,0.01448116286560303
0.0093103,0.004461000316711305,0.003990029580388869,-0.0017861439544826264,0.0013729422587971925,0.01188012397164305,0.01943529907306084,0.009338051984747516,0.0146391837099505
0.0097759,0.004575409488966666,0.004071079735649276,-0.0016060040222991149,0.0014195981013535137,0.012090527475893186,0.019574745902338788,0.009627087270759468,0.01479606379506584
0.0102414,0.004690031674342667,0.0041515862303259325,-0.0014254477013137395,0.0014660503721447154,0.01230191443448892,0.019712861187607268,0.009915142115574385,0.014951777645070254
0.0107069,0.0048048530587709755,0.004231536975100782,-0.001244484041357382,0.0015122942825768055,0.012514264182467488,0.01984961602321991,0.010202174577001072,0.015106300078597834
0.0111724,0.004919859756794039,0.004310920016883485,-0.001063122043819186,0.0015583251253614757,0.012727555818098367,0.019984981764642303,0.010488142917441006,0.015259606217407169
0.0116379,0.005035037814891559,0.0043897235423742825,-0.0008813706606232754,0.0016041382760963374,0.012941768207396294,0.020118930038620895,0.010773005616289138,0.015411671494848555
0.0121034,0.005150373214831715,0.004467935881553997,-0.0006992387933077828,0.0016497291948028756,0.013156879988707685,0.02025143275327818,0.011056721382264824,0.015562471664181697
0.012569,0.005265851877046079,0.004545545511099511,-0.0005167352922065683,0.0016950934274211605,0.013372869577368532,0.020382462108127785,0.011339249165668443,0.015711982806738804
0.0130345,0.0053814596640271335,0.004622541057723135,-0.00033386895573384143,0.00174022660726038,0.013589715170431808,0.020511990604003022,0.011620548170559311,0.01586018133992813
0.0135,0.005497182383747303,0.0046989113014342665,-0.0001506485297717095,0.0017851244564043075,0.013807394751462414,0.020639991052892506,0.011900577866850422,0.016007044025073046
0.0139655,0.005613005793098431,0.004774645178721761,3.291729283951506e-05,0.001829782787070854,0.014025886095397583,0.020766436587676552,0.01217929800231561,0.01615254797508175
0.014431,0.005728915601350602,0.004849731785655461,0.00021681987270860602,0.0018741975029249076,0.014245166773470588,0.02089130067175817,0.012456668614504694,0.01629667066194287
0.0148966,0.005844897473629233,0.00492416038090538,0.00040105062419882584,0.0019183646003436867,0.014465214158195546,0.021014557108582677,0.012732650042562242,0.016439389924042275
0.0153621,0.0059609370344093325,0.004997920388677048,0.000585601015632072,0.00196228016963388,0.014686005428411171,0.021136180051040128,0.01300720293894551,0.016580683973296463
0.0158276,0.006077019871025865,0.005071001401561662,0.000770462569392486,0.002005940396199863,0.014907517574381256,0.02125614401074523,0.013280288281037259,0.016720531402098004
0.0162931,0.006193131537199132,0.005143393183299711,0.0009556268619303114,0.0020493415616623023,0.015129727402949739,0.021374423867189612,0.013551867382648993,0.016858911190068507
0.0167586,0.00630925755657409,0.005215085671456941,0.0011410855236668631,0.0020924800449264674,0.015352611542748206,0.021490994876761746,0.013821901905410324,0.016995802710614502
0.0172241,0.006425383426272489,0.005286068980011676,0.0013268302388015861,0.0021353523231996047,0.015576146449453767,0.021605832681629897,0.014090353870040014,0.017131185737281725
0.0176897,0.006541494620456727,0.005356333401852736,0.0015128527450223085,0.0021779549729567527,0.015800308411095122,0.021718913318483413,0.014357185667494308,0.01726504044990328
0.0181552,0.0066575765939042375,0.005425869411187463,0.0016991448331199538,0.0022202846708544327,0.0160250735534047,0.02183021322712774,0.014622360069988093,0.017397347440537284
0.0186207,0.006773614785591225,0.005494667665859588,0.0018856983465091153,0.002262338194591712,0.01625041784521468,0.021939709258928308,0.014885840241884484,0.01752808771918962
0.0190862,0.006889594622284489,0.005562719009576945,0.0020725051806560067,0.002304112423718173,0.016476317103894644,0.022047378685098384,0.015147589750448423,0.017657242719317352
0.0195517,0.00700550152214007,0.005630014474049134,0.0022595572824153968,0.0023456043403883658,0.016702747000828595,0.0221531992048258,0.015407572576459961,0.017784794303108448
0.0200172,0.007121320898307369,0.005696545281035383,0.0024468466492781928,0.002386811030062344,0.016929683066928887,0.022257148953233424,0.01566575312468286,0.017910724766533197
0.0204828,0.00723703816253739,0.005762302844302928,0.002634365328531375,0.0024277296821518884,0.01715710069818459,0.02235920650916811,0.015922096234184203,0.018035016844162855
0.0209483,0.007352638728793652,0.00582727877149625,0.002822105416332031,0.002468357590612023,0.017384975161241684,0.022459350902812827,0.01617656718850074,0.018157653713750888
0.0214138,0.007468108016864356,0.005891464865917592,0.0030100590566972717,0.0025086921544774077,0.017613281599012463,0.022557561623116635,0.016429131725647646,0.018278619000572306
0.0218793,0.007583431455974323,0.005954853128219292,0.003198218440411842,0.0025487308783431854,0.017841995036311502,0.022653818625037368,0.01667975604796562,0.01839789678151659
0.0223448,0.007698594488395243,0.006017435758008525,0.0033865758038552876,0.0025884713727898473,0.018071090385515506,0.022748102336591945,0.016928406831802283,0.018515471588929786
0.0228103,0.007813582573052721,0.006079205155365112,0.003575123427750561,0.0026279113547516674,0.018300542452244384,0.022840393665709665,0.017175051237024185,0.018631328414201287
0.0232759,0.007928381189128654,0.0061401539222731205,0.003763853635835983,0.002667048647828238,0.018530325941060827,0.022930674006883957,0.01741965691635593,0.018745452711090873
0.0237414,0.008042975839657393,0.006200274863966988,0.003952758793462501,0.0027058811825386602,0.018760415461185617,0.023018925247618442,0.017662192024543034,0.01885783039879161
0.0242069,0.008157352055114173,0.006259560990192951,0.004141831306118189,0.002744406996517925,0.018990785532225725,0.02310512977466348,0.017902625227335187,0.018968447864724416
0.0246724,0.008271495396994247,0.0063180055163865765,0.004331063617881936,0.0027826242346550793,0.01922141058991228,0.023189270480039915,0.018140925710286606,0.019077291967060348
0.0251379,0.008385391461381207,0.0063756018647672386,0.004520448209808274,0.0028205311491727924,0.019452264991845245,0.023271330766847217,0.018377063187370198,0.01918435003696705
0.0256034,0.008499025882503022,0.0064323436653504675,0.004709977598245278,0.002858126099648043,0.019683323023241592,0.023351294554853727,0.018611007909402354,0.019289609880576368
0.026069,0.008612384336274443,0.0064882247568791435,0.004899644333087475,0.0028954075529737146,0.01991455890268367,0.023429146285867317,0.018842730672275442,0.01939305978067083
0.0265345,0.008725452543824513,0.006543239187674551,0.005089440995965693,0.002932374083260937,0.0201459467878644,0.02350487092888545,0.019072202824995204,0.019494688498087685
0.027,0.008838216275008106,0.00659738121640844,0.005279360198375808,0.002969024371682098,0.02037746078132602,0.023578453985024377,0.019299396277520378,0.01959448527284007
0.0274655,0.008950661351900502,0.006650645312797266,0.00546939457974834,0.0030053572062544703,0.02060907493618916,0.023649881492227784,0.019524283508402015,0.019692439824955835
0.027931,0.009062773652274163,0.006703026158219897,0.00565953680546088,0.0030413714815644946,0.020840763261869105,0.023719140029755982,0.019746837572219858,0.019788542355035674
0.0283966,0.009174539113056922,0.006754518646260119,0.005849779564795333,0.003077066198432863,0.021072499729776314,0.023786216722457613,0.019967032106813335,0.019882783544533045
0.0288621,0.00928594373377095,0.006805117883175313,0.006040115568842007,0.003112440463520672,0.021304258278998293,0.02385109924482643,0.020184841340304738,0.019975154555759673
0.0293276,0.00939697357995186,0.006854819188292739,0.006230537548352598,0.0031474934888770932,0.02153601282195997,0.02391377582484615,0.020400240097912328,0.02006564703162114
0.0297931,0.00950761478654744,0.00690361809433489,0.0064210382515441766,0.003182224591429128,0.021767737250059704,0.02397423524762664,0.020613203808551167,0.020154253095088007
0.0302586,0.009617853561295478,0.006951510347675361,0.006611610441856259,0.0032166331924141315,0.021999405439278075,0.024032466858834742,0.020823708511219768,0.02024096534840883
0.0307241,0.00972767618808024,0.006998491908526757,0.006802246895663066,0.0032507188167558597,0.022230991255756494,0.024088460567923603,0.021031730861170807,0.020325776872071977
0.0311897,0.00983706903026707,0.0070445589510621034,0.006992940399943047,0.0032844810923848317,0.022462468561343065,0.024142206851164378,0.021237248135864566,0.020408681223523767
0.0316552,0.009946018534014634,0.007089707863471211,0.00718368374990774,0.003317919749503853,0.022693811219103233,0.02419369675448437,0.021440238240704085,0.020489672435650513
0.0321207,0.010054511231564242,0.007133935247953425,0.007374469746592072,0.0033510346197995937,0.022924993098793024,0.024242921896115953,0.021640679714551424,0.02056874501503214
0.0325862,0.010162533744505807,0.007177237920648162,0.00756529119440829,0.0033838256356012,0.02315598808229316,0.02428987446906041,0.02183855173502475,0.020645893939975027
0.0330517,0.010270072787020003,0.007219612911504547,0.007756140898665738,0.0034162928289869898,0.023386770069002485,0.024334547243371016,0.0220338341235763,0.020721114658331572
0.0335172,0.010377115169096375,0.007261057464091471,0.007947011663058756,0.0034484363308403807,0.023617312981189336,0.024376933568259394,0.022226507350351664,0.020794403085114148
0.0339828,0.010483647799727219,0.007301569035349298,0.008137896287125027,0.0034802563698562946,0.02384759076929977,0.024417027374029406,0.022416552538830913,0.020865755599910874
0.0344483,0.010589657690077255,0.007341145295284394,0.008328787563676684,0.003511753271499339,0.024077577417221666,0.024454823173842417,0.02260395147025222,0.02093516904411071
0.0349138,0.010695131956629227,0.00737978412660766,0.008519678276206493,0.0035429274569151515,0.02430724694750391,0.0244903160653181,0.022788686587818643,0.02100264071794537
0.0353793,0.01080005782430566,0.007417483624318161,0.008710561196271383,0.0035737794417963335,0.024536573426529925,0.024523501731974602,0.02297074100068886,0.02106816837735555
0.0358448,0.010904422629567125,0.007454242095232932,0.008901429080855693,0.003604309835204388,0.024765530969644605,0.02455437644451207,0.023150098487752693,0.021131750230689163
0.0363103,0.011008213823487378,0.0074900580574640005,0.00909227466971648,0.0036345193383491114,0.024994093746233834,0.02458293706194315,0.023326743501192338,0.021193384935239062
0.0367759,0.011111418974805897,0.007524930239843677,0.009283090682713383,0.003664408743326861,0.025222235984755655,0.02460918103257412,0.023500661169830208,0.021253071593627985
0.0372414,0.011214025772958238,0.007558857581299079,0.009473869817125625,0.00369397893181914,0.025449931977722173,0.024633106394840055,0.023671837302264357,0.021310809750048128
0.0377069,0.01131602203108471,0.007591839230176982,0.009664604744958822,0.003723230873752966,0.025677156086631424,0.024654711777997218,0.023840258389792444,0.021366599386362702
0.0381724,0.011417395689017774,0.007623874543520048,0.009855288110244404,0.003752165625924498,0.0259038827468486,0.024673996402675858,0.02400591160912523,0.021420440918076714
0.0386379,0.011518134816248572,0.007654963086295542,0.010045912526334475,0.0037807843305874235,0.026130086472436087,0.02469096008129619,0.02416878482489061,0.02147233519018397
0.0391034,0.0116182276148729,0.007685104630577711,0.010236470573195018,0.003809088214007628,0.026355741860931925,0.024705603218350452,0.02432886659192916,0.021522283472897273
0.039569,0.011717662422516949,0.007714299154685026,0.010426954794700332,0.0038370785849856696,0.02658082359807644,0.024717926810553605,0.02448614615738222,0.021570287457268505
0.0400345,0.011816427715243086,0.007742546842273523,0.010617357695931558,0.0038647568333485933,0.0268053064624869,0.024727932446865226,0.024640613462573385,0.021616349250705214
0.0405,0.011914512110435883,0.00776984808138747,0.010807671740482113,0.0038921244284126104,0.02702916533028,0.02473562230838496,0.024792259144684504,0.021660471372390057
0.0409655,0.01201190436966856,0.007796203463468597,0.01099788934777278,0.003919182917418149,0.027252375179641988,0.02474099916812381,0.02494107453822693,0.021702656748609363
0.041431,0.012108593401549983,0.007821613782325099,0.011188002890379136,0.003945933923938761,0.027474911095346288,0.024744066390653338,0.02508705167630904,0.021742908707996843
0.0418966,0.012204568264552178,0.007846080033061609,0.01137800469137391,0.003972379146265381,0.027696748273218236,0.024744827931634718,0.025230183291700934,0.021781230976698315
0.0423621,0.01229981816981832,0.007869603410971274,0.011567887021686877,0.003998520355767402,0.027917862024546797,0.024743288337229462,0.02537046281769725,0.02181762767346317
0.0428276,0.012394332483951017,0.007892185310391058,0.01175764209748482,0.004024359395232074,0.028138227780442976,0.02473945274339349,0.025507884388779194,0.021852103304668146
0.0432931,0.012488100731780605,0.007913827323521323,0.011947262077574013,0.004049898177183691,0.028357821096144677,0.024733326875055854,0.025642442841076918,0.02188466275927872
0.0437586,0.012581112599113138,0.007934531239210688,0.012136739060827621,0.00407513868218401,0.028576617655267752,0.02472491704518345,0.025774133712633363,0.021915311303753446
0.0442241,0.012673357935457649,0.00795429904170712,0.012326065083640298,0.004100082957115364,0.02879459327400289,0.02471423015373278,0.02590295324347054,0.02194405457689639
0.0446897,0.012764826756732149,0.007973132909376169,0.012515232117412296,0.004124733113447876,0.029011723905257945,0.024701273686489555,0.026028898375459127,0.02197089858466252
0.0451552,0.012855509247947804,0.00799103521338724,0.012704232066065253,0.004149091325492163,0.02922798564274523,0.02468605571379676,0.02615196675199203,0.021995849694921066
0.0456207,0.012945395765870596,0.008008008516368749,0.012893056763591785,0.0041731598286389405,0.029443354725013304,0.024668584889171674,0.02627215671746252,0.022018914632181506
0.0460862,0.013034476841659726,0.008024055571032982,0.013081697971640986,0.004196940917586909,0.029657807539422505,0.02464887044781205,0.026389467316547302,0.02204010047228683
0.0465517,0.013122743183481885,0.008039179318771541,0.013270147377141795,0.0042204369445602965,0.02987132062606334,0.02462692220499162,0.026503898293294907,0.022059414637078688
0.0470172,0.013210185679100523,0.008053382888222218,0.013458396589966223,0.004243650317517432,0.030083870681616793,0.02460275055434486,0.02661545009001973,0.0220768648890388
0.0474828,0.013296795398439046,0.008066669593808262,0.013646437140634385,0.004266583498351669,0.030295434563155393,0.024576366466040892,0.026724123846001927,0.022092459325911147
0.0479483,0.013382563596116887,0.008079042934251015,0.013834260478063323,0.00428923900108597,0.03050598929188373,0.024547781484846085,0.02682992139599333,0.022106206375309172
0.0484138,0.013467481713957202,0.008090506591056968,0.014021857967361651,0.004311619390062443,0.03071551205681718,0.024517007728074913,0.02693284526852958,0.022118114789312242
0.0488793,0.013551541383464956,0.008101064426980244,0.014209220887672068,0.004333727278128058,0.03092398021839754,0.02448405788342834,0.027032898684048828,0.02212819363905554
0.0493448,0.013634734428274002,0.008110720484461561,0.014396340430063725,0.004355565324817777,0.031131371312044298,0.024448945206718888,0.027130085552817367,0.022136452309317448
0.0498103,0.013717052866561715,0.008119478984044665,0.014583207695476405,0.004377136234536283,0.03133766305164015,0.024411683519481333,0.027224410472662816,0.022142900493108172
0.0502759,0.013798488913429609,0.008127344322771167,0.014769813692718398,0.0043984427547394435,0.031542833332949334,0.024372287206467776,0.027315878726515537,0.022147548186263376
0.0507414,0.013879034983248356,0.008134321072554742,0.014956149336519875,0.004419487674116659,0.031746860236967184,0.02433077121302569,0.027404496279759254,0.022150405682046344
0.0512069,0.013958683691965637,0.008140413978535594,0.01514220544564345,0.004440273820775164,0.031949722033199325,0.024287151042357426,0.02749026977739194,0.022151483565762034
0.0516724,0.01403742785937527,0.008145627957416204,0.015327972741053622,0.0044608040604273685,0.032151397182868885,0.02424144275265954,0.027573206540998103,0.022150792709386136
0.0521379,0.01411526051134624,0.008149968095779286,0.01551344184414675,0.004481081294582257,0.032351864342050285,0.024193662954140244,0.02765331456553359,0.02214834426621223
0.0526034,0.014192174882010364,0.008153439648388987,0.015698603275043244,0.004501108458741856,0.03255110236472801,0.02414382880591343,0.02773060251592403,0.02214414966551982
0.053069,0.014268164415907501,0.00815604803647639,0.015883447450943583,0.004520888520603774,0.03274909030577882,0.02409195801276762,0.027805079723478076,0.02213822060726592
0.0535345,0.014343222770087356,0.008157798846010395,0.016067964684549865,0.004540424478270726,0.032945807423875706,0.024038068821808194,0.027876756182116543,0.02213056905680263
0.054,0.014417343816166954,0.008158697825955009,0.016252145182554457,0.004559719358467985,0.033141233184311995,0.023982180018971327,0.027945642544418628,0.02212120723962306
0.0544655,0.014490521642342892,0.008158750886514136,0.016435979044197305,0.004578776214769643,0.033335347261743725,0.023924310925408098,0.02801175011748626,0.02211014763613781
0.054931,0.014562750555357435,0.008157964097364807,0.016619456259893337,0.004597598125834533,0.0335281295428487,0.023864481393737192,0.02807509085862763,0.02209740297648404
0.0553966,0.014634025082417432,0.008156343685879839,0.016802566709931303,0.004616188193652631,0.03371956012890077,0.023802711804164895,0.028135677370860812,0.022082986235369115
0.0558621,0.01470433997306498,0.008153896035340795,0.016985300163245374,0.004634549541802733,0.0339096193382577,0.02373902306047118,0.028193522898238444,0.022066910626950598
0.0563276,0.014773690200998685,0.00815062768314215,0.01716764627626065,0.004652685313722209,0.03409828770876146,0.02367343658586075,0.028248641320994607,0.022049189599754358
0.0567931,0.014842070965844294,0.008146545318987447,0.01734959459181373,0.004670598670989557,0.03428554600004975,0.023605974318678148,0.028301047150514874,0.022029836831632257
0.0572586,0.014909477694873444,0.008141655783078294,0.017531134538149366,0.004688292791620516,0.034471375195778406,0.0235366587079861,0.028350755524130772,0.022008866224760868
0.0577241,0.014975906044669272,0.008135966064296939,0.017712255427994292,0.004705770868378415,0.034655756505754295,0.023465512709006417,0.028397782199739815,0.021986291900682534
0.0581897,0.015041351902737489,0.008129483298383172,0.017892946457709096,0.0047230361070994455,0.034838671367979135,0.023392559778422924,0.02844214355025246,0.021962128195389913
0.0586552,0.015105811389061545,0.008122214766106195,0.01807319670651905,0.004740091725033473,0.03502010145060445,0.023317823869546072,0.0284838565578675,0.02193638965445538
0.0591207,0.015169280857600399,0.008114167891432121,0.018252995135824686,0.0047569409492009785,0.035200028653798364,0.023241329427338763,0.028522938808177606,0.021909091028206432
0.0595862,0.015231756897727301,0.00810535023968768,0.018432330588592744,0.0047735870147666976,0.03537843511152496,0.023163101383302916,0.02855940848410693,0.02188024726694834
0.0600517,0.015293236335607967,0.008095769515720686,0.018611191788828155,0.004790033163430453,0.0355553031932372,0.023083165150226237,0.028593284359682787,0.021849873516235182
0.0605172,0.015353716235516303,0.008085433562057787,0.018789567341127463,0.0048062826418356925,0.03573061550548471,0.023001546616788687,0.028624585793643565,0.02181798511219055
0.0609828,0.01541319390108588,0.008074350357060006,0.018967445730314114,0.004822338699996181,0.03590435489343773,0.022918272142028174,0.02865333272288517,0.021784597576879096
0.0614483,0.015471666876495245,0.008062528013076551,0.019144815321155917,0.004838204589741309,0.03607650444232832,0.0228333685496651,0.028679545655748713,0.02174972661373018
0.0619138,0.01552913294758516,0.008049974774597327,0.019321664358164983,0.004853883563180449,0.036247047478810024,0.022746863122285743,0.028703245665152425,0.02171338810301484
0.0623793,0.015585590142905982,0.008036699016404584,0.019497980965480402,0.0048693788711867735,0.036415967572236814,0.022658783595384473,0.028724454381571164,0.021675598097377218
0.0628448,0.01564103673469336,0.008022709241724081,0.019673753146833964,0.004884693761900944,0.036583248535861916,0.022569158151265416,0.028743193985867107,0.021636372817421628
0.0633103,0.015695471239770508,0.008008014080376097,0.019848968785599237,0.004899831479255036,0.03674887442795706,0.022478015412804288,0.02875948720197546,0.021595728647356153
0.0637759,0.015748892420375353,0.007992622286926553,0.020023615644924487,0.004914795261517046,0.03691282955285267,0.022385384437071366,0.028773357289449127,0.02155368213069365
0.0642414,0.015801299284910742,0.00797654273883846,0.020197681367949978,0.004929588339856321,0.037075098461899623,0.02229129470881674,0.02878482803586654,0.021510249966010843
0.0647069,0.015852691088615926,0.00795978443462383,0.020371153478110113,0.004944213936930215,0.037235665954353084,0.022195776133819324,0.028793923749107077,0.021465449002766056
0.0651724,0.015903067334157372,0.007942356491996119,0.020544019379521095,0.004958675265492279,0.037394517078178854,0.022098859032101074,0.028800669249498544,0.021419296237176068
0.0656379,0.015952427772137002,0.007924268146023273,0.020716266357454494,0.004972975527022275,0.03755163713078279,0.022000574131008328,0.02880508986184128,0.021371808808152253
0.0661034,0.01600077240151584,0.00790552874728131,0.02088788157889723,0.004987117910378312,0.03770701165966345,0.02190095255816219,0.028807211407313366,0.0213230039932964
0.066569,0.0160481014699511,0.00788614776000837,0.021058852093198306,0.005001105590471384,0.037860626462987955,0.02180002583428029,0.028807060195261337,0.02127289920495633
0.0670345,0.016094415474044613,0.007866134760259103,0.02122916483280273,0.005014941726962598,0.038012467590090825,0.021697825865872065,0.028804663014880872,0.021221511986341403
0.0675,0.01613971515950067,0.007845499434059178,0.021398806614072945,0.0050286294629833615,0.038162521341895135,0.02159438493781007,0.028800047126791913,0.02116886000769786
0.0679655,0.016184001521191115,0.007824251575559714,0.0215677641381981,0.005042171923878797,0.03831077427125523,0.02148973570577974,0.02879324025451258,0.021114961062544076
0.068431,0.016227275803125628,0.007802401085191311,0.021736023992191558,0.00505557221597462,0.03845721318321992,0.021383911188610008,0.028784270575836154,0.021059833063965482
0.0688966,0.016269539498325013,0.007779957967817429,0.021903572649977072,0.0050688334253677254,0.03860182513521503,0.02127694476048715,0.028773166714115204,0.021003494040969056
0.0693621,0.016310794348595475,0.007756932330886781,0.022070396473563913,0.005081958616740746,0.038744597437144236,0.021168870143054342,0.0287599577294568,0.020945962134896964
0.0698276,0.01635104234420195,0.00773333438258443,0.0222364817143114,0.0050949508322008395,0.03888551765140731,0.0210597213973992,0.028744673109832683,0.02088725559589895
0.0702931,0.016390285723438747,0.007709174429981207,0.022401814514283133,0.005107813090143017,0.03902457359283516,0.02094953291593183,0.028727342762108258,0.020827392779462835
0.0707586,0.01642852697209598,0.007684462877181046,0.022566380907691443,0.005120548384138322,0.039161753328541264,0.020838339414155665,0.028707997002994524,0.02076639214300243
0.0712241,0.016465768822820595,0.007659210223465778,0.022730166822432358,0.005133159681847162,0.03929704517768933,0.020726175922333546,0.028686666549927253,0.020704272242501962
0.0716897,0.016502014254370947,0.007633427061436895,0.022893158081711426,0.005145649923958136,0.039430437711177026,0.02061307777705136,0.02866338251187788,0.020641051729216004
0.0721552,0.016537266490764133,0.0076071240751537945,0.023055340405760717,0.005158022023152638,0.039561919751235755,0.020499080612681547,0.02863817638010085,0.020576749346423832
0.0726207,0.016571529000315593,0.007580312038268013,0.023216699413647082,0.005170278863095549,0.03969148037094679,0.020384220352748575,0.028611080018822073,0.02051138392623696
0.0730862,0.016604805494570482,0.007553001812153021,0.02337722062517174,0.005182423297452293,0.03981910889367419,0.020268533201198494,0.02858212565587332,0.02044497438645841
0.0735517,0.016637099927126454,0.00752520434402917,0.023536889462861015,0.005194458148932524,0.039944794892415314,0.02015205563357446,0.028551345873277387,0.02037753972749225
0.0740172,0.016668416492347512,0.00749693066508346,0.02369569125404803,0.005206386208360742,0.04006852818906992,0.020034824388100007,0.028518773597788896,0.020309099029301572
0.0744828,0.016698759623968596,0.007468191888583856,0.023853611233045097,0.005218210233774051,0.040190298853628736,0.019916876456671794,0.028484442091395737,0.020239671448413172
0.0749483,0.01672813399359082,0.007438999207987944,0.02401063454340624,0.005229932949547305,0.04031009720328271,0.019798249075763236,0.028448384941785736,0.020169276214966857
0.0754138,0.01675654450906744,0.00740936389504577,0.024166746240279372,0.005241557045545821,0.04042791380145411,0.01967897971724045,0.028410636052783152,0.0200979326298073
0.0758793,0.01678399631278091,0.007379297297896782,0.02432193129284748,0.00525308517630582,0.04054373945675074,0.01955910607909167,0.02837122963475934,0.020025660061616164
0.0763448,0.016810494779811672,0.007348810839160848,0.02447617458685824,0.005264519960242712,0.04065756522184489,0.019438666076071233,0.0283302001950217,0.01995247794408209
0.0768103,0.016836045515999452,0.007317916014023379,0.024629460927241515,0.005275863978887313,0.04076938239227844,0.019317697830258978,0.028287582528184852,0.019878405773106008
0.0772759,0.01686065435589817,0.0072866243883146515,0.02478177504081422,0.00528711977615008,0.04087918250519622,0.019196239661535816,0.028243411706527874,0.01980346310403922
0.0777414,0.0168843273606255,0.007254947596583502,0.024933101579072057,0.005298289857613454,0.04098695733801009,0.019074330077976067,0.028197723070341112,0.019727669548951637
0.0782069,0.01690707081560838,0.007222897340165483,0.025083425121067867,0.005309376689852394,0.04109269890699671,0.018952007766157124,0.028150552218265835,0.019651044773927703
0.0786724,0.016928891228225867,0.0071904853852456565,0.025232730176376273,0.00532038269978325,0.04119639946583218,0.018829311581386905,0.02810193499762988,0.019573608496387434
0.0791379,0.016949795325350833,0.007157723560916143,0.02538100118814443,0.0053313102740410725,0.04129805150406701,0.018706280537849507,0.028051907494782213,0.019495380482430227
0.0796034,0.016969790050792178,0.007124623757228618,0.025528222536228606,0.005342161758385538,0.04139764774554477,0.018582953798669796,0.028000506025429004,0.019416380544199
0.080069,0.01698888256263928,0.0070911979232419564,0.025674378540416345,0.005352939457135605,0.04149518114676806,0.018459370665897947,0.027947767124973745,0.01933662853726236
0.0805345,0.017007080230510417,0.0070574580650652734,0.025819453463733842,0.005363645632633059,0.04159064489521597,0.018335570570415505,0.02789372753886364,0.019256144358012636
0.081,0.01702439063270698,0.0070234162438967285,0.02596343151583805,0.005374282504735053,0.041684032407617186,0.01821159306176515,0.027838424212944354,0.019174947941077672
0.0814655,0.017040821553275094,0.00698908457405847,0.02610629685649287,0.005384852250335737,0.04177533732818386,0.018087477797906745,0.027781894283825003,0.019093059256744583
0.081931,0.017056380978976313,0.006954475221028136,0.026248033599128612,0.005395357002917075,0.04186455352681111,0.017963264534902882,0.027724175069255244,0.01901049830839389
0.0823966,0.01707107709616894,0.00691960039946733,0.02638862581448384,0.005405798852128939,0.041951675097247586,0.017838993116537482,0.02766530405851593,0.018927285129942652
0.0828621,0.017084918287601475,0.0068844723712474685,0.026528057534328617,0.005416179843398574,0.042036696355241925,0.017714703463871575,0.027605318902824777,0.018843439783295644
0.0833276,0.017097913129119586,0.006849103443473422,0.026666312755268224,0.005426501977569522,0.042119611836670005,0.0175904355647407,0.027544257405758252,0.018758982355804175
0.0837931,0.01711007038628808,0.006813505966505304,0.026803375442626603,0.005436767210570097,0.042200416295647795,0.017466229463198684,0.027482157513690618,0.018673932957732522
0.0842586,0.017121399010929197,0.0067776923319787736,0.026939229534408696,0.005446977453111477,0.04227910470263426,0.01734212524891273,0.02741905730625091,0.01858831171973234
0.0847241,0.017131908137578637,0.006741674970824197,0.02707385894534109,0.005457134570415466,0.04235567224252867,0.01721816304651495,0.02735499498679841,0.01850213879032559
0.0851897,0.017141607079860694,0.0067054663512850065,0.02720724757099028,0.005467240381972026,0.04243011431276659,0.01709438300491559,0.027290008872916962,0.018415434333396548
0.0856552,0.01715050532678402,0.006669078976935652,0.027339379291957823,0.005477296661326614,0.042502426521418814,0.016970825286583245,0.027224137386928304,0.01832821852569335
0.0861207,0.01715861253895967,0.006632525384699465,0.02747023797815152,0.005487305135897403,0.042572604685297256,0.016847530056797518,0.02715741904642446,0.0182405115543397
0.0865862,0.017165938544743138,0.006595818142866812,0.027599807493131588,0.005497267486822406,0.042640644828071804,0.016724537472879615,0.027089892454818965,0.018152333614357224
0.0870517,0.01717249333630227,0.006558969849113889,0.027728071698530688,0.005507185348836529,0.042706543178401904,0.01660188767340629,0.02702159629191663,0.0180637049061991
0.0875172,0.017178287065612793,0.006521993128522503,0.027855014458546636,0.005517060310178569,0.04277029616808679,0.016479620767412516,0.026952569304501357,0.017974645633295525
0.0879828,0.017183330040383284,0.006484900631601144,0.027980619644506433,0.005526893912528158,0.042831900430238254,0.016357776823588042,0.026882850296941145,0.017885175999611654
0.0884483,0.017187632719911257,0.006447705032307652,0.028104871139500377,0.005536687650972597,0.04289135279747973,0.016236395859473028,0.02681247812180952,0.01779531620721848
0.0889138,0.01719120571087193,0.0064104190260737375,0.028227752843085003,0.005546442974003574,0.042948650300175306,0.016115517830657625,0.026741491670522286,0.017705086453877247
0.0893793,0.017194059763041034,0.006373055327831571,0.028349248676053665,0.005556161283543661,0.043003790164692315,0.015995182619990476,0.026669929863988574,0.017614506930637756
0.0898448,0.017196205764953065,0.006335626670042641,0.028469342585273658,0.005565843935002516,0.04305676981170048,0.015875430026800787,0.026597831643275227,0.01752359781945099
0.0903103,0.017197654739496086,0.0062981458007289985,0.028588018548588827,0.005575492237362615,0.043107586854510736,0.01575629975613861,0.02652523596028368,0.017432379290796284
0.0907759,0.01719841783944431,0.006260625481506995,0.02870526057978669,0.005585107453294355,0.043156239097456306,0.015637831408037806,0.026452181768438863,0.017340871501323196
0.0912414,0.01719850634292955,0.006223078485623524,0.028821052733629053,0.005594690799300345,0.043202724534318365,0.015520064466805976,0.02637870801339,0.01724909459150817
0.0917069,0.017197931648852645,0.006185517595994756,0.028935379110944917,0.005604243445888675,0.04324704134679825,0.015403038290345627,0.026304853623723406,0.017157068683325824
0.0921724,0.017196705272235983,0.006147955603247303,0.029048223863784424,0.005613766517774959,0.04328918790303777,0.015286792099510645,0.026230657501687526,0.01706481387793474
0.0926379,0.017194838839518337,0.006110405303761714,0.02915957120063249,0.00562326109411298,0.04332916275618888,0.015171364967501986,0.026156158513930827,0.016972350253377396
0.0931034,0.017192344083793252,0.006072879497718136,0.029269405391680613,0.005632728208753759,0.04336696464303344,0.01505679580930649,0.02608139548225321,0.016879697862293857
0.093569,0.017189232839992637,0.006035390987143976,0.029377710774155314,0.005642168850532872,0.04340259248265373,0.01494312337118247,0.02600640717437177,0.016786876729648594
0.0940345,0.01718551704001731,0.0059979525739633725,0.029484471757701497,0.005651583963585794,0.04343604537515378,0.014830386220195668,0.025931232294701807,0.016693906850469738
0.0945,0.017181208707816475,0.0059605770580482,0.029589672829818912,0.005660974447691105,0.043467322600431194,0.014718622733809038,0.025855909475153913,0.016600808187599875
0.0949655,0.017176319954418224,0.00592327723527037,0.02969329856134979,0.005670341158641379,0.04349642361699912,0.014607871089529654,0.025780477265947982,0.016507600669457362
0.095431,0.01717086297291321,0.00588606589555514,0.029795333612015515,0.005679684908641602,0.0435233480608573,0.014498169254615932,0.02570497412644489,0.01641430418780701
0.0958966,0.01716485003339367,0.005848955820935126,0.029895762736000055,0.00568900646673502,0.043548095744411146,0.014389554975848248,0.025629438415996797,0.016320938595538858
0.0963621,0.017158293477850074,0.005811959783604728,0.02999457078757765,0.005698306559256391,0.043570666655437386,0.014282065769365866,0.025553908384816887,0.016227523704453548
0.0968276,0.017151205715027873,0.005775090543974658,0.030091742726782025,0.005707585870312636,0.04359106095609436,0.014175738910572996,0.025478422164869584,0.016134079283052848
0.0972931,0.017143599215246857,0.00573836084872625,0.030187263625114355,0.005716845042290918,0.04360927898197487,0.014070611424116692,0.02540301776078203,0.01604062505433358
0.0977586,0.017135486505185968,0.005701783428865242,0.030281118671287063,0.005726084676394182,0.04362532124119931,0.013966720073939147,0.025327733040777692,0.015947180693583394
0.0982241,0.01712688016263644,0.005665370997774642,0.030373293177000573,0.005735305333204194,0.0436391884135467,0.01386410135340685,0.025252605727632826,0.0158537658261767
0.0986897,0.017117792811226402,0.0056291362492663435,0.03046377258275025,0.005744507533272087,0.04365088134962159,0.013762791475518949,0.0251776733896566,0.01576040002536929
0.0991552,0.017108237115120016,0.005593091855631094,0.030552542463660962,0.005753691757736454,0.043660401070054755,0.013662826363197083,0.02510297343169558,0.01566710281009048
0.0996207,0.017098225773694523,0.005557250465686414,0.03063958853534695,0.0057628584489689645,0.04366774876473604,0.013564241639658848,0.025028543086163372,0.015573893642731618
0.1000862,0.01708777151619849,0.005521624702822031,0.03072489665979483,0.005772008011247541,0.0436729257920778,0.013467072618876941,0.024954419404096154,0.015480791926930254
0.1005517,0.017076887096394603,0.005486227163042406,0.030808452851267883,0.00578114081145708,0.04367593367830715,0.013371354296125976,0.024880639246234827,0.0153878170053493
0.1010172,0.017065585287190328,0.0054510704130058445,0.030890243282229845,0.005790257179817676,0.043676774116785146,0.013277121338618903,0.02480723927413463,0.01529498815745081
0.1014828,0.01705387887525967,0.005416166988059725,0.030970254289286524,0.005799357410640262,0.043675448967350976,0.013184408076234845,0.024734255941303143,0.01520232459726409
0.1019483,0.017041780655659346,0.005381529390271369,0.03104847237914349,0.0058084417631095635,0.043671960255688924,0.013093248492340153,0.024661725484367604,0.015109845471148098
0.1024138,0.017029303426442877,0.005347170086454147,0.03112488423457803,0.005817510462094235,0.043666310172716286,0.01300367621470431,0.02458968391427273,0.01501756985554806
0.1028793,0.017016459983276028,0.005313101506188506,0.03119947672042345,0.005826563698983961,0.043658501073990566,0.012915724506512303,0.024518167007510378,0.014925516754746534
0.1033448,0.017003263114057574,0.005279336039837701,0.03127223688956383,0.005835601632553315,0.04364853547913484,0.012829426257474982,0.0244472102973825,0.014833705098609332
0.1038103,0.016989725593549308,0.005245886036558088,0.031343151988937154,0.0058446243898521,0.0436364160712807,0.012744813975038837,0.02437684906529899,0.014742153740326822
0.1042759,0.016975860178019466,0.005212763802303927,0.03141220946554514,0.005853632067121844,0.04362214569652869,0.012661919775696485,0.024307118332111827,0.014650881454151415
0.1047414,0.016961679599903783,0.005179981597826669,0.03147939697246794,0.005862624730738082,0.043605727363426224,0.012580775376399091,0.02423805284948682,0.01455990693313208
0.1052069,0.01694719656248834,0.00514755163666874,0.03154470237488223,0.005871602418178054,0.04358716424246334,0.012501412086071858,0.02416968709131432,0.014469248786846994
0.1056724,0.016932423734618427,0.005115486083151803,0.031608113756081226,0.00588056513901334,0.04356645966558662,0.012423860797233607,0.0241020552451601,0.01437892553913552
0.1061379,0.01691737374543752,0.005083797050359588,0.031669619423495235,0.005889512875926985,0.04354361712573149,0.012348151977721438,0.024035191203758143,0.0142889556258307
0.1066034,0.016902059179160277,0.005052496598115383,0.03172920791471166,0.005898445585754571,0.043518640276372915,0.01227431566252138,0.023969128556547092,0.014199357392493516
0.107069,0.016886492569883456,0.005021596730954428,0.031786868003493264,0.005907363200548679,0.043491532931094874,0.012202381445705965,0.02390390058125284,0.014110149092150108
0.1075345,0.016870686396438492,0.004991109396091538,0.0318425887057936,0.005916265628666165,0.043462299063178465,0.012132378472479617,0.023839540235519895,0.014021348883033179
0.108,0.016854653077289297,0.004961046481384387,0.031896359285768575,0.005925152755877611,0.04343094280520899,0.012064335431332783,0.023776080148594465,0.013932974826328779
0.1084655,0.01683840496547878,0.0049314198132929974,0.031948169261782816,0.005934024446498265,0.04339746844870188,0.011998280546305721,0.023713552613062315,0.013845044883929715
0.108931,0.01682195434362746,0.004902241154836032,0.03199800841240963,0.005942880544539759,0.043361880443747794,0.011934241569363046,0.023651989576644612,0.01375757691619675
0.1093966,0.0168053134189873,0.004873522203544616,0.03204586678242287,0.00595172087488188,0.04332418339867764,0.011872245772880255,0.02359142263405504,0.013670588679728734
0.1098621,0.01678849431855391,0.004845274589414448,0.03209173468877905,0.0059605452444636605,0.04328438207974913,0.011812319942243719,0.02353188301892159,0.013584097825142773
0.1103276,0.01677150908424003,0.004817509872857043,0.032135602726587685,0.005969353443493033,0.04324248141085777,0.011754490368565945,0.023473401595776742,0.013498121894865522
0.1107931,0.01675436966811309,0.00479023954265096,0.032177461775067855,0.005978145246674299,0.04319848647327605,0.011698782841518063,0.023416008852119516,0.013412678320936598
0.1112586,0.016737087927699637,0.004763475013893873,0.032217303003488997,0.005986920414452653,0.043152402505425354,0.011645222642281692,0.023359734890552944,0.01332778442282502
0.1117241,0.01671967562135924,0.004737227625956335,0.032255117877093495,0.005995678694275004,0.043104234902685674,0.011593834536622504,0.023304609421000214,0.013243457405259621
0.1121897,0.016702144403730596,0.0047115086404380824,0.0322908981629989,0.006004419821866302,0.04305398921724827,0.011544642768087943,0.0232506617530028,0.01315971435607428
0.1126552,0.01668450582125235,0.0046863292391277275,0.03232463593607726,0.006013143522520607,0.043001671158016376,0.011497671051331692,0.02319792078810361,0.01307657224406876
0.1131207,0.01666677130776128,0.004661700521966716,0.03235632358480884,0.006021849512406038,0.04294728659055889,0.011452942565567578,0.023146415012318188,0.012994047916885978
0.1135862,0.016648952180170297,0.0046376335050184745,0.032385953817107356,0.006030537499882786,0.04289084153712201,0.01141047994815549,0.023096172488697,0.012912158098906447
0.1140517,0.01663105963422875,0.004614139118443697,0.032413519666113756,0.006039207186833297,0.04283234217670353,0.011370305288321909,0.023047220849981842,0.012830919389160606
0.1145172,0.01661310474036734,0.004591228204482781,0.03243901449595526,0.006047858270003672,0.04277179484519403,0.011332440121017579,0.02299958729135942,0.012750348259259815
0.1149828,0.01659509843962988,0.00456891151544642,0.03246243200746649,0.006056490442355337,0.04270920603558942,0.01129690542091483,0.02295329856331521,0.012670461051346773
0.1154483,0.016577051539693965,0.004547199711715422,0.032483766243869276,0.006065103394425933,0.042644582398278556,0.011263721596546969,0.02290838096459053,0.01259127397606614
0.1159138,0.01655897471098266,0.004526103359750775,0.03250301159640753,0.006073696815698371,0.04257793074140957,0.011232908484592118,0.02286486033524601,0.012512803110556225
0.1163793,0.01654087848286894,0.0045056329301150335,0.032520162809933556,0.00608227039597691,0.04250925803133829,0.011204485344303801,0.022822762049834362,0.012435064396462582
0.1168448,0.01652277323997479,0.004485798795506052,0.03253521498844189,0.006090823826769165,0.042438571393161685,0.011178470852090451,0.022782111010685502,0.012358073637974308
0.1173103,0.016504669218566474,0.00446661122880411,0.03254816360054686,0.006099356802672828,0.04236587811133934,0.011154883096245965,0.022742931641306856,0.012281846499883804
0.1177759,0.016486576503047565,0.004448080401133435,0.032559004484899554,0.006107869022765926,0.04229118563040533,0.011133739571833313,0.022705247879901812,0.0122063985056707
0.1182414,0.01646850502255115,0.004430216379939124,0.03256773385554,0.006116360191999374,0.04221450155577282,0.011115057175723113,0.02266908317300921,0.012131745035610486
0.1187069,0.016450464547632472,0.004413029127080444,0.03257434830717992,0.006124830022590575,0.04213583365463338,0.011098852201789038,0.0226344604692667,0.012057901324908377
0.1191724,0.01643246468706322,0.004396528496941434,0.03257884482041128,0.006133278235416766,0.04205518985695268,0.011085140336261807,0.02260140221330071,0.011984882461858838
0.1196379,0.016414514884728542,0.0043807242345597465,0.03258122076683579,0.006141704561406791,0.04197257825656406,0.011073936653243415,0.02256993033974564,0.011912703386031046
0.1201034,0.0163966244166277,0.00436562597377457,0.032581473914110204,0.006150108742929932,0.041888007112361195,0.011065255610383216,0.022540066267394826,0.011841378886480515
0.120569,0.01637880238797917,0.004351243235394506,0.032579602430902445,0.006158490535180373,0.04180148484959092,0.011059111044717322,0.022511830893485584,0.011770923599987
0.1210345,0.01636105773043094,0.004337585425386184,0.03257560489175367,0.006166849707555861,0.041713020061246726,0.011055516168672811,0.0224852445881207,0.011701352009318716
0.1215,0.016343399199376555,0.004324661833084407,0.032569480281841506,0.00617518604502902,0.04162262150956362,0.011054483566238041,0.022460327188828642,0.011632678441522848
0.1219655,0.01632583537137755,0.0043124816294245515,0.032561228001640165,0.006183499349509774,0.04153029812761427,0.011056025189300364,0.022437097995264773,0.011564917066242266
0.122431,0.016308374641692647,0.004301053865197945,0.03255084787147334,0.006191789441197289,0.041436059021006416,0.01106015235415241,0.022415575764055815,0.011498081894058303
0.1228966,0.016291025221914054,0.004290387469330894,0.03253834013595614,0.006200056159919758,0.041339913469681064,0.011066875738168034,0.0223957787037898,0.011432186774859328
0.1233621,0.01627379513771128,0.004280491247188019,0.03252370546832259,0.006208299366460367,0.041241870929810756,0.011076205376648943,0.02237772447015363,0.011367245396234817
0.1238276,0.016256692226682672,0.00427137387890054,0.032506944974635354,0.006216518943867715,0.04114194103579744,0.011088150659842975,0.022361430161220337,0.011303271281894484
0.1242931,0.016239724136314936,0.004263043917720161,0.032488060197874334,0.006224714798748908,0.041040133602369286,0.011102720330134878,0.022346912312887955,0.011240277790111984
0.1247586,0.01622289832205083,0.004255509788399198,0.03246705312190078,0.006232886862543567,0.04093645862677568,0.011119922479410422,0.022334186894471916,0.011178278112192581
0.1252241,0.016206222045465093,0.004248779785597597,0.0324439261752934,0.006241035092776887,0.04083092629107995,0.011139764546594587,0.0223232693044528,0.011117285270964092
0.1256897,0.016189702372548614,0.004242862072317494,0.03241868223505297,0.0062491594742899274,0.040723546964548885,0.011162253315364534,0.022314174366381192,0.011057312119290391
0.1261552,0.016173346172100797,0.004237764678365948,0.03239132463017143,0.006257260020445228,0.04061433120613818,0.011187394912038018,0.022306916324941365,0.010998371338606644
0.1266207,0.0161571601142299,0.004233495498846491,0.032361857145061644,0.006265336774305835,0.040503289767072424,0.01121519480363792,0.022301508842175504,0.010940475437475478
0.1270862,0.01614115066896118,0.004230062292680098,0.032330284022843596,0.00627338980978581,0.04039043359351805,0.011245657796133478,0.02229796499387018,0.010883636750163248
0.1275517,0.0161253241049526,0.004227472681156175,0.03229660996848312,0.006281419232770254,0.04027577382934743,0.011278788032858818,0.022296297266106935,0.010827867435235571
0.1280172,0.016109686488317666,0.004225734146514144,0.032260840151779074,0.006289425182202933,0.040159321818992066,0.011314588993109304,0.022296517551978666,0.010773179474171224
0.1284828,0.016094243681555084,0.004224854030556152,0.03222298021019514,0.0062974078311395275,0.040041089110382594,0.01135306349091618,0.02229863714847356,0.01071958466999361
0.1289483,0.016079001342584588,0.004224839533291447,0.03218303625153242,0.006305367387764581,0.039921087457973216,0.011394213673999856,0.02230266675352833,0.010667094645918978
0.1294138,0.0160639649238883,0.004225697711612884,0.032141014856439526,0.006313304096370157,0.03979932882584784,0.011438041022902221,0.022308616463252454,0.01061572084402073
0.1298793,0.01604913967175687,0.004227435478006043,0.0320969230807571,0.006321218238294225,0.03967582539090506,0.01148454635029829,0.022316495769325147,0.010565474523909284
0.1303448,0.01603453062563948,0.004230059599291352,0.03205076845769422,0.006329110132816741,0.03955058954611865,0.011533729800487481,0.0223263135565667,0.010516366761427094
0.1308103,0.016020142617596687,0.004233576695399613,0.03200255899983447,0.006336980138011398,0.039423633903870145,0.011585590849064803,0.022338078100685874,0.01046840844735862
0.1312759,0.016005980271854965,0.0042379932381812705,0.031952303200969846,0.006344828651550976,0.03929497129934973,0.011640128302772244,0.022351797066204857,0.010421610286155089
0.1317414,0.015992048004461717,0.004243315550249742,0.0319000100377607,0.006352656111464258,0.03916461479402108,0.011697340299530614,0.02236747750456323,0.010375982794674042
0.1322069,0.015978350023039423,0.004249549803859082,0.03184568897122004,0.006360462996842519,0.03903257767914591,0.011757224308652068,0.022385125852402248,0.010331536300933796
0.1326724,0.015964890326637414,0.004256702019816236,0.03178934994802032,0.0063682498284936195,0.03889887347936356,0.011819777131233538,0.02240474793003081,0.010288280942882887
0.1331379,0.01595167270567969,0.004264778066428094,0.03173100340162092,0.00637601716954186,0.03876351595632064,0.011884994900731338,0.022426348940074295,0.010246226667184721
0.1336034,0.015938700742007064,0.004273783658483563,0.03167066025321441,0.006383765625971825,0.03862651911234581,0.011952873083717066,0.0224499334663074,0.010205383228017596
0.134069,0.015925977809011827,0.004283724356270864,0.03160833191248987,0.006391495847114582,0.03848789719416471,0.012023406480814989,0.02247550547267198,0.010165760185890283
0.1345345,0.015913507071862933,0.004294605564630265,0.03154403027821128,0.0063992085260746925,0.03834766469664979,0.01209658922782105,0.022503068302480736,0.010127366906473374
0.135,0.01590129148781969,0.004306432532042444,0.031477767738609226,0.006406904400096608,0.038205836366600104,0.012172414797003569,0.02253262467780748,0.01009021255944661
0.1354655,0.01588933380663192,0.004319210349752682,0.03140955717158401,0.006414584250869093,0.038062427206545846,0.012250875998585785,0.022564176699064502,0.010054306117362436
0.135931,0.01587763657102457,0.0043329439509310445,0.03133941194471814,0.006422248904766333,0.03791745247857234,0.012331964982410366,0.022597725844767404,0.01001965635452602
0.1363966,0.015866202117264753,0.004347638109868701,0.03126734591509607,0.006429899233024488,0.0377709277081582,0.012415673239786068,0.022633272971487563,0.009986271845891972
0.1368621,0.015855032575809277,0.004363297441210509,0.031193373428928764,0.006437536151852442,0.03762286868802215,0.012501991605516722,0.022670818313992237,0.009954160965977928
0.1373276,0.015844129872030637,0.004379926399223955,0.031117509320980664,0.006445160622475694,0.03747329148197286,0.01259091026011265,0.022710361485572192,0.009923331887795105
0.1377931,0.015833495727019396,0.004397529277104557,0.031039768913796312,0.006452773651112463,0.0373222124287565,0.012682418732184586,0.02275190147855649,0.009893792581795926
0.1382586,0.01582313165846087,0.004416110206317783,0.03096016801672399,0.0064603762888813185,0.037169648145896385,0.012776505901020117,0.022795436665014112,0.009865550814838737
0.1387241,0.015813038981584007,0.00443567315597758,0.03087872292473387,0.006467969631639941,0.037015615533519446,0.012873159999342458,0.02284096479764184,0.009838614149169709
0.1391897,0.01580321881018037,0.004456221932261555,0.03079545041702845,0.006475554819754907,0.036860131778164225,0.012972368616251395,0.022888483010837866,0.009812989941421955
0.1396552,0.015793672057691263,0.0044777601778628814,0.030710367755443516,0.006483133037802679,0.036703214356565116,0.013074118700346018,0.022937987821960274,0.009788685341631971
0.1401207,0.015784399438361005,0.004500291371478961,0.030623492682638632,0.006490705514202249,0.03654488103940761,0.013178396563028896,0.0229894751327695,0.009765707292273423
0.1405862,0.01577540146845458,0.004523818827336879,0.030534843420076896,0.006498273520780027,0.03638514989504904,0.013285187881991165,0.023042940231053823,0.009744062527308318
0.1410517,0.015766678467537775,0.00454834569475563,0.03044443866579471,0.006505838372267729,0.036224039293199166,0.013394477704878047,0.023098377792436807,0.009723757571255529
0.1415172,0.015758230559817992,0.00457387495774509,0.030352297591962875,0.006513401425734014,0.03606156790855478,0.013506250453134208,0.02315578188236562,0.009704798738276565
0.1419828,0.015750057675543747,0.004600409434641669,0.030258439842241032,0.006520964079950744,0.03589775472438214,0.01362048992602829,0.02321514595827913,0.009687192131278444
0.1424483,0.015742159552460947,0.004627951777780538,0.030162885528927603,0.0065285277746947225,0.03573261903604079,0.013737179304855861,0.02327646287195471,0.009670943641033412
0.1429138,0.01573453573732392,0.004656504473204333,0.030065655229907513,0.006536093989985966,0.03556618045444215,0.013856301157320047,0.023339724872032553,0.009656058945315219
0.1433793,0.015727185587459225,0.004686069840408204,0.02996676998539982,0.006543664245263715,0.03539845890943599,0.013977837442088897,0.02340492360671625,0.009642543508051568
0.1438448,0.015720108272380236,0.004716650032121069,0.02986625129450727,0.006551240098501638,0.0352294746531174,0.014101769513528567,0.02347205012664826,0.009630402578492315
0.1443103,0.015713302775450546,0.004748247034122936,0.029764121111569574,0.0065588231452638765,0.035059248263046905,0.014228078126611272,0.02354109488795876,0.0096196411903929
0.1447759,0.015706767895594092,0.00478086266509813,0.02966040184232218,0.006566415017703737,0.03488780064537599,0.01435674344199683,0.023612047755486233,0.00961026416121245
0.1452414,0.015700502249049987,0.004814498576524253,0.02955511633986211,0.006574017383506896,0.03471515303786987,0.014487745031286607,0.023684898006167902,0.0096022760913259
0.1457069,0.0156945042711699,0.004849156252596686,0.029448287900422577,0.006581631944781019,0.034541327012819326,0.014621061882448492,0.023759634332597996,0.009595681363249389
0.1461724,0.01568877221825577,0.004884837010188421,0.029339940258958048,0.006589260436893649,0.03436634447983296,0.014756672405411455,0.023836244846751686,0.009590484140878146
0.1466379,0.01568330416943565,0.00492154199884499,0.029230097584541464,0.006596904627260221,0.0341902276885011,0.014894554437828134,0.023914717083872324,0.009586688368735956
0.1471034,0.015678098028575487,0.004959272200814225,0.029118784475575425,0.006604566314084017,0.03401299923092228,0.015034685251003816,0.02399503800651936,0.00958429777123528
0.147569,0.015673151526224758,0.004998028431110564,0.029006025954819152,0.006612247325049877,0.03383468204408307,0.01517704155599001,0.02407719400877431,0.009583315851946996
0.1480345,0.01566846222159403,0.0050378113376136156,0.028891847464233247,0.006619949515973458,0.033655299412081785,0.015321599509840763,0.024161170920601775,0.009583745892878696
0.1485,0.0156640275045626,0.005078621401200725,0.028776274859644204,0.00662767476940785,0.033474874968186595,0.015468334722029709,0.024246954012362622,0.009585590953760445
0.1489655,0.015659844597714672,0.005120458935913295,0.02865933440523081,0.00663542499320937,0.0332934326967183,0.015617222261025743,0.024334527999476097,0.009588853871336804
0.149431,0.015655910558402507,0.005163324089156715,0.02854105276783469,0.006643202119064376,0.0331109969347483,0.015768236661025153,0.02442387704722765,0.009593537258663985
0.1498966,0.015652222280835154,0.005207216841933792,0.028421457011097117,0.0066510081009789265,0.03292759237360203,0.015921351928837882,0.024514984775719034,0.009599643504411032
0.1503621,0.015648776498191304,0.005252137009111658,0.028300574589424435,0.006658844913733108,0.03274324406015834,0.01607654155092551,0.024607834264957145,0.009607174772163959
0.1508276,0.015645569784754735,0.005298084239722171,0.028178433341784395,0.006666714551301844,0.03255797739793619,0.01623377850058851,0.02470240806007786,0.009616132999731885
0.1512931,0.015642598558070705,0.005345058017295869,0.02805506148533563,0.006674619025243916,0.03237181814796047,0.016393035245300135,0.024798688176701184,0.009626519898454257
0.1517586,0.015639859081121563,0.005393057660229537,0.02793048760889246,0.006682560363060943,0.03218479242940045,0.016554283754184277,0.024896656106413777,0.009638336952508353
0.1522241,0.015637347464519696,0.005442082322187431,0.02780474066622724,0.006690540606528012,0.031996926719975595,0.016717495505634377,0.0249962928223753,0.00965158541821638
0.1526897,0.015635059668715808,0.005492130992536176,0.027677849969212232,0.006698561809997625,0.031808247856124384,0.016882641495070468,0.0250975787850449,0.009666266323351602
0.1531552,0.015632991506220474,0.005543202496813313,0.02754984518080307,0.006706626038678594,0.03161878303293329,0.017049692242831337,0.025200493948024545,0.009682380466443024
0.1536207,0.0156311386438369,0.00559529549722945,0.027420756307865692,0.006714735366891497,0.031428559803823836,0.017218617802198723,0.025305017764016006,0.009699928416078285
0.1540862,0.015629496604902808,0.005648408493203875,0.027290613693848716,0.006722891876302266,0.031237606079996948,0.01738938776755033,0.025411129190888403,0.009718910510204345
0.1545517,0.01562806077153955,0.00570253982193352,0.027159448011303204,0.00673109765413544,0.031045950129635465,0.017561971282638502,0.02551880669785337,0.009739326855425707
0.1550172,0.015626826386906646,0.005757687658995094,0.027027290254251973,0.006739354791368605,0.03085362057686632,0.017736337048991246,0.025628028271745196,0.009761177326299856
0.1554828,0.015625788557460007,0.005813850018980234,0.02689417173041093,0.006747665380909572,0.030660646400484725,0.017912453334432355,0.025738771423403903,0.009784461564629731
0.1559483,0.015624942255212155,0.005871024756163507,0.02676012405326528,0.006756031515757856,0.03046705693244273,0.01809028798171738,0.025851013194159247,0.009809178978753112
0.1564138,0.015624282319992638,0.005929209565203154,0.026625179134003918,0.006764455287152032,0.030272881856104626,0.01826980841728251,0.02596473016241403,0.009835328742828938
0.1568793,0.015623803461706911,0.005988401981874422,0.02648936917331579,0.006772938782704666,0.030078151204271715,0.018450981660103345,0.02607989845032509,0.009862909796120863
0.1573448,0.01562350026259194,0.006048599383835364,0.026352726653052383,0.006781484084526479,0.029882895356979126,0.018633774330660824,0.0261964937305803,0.009891920842278535
0.1578103,0.015623367179466911,0.00610979899142496,0.02621528432776074,0.0067900932673414915,0.029687145039067803,0.018818152660011484,0.026314491233269878,0.009922360348617498
0.1582759,0.015623398545977624,0.006171997868493398,0.02607707521609171,0.006798768396594846,0.029490931317535246,0.019004082498959466,0.026433865752850068,0.009954226545398792
0.1587414,0.0156235885748335,0.006235192923264337,0.025938132592087947,0.006807511526555046,0.0292942855986688,0.01919152932732765,0.026554591655197118,0.009987517425109754
0.1592069,0.01562393136003634,0.006299380909229025,0.025798489976356396,0.006816324698412366,0.029097239624965642,0.01938045826332544,0.026676642884749472,0.01002223074174769
0.1596724,0.015624420879100417,0.006364558426072176,0.025658181127129594,0.006825209938375189,0.02889982547184398,0.01957083407301081,0.02679999297173589,0.010058364010108395
0.1601379,0.015625050995263536,0.00643072192062961,0.02551724003122037,0.006834169255766052,0.028702075544150076,0.01976262117984423,0.026924615039487208,0.010095914505081592
0.1606034,0.015625815459688972,0.006497867687877734,0.025375700894874297,0.006843204641119094,0.02850402257246632,0.01995578367433235,0.027050481811829286,0.0101348792609553
0.161069,0.015626707913658236,0.006565991871955049,0.025233598134524506,0.0068523180642806256,0.02830569960922583,0.02015028532375917,0.027177565620554768,0.010175255070731255
0.1615345,0.015627721890754693,0.006635090467215955,0.025090966367453497,0.006861511472514466,0.028107140024639016,0.02034608958200249,0.027305838412970986,0.010217038485453375
0.162,0.015628850819038143,0.006705159319317195,0.024947840402366757,0.0068707867886136625,0.027908377502437742,0.02054315959943336,0.027435271759521318,0.010260225813551363
0.1624655,0.015630088023210587,0.006776194126337348,0.02480425522988321,0.006880145909020177,0.027709446035442432,0.020741458232896224,0.027565836861477375,0.010304813120201537
0.162931,0.015631426726773597,0.00684819043992982,0.024660246012947654,0.006889590701954146,0.02751037992095747,0.02094094805576744,0.027697504558699567,0.010350796226707024
0.1633966,0.015632860054177855,0.006921143666509808,0.024515848077170384,0.0068991230055543045,0.027311213755999913,0.021141591368089754,0.027830245337463845,0.010398170709899571
0.1638621,0.01563438103296566,0.006995049068475733,0.02437109690109941,0.006908744626031121,0.027111982432366313,0.021343350206780437,0.027964029338352663,0.010446931901565397
0.1643276,0.01563598259590729,0.007069901765465585,0.02422602810643059,0.006918457335834194,0.02691272113154233,0.021546186355910858,0.028098826364208327,0.010497074887897619
0.1647931,0.01563765758313222,0.007145696735648624,0.024080677448161118,0.006928262871835437,0.02671346531945965,0.021750061357055414,0.028234605888147142,0.010548594508977986
0.1652586,0.015639398744256322,0.007222428817052839,0.023935080804691415,0.006938162933529566,0.02651425074110453,0.021954936519707858,0.02837133706163271,0.010601485358290573
0.1657241,0.015641198740506183,0.007300092708928575,0.023789274167880726,0.006948159181253339,0.026315113414982244,0.022160772931763103,0.028508988722606904,0.010655741782270158
0.1661897,0.01564305014684193,0.007378682973148647,0.02364329363306136,0.006958253234425005,0.026116089627441563,0.022367531470062586,0.02864752940367707,0.010711357879887905
0.1666552,0.01564494545408017,0.007458194035645256,0.02349717538901641,0.006968446669805287,0.02591721592686347,0.022575172811001066,0.028786927340357846,0.010768327502276966
0.1671207,0.01564687707101873,0.007538620187883977,0.023350955707925614,0.006978741019781258,0.02571852911771813,0.022783657441192654,0.028927150479365973,0.01082664425240055
0.1675862,0.015648837326565062,0.0076199555883750296,0.023204670935283923,0.00698913777067436,0.02552006625449409,0.022992945668193755,0.029068166486966307,0.010886301484764946
0.1680517,0.01565081847187017,0.007702194264222014,0.02305835747979716,0.0069996383610738105,0.025321864635503642,0.02320299763128028,0.029209942757367036,0.010947292305179896
0.1685172,0.01565281268246989,0.0077853301127082004,0.02291205180325901,0.007010244180196623,0.025123961796568287,0.023413773312276398,0.029352446421161978,0.011009609570568674
0.1689828,0.015654812060435425,0.007869356902920453,0.022765790410413374,0.0070209565662754415,0.024926395504587993,0.023625232546431896,0.029495644353817494,0.011073245888830087
0.1694483,0.015656808636534673,0.007954268277410798,0.022619609838805926,0.007031776804975367,0.02472920375099784,0.02383733503334501,0.029639503184201412,0.011138193618754549
0.1699138,0.01565879437240606,0.008040057753895602,0.02247354664862871,0.007042706127840953,0.024532424745115265,0.024050040347927428,0.029783989303151032,0.011204444869996284
0.1703793,0.015660761162746253,0.00812671872699224,0.022327637412561375,0.007053745710774544,0.024336096907381158,0.02426330795140812,0.029929068872077167,0.011271991503103661
0.1708448,0.015662700837513123,0.008214244469993123,0.022181918705612595,0.007064896672547106,0.024140258862497672,0.02447709720237229,0.030074707831600864,0.011340825129609537
0.1713103,0.01566460516414517,0.008302628136676865,0.02203642709496526,0.0070761600733426945,0.02394494943246543,0.024691367367831656,0.030220871910219313,0.011410937112183474
0.1717759,0.0156664658497985,0.008391862763156382,0.02189119912982879,0.007087536913337667,0.023750207629522607,0.024906077634322173,0.030367526632997285,0.011482318564847507
0.1722414,0.01566827454360237,0.008481941269763597,0.021746271331302035,0.007099028131315687,0.023556072648988256,0.025121187119024953,0.030514637330280148,0.011554960353257177
0.1727069,0.015670022838934268,0.008572856462970473,0.021601680182250064,0.007110634603319524,0.023362583862012055,0.025336654880906112,0.030662169146424414,0.011628853095049322
0.1731724,0.01567170227571536,0.008664601037346039,0.02145746211719816,0.007122357141340607,0.023169780808232423,0.025552439931870993,0.03081008704854153,0.01170398716025812
0.1736379,0.01567330434272718,0.008757167577549027,0.021313653512246195,0.007134196492047216,0.022977703188344963,0.02576850124792796,0.030958355835250282,0.011780352671800743
0.1741034,0.01567482047995031,0.008850548560355762,0.021170290675006417,0.007146153335552166,0.022786390856582888,0.025984797780356964,0.031106940145433304,0.011857939506033895
0.174569,0.015676242080925842,0.008944736356722856,0.021027409834567613,0.007158228284220726,0.022595883813111124,0.026201288466877866,0.03125580446699289,0.011936737293382443
0.1750345,0.015677560495140255,0.009039723233884314,0.020885047131488404,0.007170421881519522,0.022406222196335764,0.026417932242813396,0.03140491314560135,0.012016735419041318
0.1755,0.015678767030434398,0.00913550135748254,0.020743238607822404,0.007182734600907033,0.02221744627513039,0.02663468805224169,0.031554230393441296,0.012097923023751801
0.1759655,0.01567985295543712,0.009232062793732813,0.020602020197177863,0.007195166844766303,0.022029596440980796,0.02685151485913336,0.03170372029793134,0.012180289004653238
0.176431,0.015680809502024082,0.009329399511620725,0.020461427714814302,0.007207718943380377,0.021842713200049626,0.027068371658468086,0.03185334683043335,0.012263822016211215
0.1768966,0.01568162786780224,0.00942750338513204,0.020321496847778616,0.007220391153950922,0.021656837165162292,0.027285217487325743,0.03200307385493802,0.012348510471223156
0.1773621,0.015682299218620382,0.009526366195514398,0.020182263145082972,0.007233183659660443,0.021472009047715537,0.02750201143594721,0.03215286513672637,0.012434342541902245
0.1778276,0.015682814691106117,0.009625979633570255,0.020043762007926836,0.007246096568778464,0.021288269649509764,0.02771871265875985,0.03230268435100553,0.012521306161040557
0.1782931,0.015683165395229553,0.00972633530198034,0.01990602867996523,0.007259129913811965,0.021105659854506367,0.02793528038536271,0.03245249509151733,0.012609389023252213
0.1787586,0.015683342416893956,0.009827424717656866,0.01976909823762529,0.007272283650700347,0.020924220620511157,0.02815167393146634,0.03260226087911857,0.012698578586297377
0.1792241,0.015683336820553475,0.00992923931412568,0.01963300558047311,0.0072855576580551475,0.02074399297078493,0.028367852709782197,0.032751945170331836,0.01278886207248787
0.1796897,0.015683139651858035,0.010031770443936387,0.019497785421632788,0.007298951736444671,0.02056501798558216,0.02858377624085647,0.03290151136586612,0.012880226470175149
0.1801552,0.015682741940325356,0.010135009381099487,0.019363472278259564,0.007312465607723707,0.02038733679361876,0.028799404163843335,0.03305092281910665,0.012972658535321473
0.1806207,0.015682134702040006,0.010238947323549403,0.01923010046206888,0.007326098914408424,0.020210990563469956,0.029014696247212715,0.03320014284457349,0.013066144793155026
0.1810862,0.015681308942379298,0.010343575395632259,0.019097704069923217,0.007339851219096513,0.020036020494899266,0.029229612399387477,0.03334913472634909,0.013160671539909808
0.1815517,0.015680255658765706,0.010448884650617208,0.01896631697447863,0.0073537220039326225,0.019862467810119695,0.029444112679305016,0.033497861726474454,0.013256224844651096
0.1820172,0.015678965843445393,0.010554866073230008,0.018835972814892885,0.007367710670119062,0.0196903737449883,0.029658157306898105,0.033646287093314124,0.013352790551187203
0.1824828,0.015677430486292342,0.010661510582207562,0.0187067049875971,0.007381816537471736,0.019519779540135406,0.029871706673489744,0.03379437406988981,0.013450354280068227
0.1829483,0.015675640577637394,0.010768809032872076,0.01857854663713281,0.0073960388440211956,0.019350726432029782,0.030084721352096937,0.033942085902182687,0.0135489014306724
0.1834138,0.015673587111121434,0.010876752219723512,0.018451530647056347,0.007410376745658698,0.019183255643981288,0.030297162107638158,0.03408938584740403,0.013648417183380569
0.1838793,0.015671261086571815,0.01098533087904902,0.01832568963091244,0.007424829315827114,0.019017408377082583,0.030508989907039562,0.03423623718223389,0.013748886501839261
0.1843448,0.01566865351290098,0.011094535691548016,0.018201055923279065,0.007439395545256519,0.01885322580109166,0.030720165929234974,0.03438260321102718,0.013850294135312817
0.1848103,0.015665755411026133,0.011204357284971595,0.01807766157088553,0.007454074341744319,0.018690749045256916,0.03093065157505504,0.034528447273986254,0.013952624621124968
0.1852759,0.01566255781680871,0.011314786236775077,0.0179555383238058,0.007468864529979761,0.018530019189086613,0.031140408477001027,0.03467373275529894,0.01405586228719032
0.1857414,0.015659051784012355,0.011425813076782374,0.01783471762672899,0.007483764851412727,0.018371077253064638,0.03134939850889942,0.03481842309124089,0.014159991254636302
0.1862069,0.015655228387277887,0.011537428289860934,0.01771523061030888,0.007498773964166673,0.018213964189314476,0.03155758379543384,0.034962481778241065,0.0142649954405161
0.1866724,0.01565107872511372,0.011649622318606055,0.01759710808259424,0.007513890442995611,0.018058720872213507,0.03176492672155111,0.03510587238090919,0.01437085856061316
0.1871379,0.015646593922900007,0.011762385566033207,0.017480380520541832,0.007529112779284979,0.01790538808895994,0.0319713899417388,0.03524855854002411,0.014477564132337702
0.1876034,0.015641765135904658,0.01187570839827703,0.017365078061613862,0.007544439381096245,0.017754006530094964,0.03217693638917142,0.03539050398048202,0.01458509547771571
0.188069,0.01563658355230939,0.011989581147295541,0.017251230495461914,0.007559868573255069,0.01760461677998278,0.032381529284722856,0.035531672519203465,0.014693435726470729
0.1885345,0.015631040396243717,0.012103994113578074,0.017138867255699367,0.007575398597482814,0.01745725930725143,0.03258513214584256,0.03567202807299794,0.014802567819198633
0.189,0.015625126930824844,0.01221893756885532,0.017028017411764428,0.007591027612571151,0.017311974455197155,0.032787708795292865,0.035811534666384835,0.01491247451063555
0.1894655,0.015618834461201476,0.012334401758809819,0.016918709660875973,0.007606753694599541,0.017168802432155014,0.032989223369744705,0.035950156439369434,0.015023138373018876
0.189931,0.015612154337599491,0.01245037690578519,0.01681097232008437,0.007622574837195268,0.017027783301838434,0.033189640328228895,0.03608785765517245,0.015134541799541273
0.1903966,0.015605077958367596,0.01256685321149233,0.016704833318419394,0.007638488951835758,0.016888956973650247,0.033388924460439846,0.036224602707911314,0.01524666700789739
0.1908621,0.015597596773021201,0.012683820859710771,0.01660032018913739,0.007654493868192919,0.016752363192967655,0.03358704089488863,0.036360356130231315,0.015359496043922966
0.1913276,0.01558970228528293,0.01280127001898349,0.016497460062069685,0.007670587334519306,0.016618041531403508,0.03378395510690225,0.03649508260088443,0.015473010785325864
0.1917931,0.01558138605611826,0.012919190845303255,0.016396279656074268,0.007686767018076017,0.016486031377046316,0.03397963292646595,0.03662874695225359,0.015587192945508503
0.1922586,0.015572639706764955,0.013037573484788793,0.016296805271592687,0.00770303050560226,0.01635637192468112,0.03417404054590537,0.036761314177819804,0.01570202407748114
0.1927241,0.01556345492175495,0.013156408076348984,0.016199062783313983,0.007719375303826591,0.016229102165993426,0.03436714452740572,0.03689274943956932,0.015817485577865432
0.1931897,0.015553823451927353,0.013275684754333392,0.016103077632947528,0.007735798840019859,0.01610426087975812,0.034558911810365474,0.03702301807533807,0.015933558690987722
0.1936552,0.015543737117431107,0.013395393651167445,0.016008874822106608,0.007752298462589832,0.01598188662201526,0.03474930971858257,0.03715208560608997,0.01605022451306158
0.1941207,0.015533187810715847,0.01351552489997063,0.01591647890530455,0.007768871441717486,0.015862017716234477,0.03493830596727144,0.03727991774312592,0.016167463996459117
0.1945862,0.01552216749950938,0.01363606863715614,0.015825913983065237,0.007785514970034891,0.015744692243469565,0.03512586866990973,0.03740648039521983,0.016285257954070643
0.1950517,0.015510668229780252,0.013757015005010517,0.015737203695149762,0.0078022261633446666,0.015629948032504812,0.03531196634491358,0.037531739675678535,0.016403587063752258
0.1955172,0.015498682128683848,0.013878354154251826,0.015650371213901,0.007819002061380883,0.015517822649994484,0.03549656792214052,0.03765566190932234,0.01652243187286085
0.1959828,0.01548620140749053,0.014000076246564972,0.015565439237707758,0.007835839628611388,0.01540835339059677,0.035679642749219094,0.03777821363938344,0.016641772802876
0.1964483,0.015473218364494288,0.014122171457112769,0.015482429984590197,0.007852735755081433,0.01530157726710351,0.035861160597704486,0.03789936163432015,0.016761590154108236
0.1969138,0.015459725387900414,0.014244629977021304,0.015401365185908017,0.007869687257298535,0.01519753100056694,0.0360410916690603,0.03801907289454541,0.01688186411049312
0.1973793,0.015445714958690767,0.014367442015838084,0.015322266080192914,0.007886690879158395,0.015096251010424716,0.03621940660046647,0.03813731465906876,0.017002574744470745
0.1978448,0.015431179653465044,0.014490597803961424,0.015245153407106696,0.00790374329291173,0.014997773404624439,0.036396076470454265,0.03825405441205156,0.01712370202195018
0.1983103,0.015416112147256638,0.014614087595039365,0.015170047401526386,0.00792084110017181,0.014902133969748972,0.03657107280436931,0.038369259889275684,0.017245225807358475
0.1987759,0.015400505216321508,0.014737901668336346,0.01509696778775755,0.007937980832962448,0.014809368161143784,0.03674436757966383,0.03848289908452617,0.01736712586877375
0.1992414,0.015384351740898684,0.014862030331065814,0.015025933773877093,0.007955158954806201,0.014719511093047513,0.03691593323101914,0.038594940255888624,0.017489381883141843
0.1997069,0.01536764470794112,0.01498646392068682,0.014956964046206677,0.00797237186185243,0.01463259752872693,0.03708574265529966,0.038705351931962145,0.01761197344157587
0.2001724,0.015350377213815752,0.015111192807162678,0.014890076763917879,0.007989615884044855,0.014548661870617425,0.03725376921633972,0.03881410291798899,0.017734880054738094
0.2006379,0.015332542466971792,0.015236207395179658,0.014825289553770242,0.008006887286328179,0.01446773815047025,0.037419986749564635,0.03892116230190249,0.01785808115830332
0.2011034,0.015314133790576405,0.015361498126323814,0.014762619504983327,0.008024182269893286,0.014389860019507828,0.03758436956644775,0.03902649946029556,0.01798155611850315
0.201569,0.015295144625116849,0.01548705548121388,0.014702083164243863,0.008041496973460469,0.014315060738588816,0.03774689245880528,0.03913008406431246,0.018105284237750287
0.2020345,0.015275568530968247,0.015612869981588224,0.014643696530849131,0.008058827474600122,0.014243373168384855,0.03790753070293058,0.03923188608546749,0.01822924476034196
0.2025,0.01525539919092613,0.01573893219234372,0.014587475051987707,0.008076169791090262,0.014174829759571149,0.03806626006356952,0.03933187580139419,0.01835341687824155
0.2029655,0.015234630412702897,0.015865232723524414,0.014533433618158705,0.00809351988231022,0.014109462543033293,0.03822305679773861,0.039430023801529435,0.018477779736937237
0.203431,0.015213256131387378,0.015991762232257623,0.014481586558730684,0.008110873650669828,0.014047303120092704,0.03837789765838699,0.0395263009927367,0.018602312441376466
0.2038966,0.015191270411866907,0.01611851142463518,0.014431947637641336,0.008128226943073335,0.013988382652753165,0.0385307598979039,0.03962067860487315,0.018726994061974762
0.2043621,0.015168667451211412,0.016245471057537295,0.014384530049239196,0.008145575552417284,0.013932731853971009,0.038681621271472726,0.039713128196305285,0.018851803640697485
0.2048276,0.015145441581019218,0.016372631940396485,0.014339346414268457,0.0081629152191215,0.013880380977951523,0.0388304600402733,0.03980362165937775,0.018976720197212773
0.2052931,0.015121587269724403,0.016499984936899033,0.014296408775998064,0.00818024163269233,0.013831359810474172,0.03897725497453411,0.03989213122584023,0.019101722735114016
0.2057586,0.015097099124865745,0.016627520966621276,0.01425572859649614,0.00819755043331725,0.013785697659249214,0.039121985356436025,0.0399786294722371,0.019226790248209894
0.2062241,0.015071971895317372,0.016755231006598047,0.014217316753050806,0.008214837213489916,0.013743423344308303,0.039264630982869385,0.0400630893252645,0.019351901726880005
0.2066897,0.015046200473481323,0.016883106092820527,0.014181183534738302,0.008232097519664706,0.01370456518843165,0.03940517216804603,0.040145484067099724,0.01947703616449396
0.2071552,0.015019779897442354,0.017011137321660718,0.014147338639139287,0.008249326853939781,0.013669151007614344,0.03954358974596772,0.04022578734070732,0.01960217256389168
0.2076207,0.014992705353085242,0.017139315851219722,0.01411579116920408,0.008266520675767637,0.013637208101574592,0.03967986507275241,0.04030397315512636,0.019727289943922675
0.2080862,0.014964972176174802,0.01726763290259714,0.014086549630267547,0.008283674403692072,0.013608763244306822,0.039813980028819695,0.04038001589074309,0.01985236734604186
0.2085517,0.014936575854398783,0.017396079761078976,0.014059621927214182,0.008300783417110456,0.013583842674682848,0.03994591702093681,0.0404538903045527,0.019977383840959574
0.2090172,0.014907512029373793,0.01752464777724173,0.014035015361793877,0.008317843058060206,0.013562472087104526,0.04007565898412621,0.040525571535413966,0.020102318535343215
0.2094828,0.01487777649861422,0.017653328367970594,0.014012736630088798,0.008334848633028307,0.013544676622211548,0.040203189383435874,0.04059503510930011,0.02022715057856789
0.2099483,0.01484736521746418,0.01778211301738996,0.013992791820131717,0.008351795414782773,0.013530480857648044,0.040328492215573095,0.040662256944549134,0.020351859169513223
0.2104138,0.014816274300992385,0.017910993277704693,0.013975186409676127,0.008368678644224943,0.013519908798891716,0.04045155201040249,0.04072721335711653,0.02047642356340349
0.2108793,0.014784500025849715,0.018039960769950875,0.013959925264118498,0.00838549353226151,0.013512983870149195,0.04057235383230872,0.04078988106583339,0.020600823078687977
0.2113448,0.014752038832089307,0.018169007184654907,0.013947012634573052,0.008402235261695163,0.01350972890532132,0.0406908832814241,0.040850237197672515,0.020725037103958337
0.2118103,0.014718887324948787,0.018298124282399995,0.013936452156099455,0.00841889898913273,0.01351016613904184,0.04080712649472138,0.04090825929302514,0.02084904510489962
0.2122759,0.014685042276594198,0.01842730389429911,0.013928246846083795,0.00843547984690965,0.013514317197793084,0.04092107014697147,0.04096392531099054,0.02097282663127143
0.2127414,0.014650500627825105,0.01855653792237362,0.013922399102773304,0.008451972945029586,0.013522203091102003,0.04103270145156585,0.04101721363468088,0.021096361323915604
0.2132069,0.014615259489740193,0.01868581833983669,0.013918910703965235,0.008468373373117889,0.013533844202819943,0.041142008161203274,0.041068103076543364,0.021219628921786568
0.2136724,0.014579316145362594,0.018815137191280494,0.013917782805850291,0.008484676202387579,0.013549260282489548,0.04124897856844025,0.041116572883701394,0.02134260926900052
0.2141379,0.014542668051224084,0.018944486592766253,0.013919015942011021,0.008500876487616495,0.013568470436802251,0.04135360150610509,0.041162602743316457,0.021465282321899287
0.2146034,0.01450531283890718,0.01907385873181601,0.013922610022575548,0.008516969269134126,0.013591493121149783,0.04145586634757499,0.041206172787972,0.02158762815612484
0.215069,0.014467248316544059,0.019203245867304885,0.013928564333527028,0.008532949574816678,0.013618346131273197,0.04155576300691599,0.041247263601080296,0.021709626973700165
0.2155345,0.014428472470271113,0.019332640329252564,0.013936877536169191,0.008548812422088808,0.013649046595012891,0.04165328193888552,0.0412858562223131,0.02183125911011217
0.216,0.014388983465637831,0.019462034518512673,0.013947547666748302,0.008564552819930463,0.013683610964162993,0.04174841413879706,0.041321932153056476,0.02195250504139224
0.2164655,0.01434877964896872,0.019591420906358764,0.01396057213623188,0.008580165770887207,0.013722055006433453,0.04184115114224656,0.0413554733618899,0.022073345391189787
0.216931,0.01430785954867691,0.019720792033965706,0.013975947730244504,0.008595646273082357,0.013764393797523086,0.04193148502469955,0.04138646229008954,0.022193760937834223
0.2173966,0.0142662218765282,0.019850140511785394,0.013993670609161027,0.008610989322229248,0.01381064171330676,0.04201940840093803,0.04141488185715525,0.022313732621380474
0.2178621,0.01422386552885434,0.019979459018815805,0.014013736308357453,0.008626189913641915,0.01386081242213982,0.04210491442436566,0.04144071546636047,0.022433241550633077
0.2183276,0.01418078958771459,0.02010874030176256,0.014036139738619743,0.008641243044242526,0.013914918877282797,0.04218799678616967,0.0414639470103243,0.022552269010143806
0.2187931,0.014136993322004722,0.020237977174092266,0.014060875186710682,0.00865614371456388,0.01397297330944938,0.04226864971433739,0.04148456087660444,0.022670796467177495
0.2192586,0.014092476188512757,0.02036716251497687,0.014087936316094916,0.008670886930745324,0.014034987219480604,0.04234686797252534,0.04150254195330962,0.02278880557864068
0.2197241,0.014047237832920903,0.020496289268128277,0.014117316167822117,0.008685467706520558,0.014100971371148116,0.04242264685877817,0.04151787563472998,0.022906278197967346
0.2201897,0.014001278090753301,0.020625350440522366,0.014149007161568163,0.008699881065195782,0.014170935784089414,0.042495982204094764,0.04153054782698334,0.023023196381956074
0.2206552,0.013954596988269095,0.020754339101011494,0.014183001096834135,0.008714122041616755,0.014244889726877838,0.04256687037083849,0.041540544953675304,0.02313954239755251
0.2211207,0.013907194743300422,0.020883248378824437,0.014219289154302834,0.008728185684123412,0.01432284171023009,0.0426353082509885,0.041547853961570805,0.023255298728571072
0.2215862,0.013859071766034873,0.021012071461952855,0.014257861897352477,0.008742067056490818,0.014404799480354025,0.04270129326422877,0.04155246232627436,0.02337044808234948
0.2220517,0.013810228659741873,0.02114080159542331,0.01429870927372704,0.00875576123985528,0.014490770012439409,0.04276482335587138,0.0415543580579164,0.023484973396329517
0.2225172,0.013760666221442468,0.021269432079454073,0.014341820617362732,0.00876926333462459,0.0145807595042943,0.04282589699461015,0.04155352970684266,0.023598857844557255
0.2229828,0.013710385442521905,0.021397956267496118,0.014387184650369969,0.008782568462371432,0.01467477337012973,0.04288451317010095,0.04154996636930348,0.02371208484409581
0.2234483,0.013659387509284443,0.02152636756415787,0.014434789485170135,0.008795671767709144,0.014772816234495343,0.04294067139036469,0.04154365769313977,0.0238246380613434
0.2239138,0.013607673803449901,0.02165465942301368,0.014484622626786396,0.008808568420149009,0.014874891926368655,0.042994371679009366,0.041534593883462076,0.023936501418249462
0.2243793,0.013555245902591521,0.021782825344296115,0.014536670975287843,0.008821253615938407,0.014981003473400558,0.04304561457226766,0.04152276570831912,0.02404765909842123
0.2248448,0.013502105580514909,0.02191085887247263,0.014590920828386216,0.00883372257987911,0.015091153096319764,0.04309440111584719,0.041508164504352144,0.0241580955531133
0.2253103,0.013448254807577938,0.02203875359370743,0.014647357884184538,0.00884597056712499,0.015205342203498838,0.04314073286159106,0.04149078218243112,0.024267795507092484
0.2257759,0.013393695750951564,0.022166503133209912,0.01470596724407698,0.008857992864958425,0.015323571385684496,0.04318461186394684,0.0414706112332692,0.024376743964370506
0.2262414,0.013338430774821589,0.022294101152471452,0.014766733415799373,0.008869784794544583,0.015445840410894793,0.04322604067624287,0.041447644733011164,0.02448492621379722
0.2267069,0.013282462440531604,0.022421541346393122,0.014829640316629814,0.00888134171266278,0.015572148219485809,0.04326502234677213,0.04142187634879178,0.02459232783450754
0.2271724,0.0132257935066676,0.02254881744030751,0.01489467127673893,0.008892659013414116,0.015702492919390357,0.04330156041468518,0.041393300344259525,0.024698934701215394
0.2276379,0.013168426929084941,0.02267592318689845,0.014961809042689398,0.008903732129904647,0.015836871781531186,0.04333565890569422,0.04136191158506089,0.024804732989348346
0.2281034,0.013110365860878782,0.022802852363022996,0.01503103578108429,0.008914556535903478,0.015975281235411073,0.04336732232759179,0.04132770554428001,0.024909709180016913
0.228569,0.013051613652299105,0.022929598766440296,0.015102333082363835,0.008925127747475291,0.016117716864882132,0.043396555665588,0.041290678307828524,0.025013850064812975
0.2290345,0.01299217385061183,0.023056156212451967,0.015175681964750163,0.008935441324586997,0.016264173404096603,0.04342336437747117,0.04125082657977993,0.02511714275043213
0.2295,0.012932050199907393,0.023182518530459037,0.015251062878339477,0.00894549287268836,0.01641464473364145,0.04344775438859715,0.041208147687642804,0.025219574663115123
0.2299655,0.012871246640858248,0.02330867956044071,0.01532845570934104,0.008955278044266676,0.016569123876858962,0.0434697320867131,0.04116263958756738,0.025321133552903642
0.230431,0.01280976731042663,0.02343463314936058,0.01540783978446229,0.00896479254037569,0.016727602996355707,0.04348930431662175,0.04111430086947978,0.025421807497706075
0.2308966,0.012747616541523942,0.02356037314750653,0.015489193875439294,0.008974032112139157,0.01689007339070208,0.04350647837469265,0.04106313076213828,0.02552158490716893
0.2313621,0.01268479886262294,0.023685893404770928,0.015572496203711799,0.00898299256222956,0.017056525491324786,0.04352126200322676,0.041009129138105574,0.025620454526349916
0.2318276,0.012621318997323997,0.023811187766878097,0.015657724445241973,0.008991669746322647,0.017226948859594624,0.0435336633846807,0.040952296518631075,0.025718405439189063
0.2322931,0.012557181863876525,0.023936250071566256,0.015744855735475967,0.009000059574528506,0.01740133218411188,0.04354369113575731,0.04089263407843668,0.02581542707177474
0.2327586,0.012492392574656742,0.024061074144731312,0.015833866674447316,0.009008158012799958,0.017579663278191746,0.043551354301368694,0.040830143650399324,0.025911509195402072
0.2332241,0.01242695643560284,0.024185653796539926,0.01592473333202115,0.00901596108431909,0.017761929077552013,0.043556662348478256,0.04076482773012323,0.026006641929421703
0.2336897,0.012360878945608606,0.024309982817519196,0.016017431253278067,0.00902346487086273,0.01794811563820535,0.04355962515982785,0.04069668948039471,0.02610081574387732
0.2341552,0.0122941657958765,0.024434054974630158,0.016111935464036494,0.009030665514147669,0.018138208134558347,0.04356025302755608,0.04062573273551213,0.02619402146193073
0.2346207,0.012226822869231121,0.024557864007332196,0.016208220476512297,0.00903755921715639,0.018332190857719314,0.04355855664671373,0.040551962005483444,0.02628625026207369
0.2350862,0.012158856239393933,0.024681403623645248,0.01630626029511444,0.009044142245444017,0.018530047214016777,0.0435545471086819,0.040475382480083824,0.02637749368012611
0.2355517,0.012090272170220098,0.024804667496216484,0.01640602842237541,0.009050410928427132,0.01873175972373045,0.04354823589449869,0.04039600003276522,0.026467743611020722
0.2360172,0.012021077114898205,0.024927649258397997,0.01650749786501518,0.009056361660655045,0.018937310020036333,0.0435396348680993,0.04031382122441021,0.02655699231037438
0.2364828,0.011951277715113584,0.02505034250034184,0.01661064114013739,0.009061990903064025,0.01914667884816752,0.04352875626947488,0.04022885330692211,0.026645232395846718
0.2369483,0.011880880800175794,0.025172740765118443,0.01671543028155635,0.009067295184214938,0.019359846064792168,0.04351561270775474,0.04014110422664311,0.02673245684828702
0.2374138,0.011809893386110853,0.02529483754486446,0.016821836846253456,0.009072271101514671,0.019576790637609972,0.04350021715421649,0.040050582627592576,0.0268186590126706
0.2378793,0.011738322674718641,0.025416626276965715,0.016929831920961626,0.009076915322421681,0.01979749064516846,0.043482582935228414,0.03995729785451755,0.02690383259882604
0.2383448,0.0116661760525958,0.025538100340280843,0.017039386128876486,0.009081224585635941,0.02002192327690025,0.04346272372512832,0.03986125995574802,0.026987971681954777
0.2388103,0.011593461090124416,0.025659253051411035,0.017150469636493096,0.009085195702273587,0.020250064833382195,0.04344065353904296,0.039762479685849485,0.027071070702944632
0.2392759,0.01152018554042666,0.025780077661021132,0.017263052160567196,0.009088825557026475,0.020481890726817324,0.04341638672565221,0.039660968508065685,0.027153124468479038
0.2397414,0.011446357338285496,0.025900567350217087,0.017377102975200082,0.009092111109306912,0.02071737548174018,0.04338993795990234,0.039556738596544266,0.027234128150943608
0.2402069,0.011371984599031435,0.026020715226984806,0.017492590919046442,0.009095049394377785,0.02095649273594615,0.043361322235672316,0.03944980283833817,0.027314077288131962
0.2406724,0.011297075617395345,0.026140514322695072,0.017609484402644583,0.009097637524468334,0.02119921524164517,0.04333055485839759,0.039340174835175164,0.027392967782752544
0.2411379,0.011221638866327118,0.026259957588679265,0.017727751415868673,0.009099872689875844,0.02144551486683992,0.04329765143765497,0.0392278689049882,0.027470795901738183
0.2416034,0.011145682995779992,0.026379037892880246,0.01784735953550273,0.009101752160053501,0.021695362596928853,0.04326262787971225,0.03911290008319873,0.0275475582753603
0.242069,0.011069216831460203,0.026497748016582837,0.017968275932936213,0.009103273284684748,0.021948728536533908,0.04322550038004617,0.038995284123745234,0.02762325189614957
0.2425345,0.010992249373541553,0.026616080651227923,0.018090467381981168,0.009104433494744458,0.022205581911553016,0.04318628541583217,0.038875037499849,0.02769787411762505
0.243,0.010914789795344397,0.026734028395314142,0.0182139002668108,0.009105230303547254,0.022465891071437143,0.043144999738409934,0.038752177404508995,0.02777142265283388
0.2434655,0.010836847441978489,0.026851583751390917,0.018338540590019357,0.00910566130778332,0.022729623491691695,0.04310166036572846,0.03862672175071785,0.027843895572703704
0.243931,0.010758431828949,0.02696873912314639,0.01846435398080303,0.009105724188542037,0.022996745776601928,0.04305628457477527,0.038498689171390856,0.027915291304209854
0.2443966,0.010679552640724992,0.027085486812593807,0.01859130570326156,0.009105416712323821,0.02326722366218187,0.0430088898939941,0.03836809901899996,0.027985608628359575
0.2448621,0.010600219729269568,0.027201819017359432,0.018719360664820175,0.00910473673204051,0.023541022019346252,0.04295949409569589,0.038234971364904904,0.028054846677995612
0.2453276,0.010520443112530932,0.02731772782807505,0.018848483424771478,0.009103682188004635,0.02381810485730477,0.042908115188468175,0.03809932699837362,0.02812300493542151
0.2457931,0.010440232972893537,0.027433205225877857,0.018978638202936923,0.009102251108907944,0.024098435327177908,0.04285477140958819,0.03796118742528415,0.02819008322985104
0.2462586,0.010359599655588605,0.02754824308002031,0.01910978888844763,0.009100441612789568,0.02438197572583338,0.04279948121744516,0.03782057486650088,0.028256081734684
0.2467241,0.010278553667063373,0.02766283314559227,0.01924189904864431,0.009098251907994199,0.024668687499942082,0.042742263283977365,0.037677512255918214,0.02832100096461072
0.2471897,0.0101971056733085,0.027776967061357582,0.01937493193809618,0.009095680294120672,0.024958531250252478,0.042683136487129306,0.03753202323816495,0.02838484177254706
0.2476552,0.010115266498143191,0.02789063634770703,0.01950885050773882,0.009092725162961338,0.02525146673608212,0.042622119903334324,0.03738413216596337,0.028447605346401873
0.2481207,0.010033047121457587,0.028003832404729527,0.019643617414130995,0.009089384999432595,0.025547452880024916,0.0425592328000276,0.03723386409713716,0.028509293205678507
0.2485862,0.009950458677412066,0.0281165465104034,0.0197791950288304,0.009085658382496899,0.025846447772872653,0.04249449462819439,0.03708124479126361,0.0285699071979118
0.2490517,0.009867512452593012,0.02822876981890934,0.019915545447888396,0.009081543986076496,0.02614840867874923,0.04242792501495804,0.036926300705966204,0.028629449494941964
0.2495172,0.009784219884124616,0.02834049335906668,0.02005263050146367,0.009077040579959068,0.026453292040455986,0.04235954375621225,0.036769058992844585,0.028687922589026662
0.2499828,0.009700592557736315,0.028451708032894367,0.020190411763554753,0.009072147030695466,0.02676105348502658,0.04228937080930201,0.03660954749303974,0.02874532928879258
0.2504483,0.009616642205785566,0.028562404614297945,0.02032885056185121,0.009066862302489553,0.027071647829490078,0.04221742628575733,0.03644779473243245,0.028801672715027874
0.2509138,0.009532380705235871,0.028672573747883658,0.020467907987703263,0.009061185458080157,0.027385029086840977,0.042143730444083816,0.036283829916474,0.028856956296316814
0.2513793,0.009447820075590252,0.028782205947900645,0.020607544906209314,0.00905511565961504,0.027701150472215098,0.04206830368261376,0.03611768292464888,0.028911183764518348
0.2518448,0.009362972476780742,0.028891291597312106,0.020747721966420878,0.009048652169516756,0.028019964409270327,0.041991166532421215,0.03594938430457053,0.028964359150090428
0.2523103,0.009277850207014854,0.028999820946996064,0.020888399611664117,0.009041794351340152,0.028341422536771504,0.041912339650304054,0.03577896526571193,0.029016486777262252
0.2527759,0.009192465700580228,0.029107784115076325,0.021029538089977137,0.009034541670621293,0.028665475715379134,0.04183184381183586,0.03560645767277389,0.029067571259056717
0.2532414,0.00910683152560889,0.02921517108638408,0.02117109746466197,0.009026893695717481,0.02899207403464176,0.04174969990449019,0.03543189403869409,0.029117617492165866
0.2537069,0.009020960381802588,0.029321971712050532,0.02131303762495007,0.009018850098638086,0.02932116682019235,0.04166592892083956,0.03525530751730027,0.029166630651682287
0.2541724,0.008934865098120673,0.029428175709230994,0.021455318296780074,0.009010410655865832,0.02965270264114888,0.04158055195183158,0.03507673189561194,0.02921461618568978
0.2546379,0.008848558630431979,0.02953377266096111,0.021597899053686285,0.009001575249168225,0.029986629317719626,0.0414935901801446,0.03489620158579528,0.029261579809716852
0.2551034,0.00876205405913199,0.02963875201614586,0.021740739327796434,0.008992343866398791,0.030322893929013807,0.041405064873625524,0.03471375161677727,0.029307527501056953
0.255569,0.008675364586726677,0.02974310308968233,0.021883798420936938,0.008982716602287841,0.030661442821058486,0.04131499737881245,0.03452941762552536,0.029352465492959532
0.2560345,0.008588503535384238,0.029846815062717025,0.02202703551584378,0.008972693659222439,0.031002221615023317,0.04122340911454498,0.03434323584800037,0.0293964002686962
0.2565,0.008501484344456016,0.02994987698303849,0.022170409687477004,0.008962275348015261,0.03134517521565504,0.04113032156566551,0.03415524310979047,0.029439338555506227
0.2569655,0.008414320567967933,0.030052277765605973,0.02231387991443664,0.008951462088661979,0.031690247819924064,0.041035756276815015,0.033965476816434984,0.029481287318425472
0.257431,0.008327025872083721,0.030154006193214466,0.022457405090477705,0.008940254411086743,0.0320373829258861,0.04093973484632702,0.03377397494344704,0.02952225375400267
0.2578966,0.008239614032541387,0.030255050917296362,0.022600944036121878,0.008928652955875327,0.03238652334176194,0.04084227892022374,0.03358077602604426,0.029562245283906885
0.2583621,0.008152098932064355,0.030355400458859684,0.02274445551036326,0.008916658474995384,0.03273761119523937,0.04074341018631826,0.0333859191485967,0.02960126954842983
0.2588276,0.008064494557748788,0.03045504320956258,0.022887898222465536,0.008904271832503212,0.03309058794300173,0.04064315036842654,0.03318944393380136,0.02963933439988691
0.2592931,0.007976814998428663,0.030553967432923698,0.023031230843847852,0.008891494005236368,0.033445394380488054,0.04054152122069315,0.03299139053159239,0.029676447895921165
0.2597586,0.007889074442020133,0.030652161265667832,0.023174412020056444,0.008878326083491435,0.033801970651890244,0.040438544522034124,0.03279179960779607,0.029712618292714623
0.2602241,0.007801287172846803,0.030749612719206208,0.02331740038281908,0.008864769271686173,0.03416025626039266,0.04033424207070035,0.032590712332539656,0.02974785403811207
0.2606897,0.0077134675689474455,0.03084630968125063,0.023460154562178984,0.008850824889005317,0.03452019007865975,0.04022863567896438,0.03238817036842328,0.0297821637646623
0.2611552,0.007625630099367718,0.03094223991756061,0.023602633198705043,0.0088364943700292,0.034881710359577316,0.04012174716793358,0.03218421585846378,0.029815556282582308
0.2616207,0.007537789321437393,0.03103739107382259,0.023744794955774695,0.008821779265344394,0.035244754747252714,0.04001359836249184,0.03197889141382001,0.029848040572650156
0.2620862,0.007449959878034574,0.031131750677660112,0.023886598531925884,0.008806681242135484,0.035609260288279536,0.039904211086372085,0.03177224010130879,0.029879625779032224
0.2625517,0.007362156494838322,0.031225306140773658,0.0240280026732744,0.00879120208475709,0.03597516344327158,0.03979360715736143,0.03156430543072137,0.029910321202050654
0.2630172,0.007274393977571074,0.031318044761208856,0.024168966185992957,0.008775343695285154,0.0363424000986712,0.03968180838264042,0.03135513134194989,0.029940136290896733
0.2634828,0.007186687209232194,0.031409953725751644,0.02430944794884822,0.008759108094046513,0.03671090557883655,0.03956883655425755,0.031144762191933708,0.02996908063629585
0.2639483,0.007099051147323984,0.031501020112449214,0.024449406925792217,0.008742497420125702,0.03708061465841198,0.039454713444740094,0.03093324274143514,0.029997163963129632
0.2644138,0.007011500821071418,0.03159123089325547,0.024588802178604364,0.008725513931847877,0.03745146157498569,0.03933946080284171,0.030720618141654346,0.030024396123020523
0.2648793,0.006924051328636863,0.03168057293679995,0.02472759287958032,0.00870816000723675,0.03782338004203824,0.03922310034942738,0.030506933920692824,0.030050787086884048
0.2653448,0.006836717834331042,0.0317690330112793,0.024865738324263836,0.008690438144446326,0.038196303262185434,0.03910565377349578,0.030292235969874928,0.03007634693745353
0.2658103,0.006749515565821435,0.031856597787470395,0.02500319794421757,0.008672350962165263,0.038570163940718535,0.038987142728339044,0.03007657052993681,0.030101085861782003
0.2662759,0.006662459811339354,0.03194325384186412,0.025139931319828706,0.00865390119999265,0.03894489429944462,0.03886758882783976,0.029859984177091993,0.030125014143725877
0.2667414,0.006575565916886819,0.032028987659919066,0.025275898193145067,0.008635091718783959,0.03932042609082956,0.038747013642904574,0.029642523808982704,0.030148142156414526
0.2672069,0.006488849283444399,0.03211378563943405,0.025411058480737228,0.008615925500966019,0.039696690612445795,0.03862543869803375,0.029424236630525957,0.030170480354709917
0.2676724,0.006402325364181075,0.03219763409403841,0.025545372286582088,0.00859640565081983,0.04007361872172676,0.038502885468025605,0.029205170139663256,0.03019203926766002
0.2681379,0.006316009661667181,0.03228051925679872,0.0256787999149634,0.008576535394730161,0.040451140851029334,0.0383793753748148,0.02898537211302265,0.030212829490949708
0.2686034,0.006229917725091383,0.032362427283940565,0.0258113018833846,0.00855631808140087,0.0408291870230057,0.03825492978444277,0.028764890591501658,0.03023286167935248
0.269069,0.006144065147482643,0.03244334425868352,0.025942838935489442,0.008535757182034974,0.04120768686628527,0.038129570004158765,0.028543773865779536,0.030252146539186262
0.2695345,0.006058467562938044,0.03252325619518755,0.026073372053985848,0.008514856290478564,0.04158656963146733,0.03800331727964934,0.028322070461767098,0.030270694820776385
0.27,0.0059731406438573165,0.03260214904260865,0.026202862473568317,0.008493619123327748,0.041965764207424365,0.03787619279239402,0.02809982912600214,0.03028851731092855
0.2704655,0.005888100098184845,0.03268000868926157,0.0263312716938343,0.008472049519997795,0.04234519913791619,0.037748217657144596,0.02787709881099831,0.030305624825414556
0.270931,0.0058033616666599095,0.032756820966887264,0.02645856149218969,0.00845015144275379,0.04272480263851401,0.037619412919525155,0.02765392866055518,0.03032202820147324
0.2713966,0.005718941120075859,0.032832571655022756,0.026584693936738554,0.00842792897670208,0.04310450261383378,0.03748979955374965,0.027430367995036904,0.030337738290329222
0.2718621,0.005634854256548867,0.03290724648547115,0.0267096313991521,0.008405386329741811,0.04348422667507751,0.037359398460453684,0.027206466296626833,0.030352765949732078
0.2723276,0.005551116898796878,0.03298083114686971,0.02683333656751159,0.008382527832475858,0.04386390215788108,0.03722823046463706,0.026982273194565184,0.030367122036518708
0.2727931,0.0054677448914293115,0.03305331128935428,0.026955772459119794,0.0083593579380804,0.044243456140466424,0.03709631631371356,0.026757838450376655,0.030380817399202367
0.2732586,0.005384754098248048,0.03312467252931837,0.027076902433275436,0.008335881222132429,0.04462281546209597,0.03696367667566476,0.026533211943094714,0.030393862870592068
0.2737241,0.0053021603995601595,0.033194900454266034,0.027196690204004854,0.008312102382394503,0.04500190674182646,0.03683033213729449,0.026308443654489005,0.030406269260446546
0.2741897,0.005219979689502826,0.033263980627757386,0.027315099852745026,0.008288026238556198,0.04538065639755924,0.036696303202580674,0.02608358365430231,0.03041804734816767
0.2746552,0.005138227873380847,0.03333189859444615,0.02743209584097206,0.00826365773193188,0.04575899066538342,0.03656161029112139,0.025858682085503074,0.0304292078755387
0.2751207,0.005056920865017078,0.03339863988520847,0.02754764302276925,0.008239001925114602,0.04613683561920825,0.036426273736671726,0.02563378914955955,0.030439761539513277
0.2755862,0.004976074584116125,0.03346419002236221,0.027661706657328717,0.008214064001586101,0.04651411719068034,0.036290313785768205,0.025408955091741226,0.030449718985061092
0.2760517,0.00489570495364157,0.03352853452497589,0.02777425242138089,0.008188849265283077,0.046890761189381215,0.03615375059643754,0.02518423018645319,0.03045909079807648
0.2765172,0.004815827897206986,0.03359165891426623,0.02788524642154595,0.00816336314011999,0.04726669332330039,0.03601660423698664,0.02495966472260883,0.03046788749835589
0.2769828,0.004736459336480937,0.03365354871908341,0.027994655206601653,0.008137611169468822,0.047641839219578444,0.03587889468487112,0.02473530898904601,0.0304761195326504
0.2774483,0.004657615188606157,0.033714189481483324,0.028102445779661984,0.008111599015596256,0.048016124445514445,0.03574064182563957,0.024511213259991765,0.0304837972677994
0.2779138,0.004579311363633057,0.033773566762386145,0.028208585610261152,0.008085332459058878,0.04838947452983171,0.03560186545195133,0.024287427780580295,0.03049093098395172
0.2783793,0.004501563761967697,0.03383166614732062,0.028313042646337473,0.008058817398057073,0.04876181498419533,0.035462585262665984,0.024064002752428888,0.03049753086788034
0.2788448,0.004424388271834316,0.033888473252253706,0.028415785326111567,0.008032059847748275,0.049133071324974575,0.035322820862003244,0.0238409883192761,0.030503607006396802
0.2793103,0.0043478007667525015,0.0339439737295053,0.028516782589853185,0.008005065939520353,0.04950316909524305,0.035182591758772294,0.023618434552686467,0.03050916937987164
0.2797759,0.0042718171030290695,0.033998153273747715,0.02861600389153084,0.00797784192022577,0.04987203388700886,0.03504191736567,0.02339639143782577,0.030514227855866768
0.2802414,0.004196453117264671,0.0340509976280897,0.028713419210338226,0.007950394151377238,0.05023959136366699,0.03490081699864744,0.023174908859310783,0.03051879218288581
0.2807069,0.004121724623875162,0.03410249259024442,0.028808999062091372,0.007922729108305463,0.050605767282665616,0.03475930987634435,0.022954036587137183,0.03052287198424811
0.2811724,0.004047647412627731,0.03415262401878108,0.028902714510490275,0.007894853379279606,0.05097048751837769,0.03461741511959149,0.02273382426268938,0.03052647675209204
0.2816379,0.003974237246191805,0.034201377839459264,0.02899453717823908,0.007866773664591016,0.05133367808516897,0.03447515175098103,0.022514321384835626,0.03052961584151293
0.2821034,0.0039015098577047155,0.03424874005164529,0.02908443925801884,0.007838496775600817,0.05169526516065324,0.03433253869450576,0.022295577296111865,0.030532298464840794
0.282569,0.0038294809483521526,0.0342946967348094,0.02917239352330719,0.007810029633751915,0.05205517510912506,0.034189594775267736,0.022077641168997617,0.030534533686062938
0.2830345,0.0037581661849634173,0.03433923405510258,0.029258373339039467,0.007781379269546011,0.05241333450516039,0.03404633871925734,0.021860561992287152,0.030536330415395996
0.2835,0.0036875811976214866,0.03438233827201137,0.029342352672106116,0.007752552821486202,0.05276967015737506,0.03390278915320355,0.021644388557559138,0.03053769740401192
0.2839655,0.003617741577287922,0.034423995745089024,0.029424306101681542,0.007723557534985759,0.053124109132330954,0.033758964604496025,0.02142916944574786,0.030538643238922115
0.284431,0.003548662873442628,0.03446419294076084,0.029504208829379784,0.007694400761243667,0.0534765787785795,0.033614883501179485,0.0212149530138191,0.030539176338023652
0.2848966,0.0034803605917384604,0.03450291643920148,0.029582036689232816,0.007665089956087546,0.053827006750831734,0.03347056417202071,0.021001787381553533,0.030539304945311298
0.2853621,0.0034128501916706596,0.034540152941281606,0.02965776615748745,0.007635632678784528,0.054175321034243704,0.03332602484664833,0.020789720418440353,0.030539037126258703
0.2858276,0.0033461470842610502,0.034575889275581015,0.02973137436221707,0.007606036590820719,0.054521449968805806,0.03318128365576544,0.020578799730683654,0.03053838076337201
0.2862931,0.003280266629756928,0.03461011240546505,0.02980283909274467,0.007576309454649871,0.054865322273823944,0.0330363586314348,0.020369072648323983,0.03053734355191882
0.2867586,0.0032152241353445377,0.03464280943622084,0.02987213880887374,0.007546459132411947,0.05520686707248022,0.03289126770743625,0.020160586212477433,0.03053593299583522
0.2872241,0.003151034852877034,0.03467396762224963,0.02993925264992364,0.007516493584622268,0.05554601391646035,0.032746028719695584,0.0199533871626944,0.03053415640381334
0.2876897,0.003087713976616787,0.034703574374311055,0.03000416044356602,0.007486420868832035,0.05588269281063476,0.03260065940678406,0.019747521924440098,0.03053202088557171
0.2881552,0.0030252766409919057,0.034731617266815236,0.030066842714458822,0.007456249138261016,0.056216834237780115,0.03245517741048734,0.019543036596698746,0.0305295333483105
0.2886207,0.002963737918366791,0.034758084045157775,0.030127280692674313,0.007425986640403304,0.056548369183327674,0.032309600276442405,0.019339976939703178,0.030526700493353376
0.2890862,0.0029031128168265615,0.03478296263309294,0.030185456321917853,0.007395641715606985,0.056877229160124713,0.03216394545484092,0.0191383883627916,0.03052352881297743
0.2895517,0.0028434162779751317,0.034806241140139825,0.030241352267534344,0.007365222795628623,0.057203346233195236,0.0320182303011972,0.018938315912393196,0.030520024587432578
0.2900172,0.002784663174746732,0.03482790786901605,0.03029495192429963,0.007334738402163416,0.057526653044485516,0.031872472077178825,0.01873980426014431,0.030516193882151252
0.2904828,0.002726868309230625,0.03484795132309329,0.030346239423994597,0.007304197145351839,0.05784708283758001,0.031726687951497724,0.01854289769113695,0.030512042545149193
0.2909483,0.002670046410508761,0.03486636021386873,0.030395199642760086,0.007273607722263583,0.058164569482372565,0.031580895000859394,0.018347640092301422,0.030507576204617817
0.2914138,0.0026142121325060975,0.03488312346844622,0.030441818208231095,0.0072429789153595605,0.05847904749967759,0.031435110210967794,0.018154074940925125,0.030502800266708305
0.2918793,0.0025593800518533046,0.034898230237020704,0.030486081506448957,0.00721231959093279,0.05879045208576561,0.03128935047758325,0.017962245293309406,0.030497719913507346
0.2923448,0.0025055646657615597,0.03491166990035928,0.03052797668855045,0.007181638697528895,0.05909871913680697,0.03114363260763052,0.01777219377356667,0.03049234010120431
0.2928103,0.0024527803899091595,0.03492343207727225,0.030567491677232914,0.007150945264346979,0.059403785273207464,0.030997973320353894,0.017583962562559858,0.03048666555844916
0.2932759,0.002401041556339654,0.03493350663206734,0.030604615172994714,0.007120248399621576,0.059705587863819194,0.03085238924851616,0.01739759338698644,0.03048070078490044
0.2937414,0.0023503624113712057,0.03494188368198038,0.03063933666015051,0.007089557288986367,0.06000406505000987,0.03070689693963799,0.017213127508609084,0.030474450049962236
0.2942069,0.002300757113516877,0.034948553604575786,0.03067164641262094,0.007058881193820251,0.06029915576957357,0.03056151285727433,0.017030605713635065,0.030467917391708992
0.2946724,0.002252239731415553,0.03495350704511007,0.030701535499496467,0.007028229449576348,0.060590799780465776,0.03041625338232415,0.01685006830224635,0.03046110661599672
0.2951379,0.0022048242417732106,0.03495673492385183,0.030728995790375236,0.0069976114640944494,0.06087893768434504,0.03027113481436983,0.016671555078282257,0.030454021295759134
0.2956034,0.002158524527314252,0.034958228443351475,0.030754019960474988,0.006967036715897403,0.06116351094990413,0.03012617337304249,0.016495105339076475,0.03044666477048708
0.296069,0.0021133543747426527,0.03495797909565404,0.030776601495518863,0.006936514752471841,0.06144446193597278,0.02998138519940932,0.016320757865450106,0.030439040145889548
0.2965345,0.0020693274727126764,0.03495597866944827,0.030796734696395114,0.006906055188533661,0.06172173391437439,0.029836786357379057,0.0161485509118623,0.030431150293734555
0.297,0.002026457409808932,0.034952219257144965,0.030814414683590547,0.006875667704278616,0.061995271092519344,0.029692392835121338,0.01597852219671995,0.03042299785186803
0.2974655,0.001984757672535559,0.03494669326187767,0.03082963740139731,0.0068453620436183735,0.06226501863571725,0.029548220546495942,0.01581070889284777,0.030414585224408867
0.297931,0.0019442416433143293,0.03493939340441891,0.030842399621892617,0.006815148012402357,0.06253092268919089,0.029404285332487495,0.01564514761812002,0.030405914582118065
0.2983966,0.0019049225984914455,0.03493031273000507,0.03085269894869057,0.0067850354766256825,0.06279293039977461,0.02926060296264113,0.015481874426255007,0.03039698786293983
0.2988621,0.0018668137063528084,0.03491944461506389,0.030860533820465157,0.006755034360623511,0.06305098993728056,0.02911718913649453,0.015320924797773484,0.03038780677271229
0.2993276,0.001829928025147519,0.03490678277383843,0.030865903514243263,0.006725154645252098,0.06330505051551671,0.028974059485001775,0.015162333631121894,0.03037837278604538
0.2997931,0.0017942785011193733,0.03489232126490234,0.0308688081484663,0.006695406366056847,0.063555062412942,0.02883122957194441,0.015006135233961455,0.030368687147363366
0.3002586,0.0017598779665460962,0.03487605449756141,0.03086924868581876,0.0066657996114276525,0.06380097699294464,0.028688714895325405,0.014852363314624018,0.030358750872109343
0.3007241,0.0017267391377860774,0.03485797723813679,0.030867226935821935,0.006636344520741778,0.06404274672373024,0.028546530888741692,0.014701050973735717,0.030348564748108906
0.3011897,0.0016948746133323672,0.03483808461612554,0.030862745557190856,0.00660705128249456,0.06428032519780648,0.028404692922731175,0.014552230696009518,0.030338129337090312
0.3016552,0.0016642968718737052,0.0348163721302344,0.030855808059952482,0.0065779301324182145,0.06451366715105097,0.028263216306090258,0.014405934342207782,0.030327444976358434
0.3021207,0.001635018270362367,0.03479283565428268,0.030846418807322914,0.006548991351589011,0.06474272848134854,0.028122116287158095,0.014262193141276145,0.03031651178061981
0.3025862,0.0016070510420886134,0.03476747144297023,0.0308345830173415,0.006520245264523091,0.06496746626678403,0.02798140805506392,0.014121037682649941,0.030305329643956293
0.3030517,0.0015804072947615312,0.03474027613750674,0.030820306764259543,0.006491702237261163,0.06518783878337676,0.02784110674093398,0.013982497908734385,0.030293898241944943
0.3035172,0.0015550990085960606,0.03471124677109842,0.030803596979681252,0.006463372675442319,0.06540380552234258,0.027701227419054685,0.013846603107559644,0.03028221703392192
0.3039828,0.0015311380344059918,0.0346803807742884,0.03078446145345447,0.006435267022367141,0.06561532720686937,0.02756178510798874,0.01371338190561184,0.030270285265388452
0.3044483,0.0015085360917027227,0.03464767598014703,0.03076290883430888,0.006407395757050263,0.06582236580839247,0.02742279477164114,0.013582862260840895,0.030258101970557033
0.3049138,0.0014873047667995577,0.034613130629308285,0.030738948630239193,0.006379769392262521,0.06602488456235546,0.0272842713202719,0.01345507145584608,0.0302456659750364
0.3053793,0.0014674555109213307,0.03457674337484811,0.030712591208631256,0.00635239847256282,0.06622284798344201,0.027146229611452785,0.013330036091239957,0.030232975898653997
0.3058448,0.0014489996383191285,0.034538513287000576,0.03068384779612911,0.006325293572319866,0.06641622188026391,0.027008684450965378,0.013207782079191351,0.030220030158414565
0.3063103,0.0014319483243898927,0.03449843985770747,0.030652730478241363,0.00629846529372388,0.06660497336949009,0.026871650593638007,0.013088334637147923,0.03020682697159353
0.3067759,0.0014163126038006803,0.034456523004996936,0.0306192521986856,0.00627192426478851,0.0667890708894011,0.02673514274411901,0.012971718281738823,0.030193364358963654
0.3072414,0.0014021033686173533,0.03441276307718668,0.030583426758469905,0.006245681137343176,0.06696848421285401,0.026599175557583992,0.012857956822857963,0.030179640148153167
0.3077069,0.001389331366437481,0.0343671608569073,0.030545268814710588,0.006219746585016152,0.06714318445964244,0.026463763640374897,0.012747073357928372,0.03016565197713358
0.3081724,0.0013780071985272384,0.03431971756494121,0.030504793879185622,0.006194131301208711,0.06731314410823828,0.02632892155056865,0.012639090266348168,0.030151397297835114
0.3086379,0.0013681413179621096,0.03427043486387251,0.03046201831662346,0.006168845997060794,0.06747833700690234,0.026194663798473197,0.012534029204118653,0.030136873379887668
0.3091034,0.0013597440277712215,0.034219314861543254,0.03041695934272684,0.006143901399408592,0.06763873838415332,0.026061004847048756,0.012431911098655062,0.03012207731448509
0.309569,0.0013528254790851671,0.03416636011431119,0.030369635021931483,0.006119308248734611,0.0677943248585861,0.025927959112252305,0.012332756143780384,0.030107006018370606
0.3100345,0.0013473956692872263,0.03411157363010426,0.03032006426489964,0.006095077297110754,0.06794507444803181,0.025795540963303158,0.012236583794902674,0.03009165623794132
0.3105,0.0013434644401679264,0.03405495887126684,0.030268266825748503,0.006071219306135008,0.06809096657805423,0.025663764722867865,0.012143412764376181,0.03007602455346993
0.3109655,0.0013410414760829464,0.03399651975719282,0.030214263299013812,0.006047745044862375,0.06823198208977736,0.025532644667162895,0.01205326101704661,0.030060107383441878
0.311431,0.0013401363021144103,0.03393626066674032,0.03015807511634889,0.006024665287730705,0.06836810324704046,0.02540219502597383,0.01196614576598078,0.030043900989006413
0.3118966,0.0013407582822356672,0.033874186440423025,0.03009972454295967,0.006001990812482076,0.06849931374287664,0.025272429982590414,0.011882083468381072,0.030027401478540026
0.3123621,0.001342916617479701,0.033810302382372835,0.030039234673776134,0.005979732398080405,0.06862559870531205,0.025143363673657736,0.011801089821685005,0.030010604812320832
0.3128276,0.0013466203441113603,0.03374461426206843,0.02997662942936057,0.005957900822625914,0.06874694470248338,0.025015010188944836,0.011723179759850391,0.02999350680731229
0.3132931,0.001351878331803637,0.03367712831582443,0.029911933551553107,0.0059365068612670865,0.06886333974707354,0.02488738357103298,0.011648367449826391,0.02997610314205467
0.3137586,0.0013586992818182659,0.033607851248035434,0.0298451725988548,0.005915561284110722,0.06897477330006678,0.02476049781492649,0.01157666628821086,0.02995838936166253
0.3142241,0.0013670917251909305,0.033536790232169204,0.02977637294154861,0.005895074854130645,0.06908123627382677,0.024634366867589446,0.01150808889809436,0.029940360882926207
0.3146897,0.0013770640209213839,0.033463952911503246,0.02970556175655894,0.005875058325075607,0.06918272103450249,0.02450900462741173,0.011442647126091192,0.029922012999515135
0.3151552,0.0013886243541687904,0.0333893473995987,0.02963276702205049,0.005855522439376845,0.06927922140376763,0.02438442494360817,0.011380352039557888,0.029903340887280624
0.3156207,0.0014017807344525919,0.03331298228050558,0.02955801751176754,0.005836477926055749,0.06937073265989936,0.024260641615554475,0.011321213923999606,0.02988433960965551
0.3160862,0.0014165409938591968,0.033234866608693174,0.02948134278911521,0.005817935498632054,0.06945725153820205,0.024137668392063747,0.011265242280664826,0.029865004123147926
0.3165517,0.0014329127852548047,0.03315500990869935,0.029402773200984493,0.005799905853032942,0.06953877623078189,0.024015518970607087,0.011212445824328787,0.02984532928292604
0.3170172,0.0014509035805046748,0.03307342217449277,0.029322339871323093,0.005782399665503428,0.06961530638567777,0.023894206996481985,0.011162832481265966,0.029825309848490564
0.3174828,0.0014705206686991673,0.032990113868541844,0.029240074694454214,0.005765427590518353,0.06968684310535422,0.023773746061931694,0.011116409387411852,0.029804940489431477
