Time,Rectus Femoris right,Rectus Femoris left,Hamstrings right,Hamstrings left,TibilaisÂ Anterior right,TibilaisÂ Anterior left,Gastrocnemius right,Gastrocnemius left
0.0,0.007402102851433684,-0.002488666819583098,0.0050149174254580054,0.00428108094710748,0.026189792071759352,0.012654200190787036,0.006428704898165213,0.029953895793093828
0.0004655,0.009053159694256683,-0.001471118693886111,0.004946466215159896,0.004408141967617198,0.028232087166175087,0.012874722709482516,0.006736544840194139,0.03085402987399703
0.000931,0.010707967595007199,-0.0004561382088020655,0.004877521433950403,0.004536410406641974,0.030291718459561273,0.01309522001282215,0.007047983512588233,0.03175160601632404
0.0013966,0.012366332961645184,0.0005561156750689942,0.00480810807970907,0.004665883402654094,0.032368527686786386,0.013315657635091115,0.007363016122831009,0.03264648674427505
0.0018621,0.014028061021865731,0.0015654843829885985,0.0047382518023212005,0.0047965579314308065,0.034462351825973896,0.013536001017053574,0.00768163720714039,0.03353853510005126
0.0023276,0.015692955866796802,0.00257180977581669,0.004667978906728727,0.004928430806351819,0.03657302309634571,0.013756215516163805,0.008003840626127206,0.03442761468853666
0.0027931,0.01736082049491762,0.0035749341995709775,0.004597316355818722,0.005061498678694967,0.03870036895708112,0.013976266416843497,0.008329619560536685,0.035313589721720114
0.0032586,0.01903145685617567,0.0045747005347714685,0.004526291773144464,0.005195758037926075,0.04084421210719445,0.014196118940819394,0.008658966507072012,0.03619632506282132
0.0037241,0.020704665896280342,0.005570952245534081,0.004454933445474273,0.005331205211979525,0.043004370486434865,0.014415738257515425,0.0089918732742992,0.037075686270086505
0.0041897,0.02238024760115122,0.006563533428379012,0.004383270325163602,0.0054678363675265485,0.04518065727721208,0.014635089494493587,0.009328330978632664,0.0379515396402221
0.0046552,0.024058001041499157,0.0075522888607217845,0.004311332032346198,0.0056056475102287074,0.047372880907552095,0.014854137747937785,0.009668330040401062,0.03882375225143601
0.0051207,0.025737724417518194,0.008537064049017346,0.00423914885694041,0.00574463448497454,0.049580845055087364,0.015072848093174784,0.010011860179993138,0.03969219200605731
0.0055862,0.027419215103666433,0.009517705276529955,0.004166751760466921,0.005884792976097756,0.05180434865208628,0.015291185595226525,0.010358910414083385,0.040556727672705954
0.0060517,0.02910226969351397,0.01049405965070365,0.0040941723776743546,0.0060261185075757475,0.054043185891527235,0.015509115319388056,0.010709469051937497,0.04141722892798484
0.0065172,0.03078668404463618,0.011465975150109652,0.004021443017969233,0.006168606443207466,0.0562971462342232,0.015726602341825366,0.011063523691797545,0.04227356639766726
0.0069828,0.03247225332353096,0.012433300670948028,0.003948596666646822,0.006312251986769888,0.058566014417003,0.015943611760187625,0.011421061217346809,0.043125611697352906
0.0074483,0.03415877205053913,0.013395886073081772,0.0038756669859194093,0.006457050182152318,0.060849570461956284,0.01616010870422833,0.011782067794254236,0.04397323747256619
0.0079138,0.03584603414474786,0.014353582225582,0.0038026883157386113,0.0066029959134678105,0.06314758968674972,0.01637605834642995,0.012146528866798435,0.044816317438270636
0.0083793,0.037533832968857796,0.015306241051763713,0.003729695674408297,0.006750083905140983,0.06545984271602229,0.016591425912626603,0.012514429154571134,0.04565472641777378
0.0088448,0.03922196137399579,0.016253715573692495,0.0036567247589847094,0.00689830872197151,0.0677860954938685,0.01680617669261947,0.012885752649260026,0.04648834038099723
0.0093103,0.04091021174445558,0.017195859956143558,0.003583811945460398,0.007047664769172653,0.07012610929741854,0.017020276050779458,0.013260482611511004,0.04731703648208657
0.0097759,0.04259837604235015,0.018132529549996064,0.0035109942887285753,0.007198146292384327,0.07247964075152513,0.01723368943663196,0.013638601567869911,0.04814069309633655
0.0102414,0.044286245852160185,0.01906358093504704,0.0034383095223245335,0.0073497473776603615,0.07484644184456755,0.0174463823954186,0.014020091307804242,0.04895918985640711
0.0107069,0.04597361242516397,0.01998887196223102,0.003365796057940789,0.007502461951429789,0.07722625994538347,0.017658320578630943,0.014404932880805637,0.049772407687807364
0.0111724,0.04766026672373499,0.020908261795233196,0.0032934929847126186,0.007656283780432207,0.07961883782133983,0.017869469754511345,0.01479310659357444,0.05058022884362541
0.0116379,0.049345999465494055,0.021821610951485187,0.0032214400682706893,0.007811206471627417,0.08202391365755451,0.018079795818516087,0.01518459200728814,0.05138253693848323
0.0121034,0.05103060116730383,0.02272878134253363,0.0031496777495574994,0.007967223472079676,0.084441221077281,0.018289264803736046,0.015579367934955825,0.05217921698169677
0.012569,0.05271386218909397,0.023629636313772424,0.003078247143404384,0.00812432806881699,0.08687048916346807,0.01849784289127,0.015977412438861117,0.05297015540962221
0.0130345,0.05439557277750552,0.024524040683529855,0.003007190036865879,0.008282513388665917,0.08931144248150764,0.01870549642054568,0.0163787028280963,0.05375524011717024
0.0135,0.05607552310934346,0.025411860781501802,0.002936548887308248,0.008441772398062338,0.09176380110318323,0.01891219189958356,0.016783215656190457,0.05453436048847216
0.0139655,0.05775350333482634,0.026292964486522297,0.0028663668202489993,0.008602097902838644,0.09422728063183226,0.01911789601519827,0.017190926718834723,0.055307407426682824
0.014431,0.05942930362062193,0.027167221263662757,0.0027966876269442612,0.008763482547987759,0.09670159222873521,0.019322575643132677,0.01760181105170767,0.05607427338290728
0.0148966,0.061102714192657615,0.028034502200651335,0.00272755576172093,0.00892591881740438,0.09918644264074483,0.019526197858119494,0.01801584292840407,0.05683485238423905
0.0153621,0.0627735253786938,0.028894680043604046,0.0026590163390505903,0.0090893990336038,0.1016815342291687,0.019728729943865386,0.018432995858470157,0.05758904006089843
0.0158276,0.06444152765064888,0.029747629232059817,0.0025911151303622823,0.009253915357418716,0.10418656499991863,0.01993013940295243,0.01885324258554854,0.05833673367246101
0.0162931,0.06610651166666444,0.03059322593331188,0.002523898560591285,0.009419459787674448,0.10670122863494111,0.02013039396665182,0.019276555085635784,0.05907783213316736
0.0167586,0.06776826831289948,0.031431348076028535,0.0024574137044611564,0.009586024160843087,0.1092252145249429,0.020329461604644553,0.019702904565455755,0.0598122360363069
0.0172241,0.06942658874504393,0.03226187538315648,0.002391708282496331,0.00975360015067719,0.11175820780342527,0.020527310534643885,0.020132261460951734,0.06053984767766962
0.0176897,0.07108126442954248,0.03308468940410013,0.0023268306567625994,0.009922179267823666,0.11429988938204046,0.0207239092319144,0.02056459543590047,0.0612605710780605
0.0181552,0.07273208718452125,0.0338996735461705,0.0022628298263328126,0.010091752859418528,0.11684993598728298,0.02091922643868273,0.020999875380651276,0.06197431200487213
0.0186207,0.07437884922041131,0.03470671310529774,0.0021997554224751532,0.010262312108663284,0.11940802019852814,0.021113231173435307,0.021438069410993337,0.06268097799271236
0.0190862,0.07602134318026453,0.035505695296001644,0.002137657703561309,0.010433848034383663,0.1219738104874299,0.021305892740098625,0.0218791448671544,0.06338047836308504
0.0195517,0.07765936217975887,0.03629650928061539,0.0020765875496918757,0.010606351490571557,0.12454697125868991,0.02149718073709785,0.02232306831293406,0.06407272424312377
0.0200172,0.07929269984689141,0.03707904619775802,0.002016596457036331,0.010779813165911034,0.12712716289220988,0.021687065066289514,0.02276980553497507,0.06475762858337994
0.0204828,0.08092115036135857,0.037853199190051416,0.001957736531884936,0.010954223583289385,0.12971404178663945,0.02187551594176406,0.023219321542176433,0.06543510617466716
0.0209483,0.08254450849362419,0.03861886343107782,0.0019000604844099922,0.011129573099294193,0.13230726040433247,0.022062503898514062,0.023671580565252474,0.06610507366396515
0.0214138,0.08416256964367727,0.039375936151573844,0.0018436216221339597,0.011305851903697477,0.13490646731772465,0.02224799980096382,0.024126546056442558,0.06676744956938607
0.0218793,0.0857751298794811,0.040124316664856684,0.0017884738431020832,0.011483050018928112,0.1375113072571466,0.022431974851356087,0.02458418068937645,0.06742215429420738
0.0223448,0.08738198597511682,0.04086390639147868,0.0017346716287573287,0.01166115729953372,0.14012142116008594,0.022614400597991774,0.025044446359100334,0.06806911013997609
0.0228103,0.08898293544862382,0.041594608883106066,0.0016822700365156297,0.01184016343163321,0.14273644622191362,0.022795248943318632,0.02550730418226864,0.06870824131869109
0.0232759,0.09057777659953942,0.04231632984561806,0.0016313246920396662,0.012020057932361156,0.1453560159480894,0.022974492151865217,0.02597271449750665,0.06933947396407106
0.0237414,0.09216630854614014,0.043028977161423024,0.0015818917812096527,0.012200830149305094,0.14797976020786216,0.02315210285801656,0.026440636865948813,0.06996273614191696
0.0242069,0.09374833126238688,0.04373246091098851,0.0015340280417898925,0.012382469259936848,0.15060730528948107,0.02332805407362824,0.02691103007195755,0.07057795785957854
0.0246724,0.0953236456145761,0.04442669339358261,0.00148779075479015,0.012564964271038977,0.1532382739569335,0.023502319195475525,0.027383852124027327,0.07118507107453423
0.0251379,0.09689205339770046,0.04511158914722382,0.001443237735521235,0.01274830401812745,0.1558722855082257,0.023674872012534393,0.027859060255878455,0.07178400970209438
0.0256034,0.09845335737152283,0.04578706496783677,0.001400427324344548,0.012932477164871673,0.15850895583522198,0.02384568671309122,0.028336610927745195,0.07237470962223762
0.026069,0.10000736129636915,0.04645303992761098,0.0013594183771156948,0.01311747220251308,0.16114789748505703,0.024014737891677965,0.028816459827862535,0.07295710868558992
0.0265345,0.10155386996864661,0.047109435392559365,0.0013202702553226186,0.01330327744928344,0.16378871972313608,0.024182000555829718,0.02929856187415604,0.07353114671855657
0.027,0.103092689256095,0.047756175039273284,0.001283042815919004,0.013489881049824091,0.16643102859773592,0.024347450132661503,0.029782871216139175,0.07409676552761704
0.0274655,0.10462362613277987,0.04839318487087063,0.0012477964008539416,0.013677270974607232,0.16907442700621975,0.02451106247526176,0.03026934123702242,0.07465390890279382
0.027931,0.10614648871383651,0.0490203932321335,0.0012145918262990143,0.013865435019360398,0.1717185147628774,0.02467281386890036,0.030757924556038423,0.07520252262030602
0.0283966,0.10766108628997359,0.049637730823832465,0.0011834903715740824,0.014054360804495245,0.17436288866840224,0.024832681037049352,0.031248573030987343,0.07574255444441975
0.0288621,0.1091672293617454,0.05024513071623526,0.0011545537677731044,0.014244035774541768,0.177007142581014,0.024990641147215185,0.03174123776100651,0.07627395412850729
0.0293276,0.11066472967360085,0.05084252836179828,0.0011278441860913774,0.014434447197589285,0.1796508674892357,0.02514667181658118,0.03223586908956826,0.07679667341532792
0.0297931,0.11215340024771643,0.05142986160704065,0.001103424225855609,0.014625582164735595,0.18229365158633304,0.025300751117459278,0.03273241660770985,0.07731066603654345
0.0302586,0.11363305541761991,0.05200707070360172,0.0010813569022582988,0.014817427589545948,0.1849350803464215,0.02545285758254998,0.0332308291574993,0.07781588771148183
0.0307241,0.11510351086161041,0.052574098318483864,0.0010617056337979766,0.015009970207523616,0.1875747366022462,0.025602970210009318,0.03373105483574078,0.07831229614516261
0.0311897,0.11656458363598035,0.05313088954348382,0.001044534229426939,0.015203196575594009,0.1902122006246382,0.02575106846832198,0.0342330409979231,0.07879985102559876
0.0316552,0.11801609220804393,0.05367739190381682,0.0010299068754082246,0.015397093071604348,0.19284705020364995,0.025897132300979495,0.03473673426241485,0.07927851402039038
0.0321207,0.11945785648897661,0.05421355536593817,0.0010178881218836826,0.015591645893840909,0.19547886073137086,0.026041142130962775,0.035242080514909256,0.07974824877262618
0.0325862,0.12088969786646993,0.054739332344567855,0.0010085428691551073,0.015786841060565823,0.19810720528642264,0.02618307886502822,0.035749024913121825,0.0802090208961101
0.0330517,0.12231143923720571,0.055254677708923755,0.0010019363536805433,0.015982664409575388,0.20073165472013338,0.0263229238977969,0.036257511891743636,0.08066079796992992
0.0335172,0.12372290503915377,0.05575954878816936,0.0009981341337880155,0.016179101597781718,0.20335177774438698,0.026460659115646903,0.03676748516765278,0.08110354953238492
0.0339828,0.12512392128369731,0.05625390537608153,0.0009972020751090754,0.016376138100819563,0.2059671410211446,0.026596266900409258,0.03727888774538648,0.08153724707428923
0.0344483,0.12651431558758994,0.0567377097349438,0.0009992063357347042,0.01657375921268011,0.20857730925363274,0.026729730132868567,0.037791661922876044,0.08196186403166733
0.0349138,0.12789391720474838,0.057210926598671115,0.0010042133510962407,0.01677195004537346,0.21118184527919168,0.02686103219606969,0.03830574929744722,0.08237737577785804
0.0353793,0.1292625570578847,0.05767352317517177,0.0010122898185741286,0.01697069552862143,0.21378031016377744,0.02699015697843221,0.038821090772088326,0.08278375961504296
0.0358448,0.13062006776998086,0.0581254691479529,0.0010235026818373933,0.017169980409582314,0.21637226329810846,0.027117088876674328,0.039337626561988755,0.08318099476521523
0.0363103,0.1319662836956081,0.05856673667697605,0.0010379191149168566,0.01736978925260912,0.2189572624954486,0.02724181279854779,0.03985529620135043,0.08356906236060442
0.0367759,0.13330104095209294,0.0589973003987693,0.0010556065060151809,0.017570106439042794,0.22153486409101594,0.027364314165385574,0.04037403855047495,0.08394794543357283
0.0372414,0.13462417745053268,0.05941713742580276,0.0010766324410568955,0.017770916167041947,0.2241046230430062,0.027484578914463893,0.040893791803129166,0.08431762890599931
0.0377069,0.13593553292666197,0.059826227345134195,0.0011010646869815907,0.017972202451450814,0.2266660930352194,0.027602593501180415,0.04141449349419169,0.08467809957816637
0.0381724,0.13723494897157382,0.060224552216331356,0.0011289711747834764,0.018173949123707123,0.22921882658127649,0.027718344901050393,0.04193608050758308,0.08502934611716718
0.0386379,0.13852226906229861,0.060612096568677894,0.0011604199823005215,0.01837613983179184,0.23176237513041298,0.027831820611522673,0.042458489084482263,0.08537135904484902
0.0391034,0.13979733859224472,0.060988847397669674,0.0011954793167563945,0.01857875804022285,0.2342962891748342,0.027943008653617377,0.042981654831831764,0.08570413072530954
0.039569,0.14106000490150486,0.06135479416080843,0.0012342174970584583,0.01878178703009485,0.23682011835861738,0.02805189757338723,0.04350551273113412,0.08602765535196205
0.0400345,0.14231011730703216,0.06170992877269978,0.0012767029358550924,0.018985209899167875,0.23933341158814364,0.028158476443204232,0.04402999714754159,0.08634192893418555
0.0405,0.1435475271326892,0.06205424559946265,0.0013230041213556543,0.019189009562006937,0.2418357171440415,0.028262734862873506,0.04455504183924101,0.08664694928357435
0.0409655,0.14477208773917247,0.062387741452456874,0.0013731895989164298,0.019393168750175455,0.24432658279462297,0.02836466296057593,0.04508057996713545,0.08694271599980201
0.041431,0.1459836545538138,0.06271041558133576,0.0014273279523959702,0.01959767001248506,0.24680555591079092,0.02846425139364112,0.045606544104823926,0.08722923045611371
0.0418966,0.14718208510025882,0.0630222696664299,0.0014854877852832618,0.019802495715304496,0.24927218358239714,0.028561491349152025,0.046132866248879946,0.08750649578446038
0.0423621,0.14836723902802215,0.06332330781046851,0.0015477377016022255,0.020007628042930447,0.2517260127360258,0.028656374544382437,0.046659477829429565,0.08777451686028777
0.0428276,0.14953897814191713,0.06361353652964427,0.0016141462865960894,0.020213048998023345,0.2541665902541786,0.028748893227068684,0.047186309721029114,0.08803330028699304
0.0432931,0.150697166431358,0.06389296474402782,0.0016847820871952245,0.020418740402111436,0.25659346309583503,0.028839040175516886,0.0477132922538427,0.0882828543800608
0.0437586,0.15184167009953137,0.06416160376733766,0.0017597135922720717,0.02062468389616648,0.2590061784183591,0.028926808698547454,0.0482403552251189,0.08852318915089075
0.0442241,0.15297235759243333,0.06441946729607134,0.0018390092126868165,0.02083086094125476,0.261404283700722,0.029012192635278686,0.04876742791096598,0.08875431629032836
0.0446897,0.15408909962776826,0.06466657139800361,0.0019227372611275017,0.021037252819267015,0.263787326868009,0.02909518635475142,0.049294439078424346,0.08897624915191017
0.0451552,0.1551917692237051,0.06490293450005688,0.002010965931748311,0.021243840633730946,0.26615485641717573,0.02917578475539698,0.04982131699783477,0.08918900273483489
0.0456207,0.15628024172748622,0.06512857737554895,0.0021037632796097948,0.021450605310710122,0.26850642154401744,0.02925398326435051,0.05034798945550041,0.0893925936666727
0.0460862,0.15735439484388458,0.06534352313082269,0.002201197199924859,0.02165752759979285,0.27084157227131317,0.029329777836612107,0.05087438376664067,0.08958704018582499
0.0465517,0.15841410866350342,0.0655477971912622,0.002303335407114378,0.021864588075174718,0.2731598595781056,0.029403164954058335,0.05140042678863441,0.08977236212374791
0.0470172,0.15945926569091332,0.06574142728669956,0.0024102454136763285,0.02207176713683837,0.2754608355300746,0.02947414162430658,0.051926044934550136,0.08994858088695304
0.0474828,0.16048975087261974,0.06592444343621638,0.0025219945088723974,0.022279045011833913,0.27774405341096187,0.029542705379434788,0.05245116418696076,0.09011571943879843
0.0479483,0.16150545162485316,0.06609687793234452,0.0026386497372360863,0.022486401755663365,0.2800090678550027,0.029608854274558973,0.0529757101120404,0.09027380228108269
0.0484138,0.1625062578611732,0.06625876532467044,0.0027602778769064864,0.02269381725377233,0.2822554349803205,0.029672586886270773,0.05349960787394054,0.0904228554354547
0.0488793,0.16349206201987618,0.06641014240284841,0.0028869454177920745,0.022901271223151935,0.28448271252323765,0.02973390231093729,0.054022782249443076,0.09056290642465008
0.0493448,0.16446275909119512,0.06655104817902752,0.0030187185395690965,0.023108743214053925,0.28669045997345644,0.029792800162865472,0.054545157642887546,0.0906939842535659
0.0498103,0.16541824664427995,0.06668152386969858,0.0031556630895193407,0.023316212611821787,0.28887823871006263,0.029849280572333287,0.05506665810136974,0.09081611939018376
0.0502759,0.1663584248539443,0.06680161287696713,0.0032978445602123464,0.02352365863884057,0.2910456121383021,0.029903344183490096,0.05558720733020874,0.09092934374635102
0.0507414,0.16728319652716508,0.06691136076925917,0.003445328067037324,0.023731060356607943,0.2931921458270796,0.029954992152128528,0.056106728708679325,0.09103369065842899
0.0512069,0.16819246712931937,0.06701081526146697,0.0035981783255902853,0.02393839666792893,0.29531740764712816,0.03000422614333004,0.05662514530600673,0.09112919486781683
0.0516724,0.16908614481014347,0.06710002619454221,0.003756459628922093,0.02414564631923656,0.297420967909795,0.030051048328986373,0.057142379897620145,0.0912158925013587
0.0521379,0.1699641404293974,0.06717904551454462,0.003920235824653352,0.024352787903040463,0.29950239950639057,0.030095461385198963,0.057658354981661386,0.0912938210516417
0.0526034,0.17082636758221845,0.06724792725115376,0.004089570291962253,0.024559799860505396,0.30156127804804783,0.030137468489558377,0.05817299279574505,0.0913630193571919
0.053069,0.17167274262414706,0.06730672749565188,0.0042645259184516966,0.024766660484161287,0.3035971820060378,0.030177073318305613,0.058686215333966125,0.09142352758257523
0.0535345,0.17250318469580722,0.06735550437838557,0.004445165076902206,0.024973347920746406,0.3056096928524899,0.030214280043377322,0.05919794436415107,0.09147538719841065
0.054,0.1733176157472241,0.06739431804571386,0.004631549601917317,0.025179840174185043,0.3075983952014623,0.030249093329336948,0.05970810144534823,0.09151864096130256
0.0544655,0.17411596056176099,0.06742323063644967,0.004823740766468314,0.02538611510870083,0.30956287695030843,0.03028151833019386,0.06021660794555338,0.0915533328936995
0.054931,0.1748981467796584,0.06744230625780243,0.005021799258345353,0.025592150452066743,0.31150272942128215,0.030311560686112692,0.060723385059666714,0.09157950826368694
0.0553966,0.17566410492115717,0.06745161096082938,0.005225785156522134,0.025797923798992605,0.31341754750332257,0.030339226520015125,0.06122835382767721,0.09159721356472168
0.0558621,0.17641376840918715,0.06745121271540391,0.005435757907441416,0.026003412614650678,0.3153069297939567,0.030364522434076446,0.06173143515307111,0.09160649649531603
0.0563276,0.1771470735916029,0.06744118138470893,0.005651776301228754,0.026208594238339687,0.31717047874125637,0.030387455506119564,0.062232549821461175,0.0916074059386786
0.0567931,0.17786395976294703,0.06742158869926433,0.005873898447841867,0.026413445887287546,0.319007800785784,0.030408033285909273,0.06273161851943311,0.09159999194231938
0.0572586,0.1785643691857204,0.06739250823049754,0.006102181753163067,0.02661794466059273,0.32081850650245985,0.030426263791349755,0.06322856185360555,0.09158430569762599
0.0577241,0.17924824711113785,0.06735401536386684,0.006336682895042206,0.02682206754330403,0.32260221074228246,0.030442155504588474,0.06372330036989941,0.0915603995194175
0.0581897,0.17991554179934652,0.06730618727154768,0.006577457799297552,0.027025791410638256,0.32435853277383225,0.030455717368029572,0.0642157545730123,0.09152832682548288
0.0586552,0.18056620453908315,0.06724910288469271,0.006824561615682016,0.02722909303233524,0.32608709642448785,0.030466958780259755,0.06470584494609284,0.09148814211611012
0.0591207,0.1812001896667448,0.06718284286527694,0.007078048693822126,0.027431949077149215,0.3277875302212829,0.030475889591889644,0.06519349197060981,0.09143990095361242
0.0595862,0.18181745458484755,0.06710748957753973,0.007337972559137177,0.027634336117475622,0.32945946753133054,0.030482520101313217,0.06567861614641023,0.09138365994185862
0.0600517,0.18241795977984754,0.06702312705903635,0.007604385888745999,0.027836230634112162,0.3311025467017412,0.030486861050387993,0.06616113801196027,0.09131947670581392
0.0605172,0.1830016688392976,0.06692984099131173,0.007877340487368803,0.02803760902115275,0.3327164111989573,0.030488923620038366,0.06664097816476217,0.09124740987109757
0.0609828,0.18356854846831358,0.06682771867020933,0.00815688726323165,0.02823844759101283,0.33430070974742837,0.03048871942578454,0.06711805728194004,0.0911675190435644
0.0614483,0.18411856850532451,0.06671684897582832,0.008443076203980989,0.028438722579584314,0.3358550964675485,0.030486260513199623,0.06759229614098697,0.09107986478891604
0.0619138,0.18465170193708141,0.06659732234214169,0.008735956352615872,0.02863841015151824,0.3373792310127747,0.030481559353297678,0.06806361564066493,0.09098450861234761
0.0623793,0.18516792491289974,0.06646923072628774,0.009035575783445306,0.028837486405632905,0.3388727787058442,0.03047462883785572,0.06853193682204908,0.09088151293823453
0.0628448,0.1856672167581118,0.06633266757754697,0.009341981578078324,0.029035927380445237,0.34033541067400597,0.03046548227467278,0.06899718088970731,0.09077094108986399
0.0633103,0.18614955998670624,0.06618772780601569,0.009655219801454297,0.029233709059822848,0.34176680398317927,0.030454133382769245,0.06945926923300587,0.09065285726921461
0.0637759,0.18661494031313217,0.06603450775098767,0.009975335477921076,0.02943080737875407,0.34316664177094974,0.03044059628752947,0.06991812344753161,0.09052732653678779
0.0642414,0.18706334666324617,0.06587310514905431,0.010302372567368564,0.02962719822923314,0.34453461337831165,0.030424885515790825,0.07037366535662153,0.090394414791493
0.0647069,0.1874947711843815,0.06570361910193388,0.010636373941425328,0.029822857466257627,0.3458704144800633,0.030407015990882094,0.07082581703299023,0.09025418875058981
0.0651724,0.18790920925451887,0.0655261500440403,0.010977381359725907,0.030017760913935026,0.34717374721376343,0.030387003027613994,0.0712745008204462,0.0901067159296877
0.0656379,0.18830665949053887,0.06534079970980183,0.011325435446256445,0.030211884371695454,0.3484443203071574,0.030364862327224518,0.07171963935568774,0.08995206462280553
0.0661034,0.18868712375553576,0.06514767110074039,0.011680575665786213,0.03040520362060715,0.3496818492039832,0.030340609972281277,0.07216115559016957,0.08979030388249071
0.066569,0.18905060716517377,0.06494686845232252,0.012042840300392578,0.030597694429791412,0.3508860561880697,0.030314262421543118,0.07259897281203088,0.08962150349999926
0.0670345,0.18939711809306656,0.06473849720059334,0.012412266426086869,0.03078933256293338,0.3520566705056386,0.030285836504782875,0.07303301466807556,0.0894457339855362
0.0675,0.18972666817515985,0.0645226639486057,0.012788889889548549,0.030980093784884987,0.3531934284857235,0.03025534941757301,0.07346320518579552,0.08926306654855683
0.0679655,0.1900392723130985,0.06429947643265696,0.013172745284975002,0.03116995386835604,0.3542960736586162,0.03022281871603576,0.0738894687954284,0.08907357307812948
0.068431,0.19033494867655742,0.06406904348834695,0.013563865931054166,0.03135888860068938,0.3553643568722518,0.03018826231155929,0.07431173035204106,0.0888773261233605
0.0688966,0.1906137187045159,0.06383147501647113,0.013962283848067148,0.031546873790715815,0.3563980364064402,0.030151698465481217,0.07472991515763093,0.08867439887388276
0.0693621,0.19087560710545495,0.06358688194876333,0.01436802973512789,0.031733885275684354,0.357396878084852,0.030113145783740514,0.0751439489832378,0.08846486514040863
0.0698276,0.19112064185645486,0.0633353762135032,0.014781132947566897,0.031919898928263225,0.3583606553846662,0.030072623211498666,0.07555375809105822,0.0882487993353479
0.0702931,0.19134885420117057,0.06307707070100334,0.015201621474466,0.032104890663607076,0.3592891495437886,0.030030150027730792,0.07595926925655518,0.08802627645349173
0.0707586,0.19156027864666078,0.06281207922899144,0.015629521916351037,0.03228883644648571,0.360182149665553,0.029985745839787258,0.07636040979055499,0.08779737205276263
0.0712241,0.1917549529590462,0.06254051650790243,0.01606485946304941,0.03247171229846994,0.36103945282082167,0.029939430577926026,0.07675710756132288,0.08756216223503087
0.0716897,0.19193291815797078,0.06226249810609535,0.01650765787171934,0.032653494305169964,0.36186086414740176,0.0298912244898162,0.07714929101660883,0.08732072362699732
0.0721552,0.19209421850984074,0.06197814041500932,0.016957939445057902,0.03283415862352192,0.362646196946698,0.02984114813501303,0.07753688920565449,0.08707313336114221
0.0726207,0.19223890151981587,0.061687560614272614,0.01741572500969472,0.033013681489118256,0.3633952727775218,0.02978922237940464,0.0779198318011517,0.08681946905673996
0.0730862,0.19236701792252803,0.061390876636778134,0.01788103389477856,0.033192039223577885,0.36410792154697647,0.029735468389630697,0.07829804912114284,0.08655980880093984
0.0735517,0.1924786216715035,0.061088207133738644,0.018353883910763993,0.03336920824195205,0.36478398159833614,0.029679907627473124,0.07867147215085311,0.08629423112991257
0.0740172,0.19257376992726566,0.06077967143973481,0.01883429132840554,0.03354516506016265,0.3654232997958349,0.02962256184421876,0.07904003256444427,0.08602281501006336
0.0744828,0.19265252304409525,0.06046538953776869,0.01932227085796676,0.033719886302469596,0.36602573160628143,0.02956345307499389,0.07940366274667947,0.08574563981931298
0.0749483,0.19271494455542515,0.06014548202433565,0.019817835628651997,0.03389334870896432,0.3665911411774129,0.02950260363307024,0.07976229581448833,0.08546278532844753
0.0754138,0.19276110115784623,0.05982007007452748,0.020320997168268465,0.03406552914308605,0.3671194014129001,0.029440036104142222,0.08011586563842105,0.08517433168253795
0.0758793,0.19279106269370164,0.05948927540717929,0.020831765383126578,0.03423640459915781,0.36761039404391754,0.029375773340575152,0.08046430686398032,0.08488035938243076
0.0763448,0.1928049021322471,0.05915322025007328,0.02135014853818636,0.03440595220993881,0.36806400969719266,0.029309838455624532,0.08080755493281917,0.08458094926631164
0.0768103,0.19280269554935803,0.05881202730521204,0.021876153237457865,0.03457414925418943,0.36848014795945283,0.029242254817626486,0.08114554610379232,0.08427618249134397
0.0772759,0.192784522105769,0.058465819714174604,0.022409784404663437,0.03474097316424524,0.36885871743819426,0.029173046044159698,0.0814782174738482,0.08396614051538491
0.0777414,0.19275046402383456,0.0581147210235683,0.02295104526416975,0.03490640153359607,0.36919963581870363,0.029102235996179154,0.08180550699874893,0.08365090507878185
0.0782069,0.1927006065628082,0.05775885515058961,0.023499937322197406,0.03507041212446626,0.3695028299172728,0.02902984877212184,0.08212735351360459,0.08333055818625215
0.0786724,0.19263503799264028,0.05739834634870691,0.024056460348315982,0.03523298287539197,0.36976823573055445,0.028955908701984407,0.08244369675320902,0.08300518208884956
0.0791379,0.192553849566303,0.05703331917347804,0.024620612357232407,0.03539409190879146,0.369995798481014,0.0288804403413728,0.08275447737216449,0.0826748592660208
0.0796034,0.19245713549065568,0.05666389844851484,0.025192389590880677,0.03555371753852406,0.37018547265844176,0.02880346846552345,0.0830596369647827,0.08233967240775592
0.080069,0.19234499289586857,0.056290209231606894,0.02577178650082111,0.035711838277433405,0.3703372220574946,0.02872501806329559,0.08335911808475016,0.08199970439683622
0.0805345,0.1922175218034279,0.055912376781016196,0.026358795730957528,0.035868432844870374,0.37045101981124057,0.02864511433113397,0.08365286426454636,0.08165503829118421
0.081,0.19207482509275034,0.05553052652195423,0.02695340810058091,0.03602348017419105,0.37052684842068306,0.028563782667001193,0.08394082003460425,0.0813057573063197
0.0814655,0.19191700846643625,0.0551447840132526,0.027555612587748277,0.03617695942022498,0.3705646997802433,0.02848104866427859,0.08422293094220354,0.08095194479792724
0.081931,0.1917441804141961,0.0547552749142381,0.02816539631300571,0.03632884996670895,0.37056457519917996,0.02839693810563471,0.08449914357008963,0.08059368424453948
0.0823966,0.19155645217548506,0.054362124951822625,0.028782744523464406,0.03647913143368129,0.37052648541892363,0.028311476956860426,0.08476940555481224,0.08023105923034134
0.0828621,0.1913539377008832,0.05396545988781802,0.029407640577238697,0.0366277836848319,0.37045045062630233,0.028224691360669678,0.08503366560477969,0.07986415342809951
0.0833276,0.1911367536122582,0.05356540548648543,0.030040065928254894,0.03677478683480284,0.3703365004626316,0.028136607630464956,0.08529187351802531,0.07949305058222238
0.0837931,0.1909050191617484,0.05316208748232843,0.030680000111439835,0.0369201212564345,0.37018467402864264,0.0280472522440668,0.0855439801996834,0.07911783449195503
0.0842586,0.190658856189603,0.052755631548138754,0.03132742072829802,0.03706376758795176,0.3699950198852204,0.027956651837406667,0.08578993767917188,0.07873858899471466
0.0847241,0.19039838908091555,0.05234616326330281,0.03198230343288654,0.037205706740084825,0.36976759604992715,0.027864833198182604,0.08602969912707871,0.07835539794957179
0.0851897,0.1901237447212855,0.05193380808237742,0.03264462191819727,0.03734591990311886,0.3695024699892889,0.027771823259477423,0.086263218871748,0.07796834522088292
0.0856552,0.1898350524514419,0.05151869130394236,0.03331434790295597,0.03748438855386645,0.3691997186068274,0.027677649093339224,0.08649045241556189,0.07757751466208015
0.0861207,0.1895324440208636,0.051100938039737545,0.033991451118848486,0.03762109446255655,0.36885942822682555,0.02758233790432423,0.08671135645091312,0.07718299009962348
0.0865862,0.18921605354042997,0.05068067318409235,0.034675899298183814,0.03775601969963327,0.36848169457382135,0.027485917023002255,0.08692588887586307,0.07678485531712087
0.0870517,0.18888601743413538,0.05025802138365436,0.03536765816200424,0.037889146642457724,0.3680666227478327,0.027388413899425514,0.0871340088094791,0.07638319403962149
0.0875172,0.18854247438990243,0.04983310700742499,0.03606669140865239,0.038020457981905634,0.36761432719532156,0.027289856096561836,0.08733567660684473,0.07597808991808687
0.0879828,0.18818556530952815,0.049406054117109195,0.03677296070280473,0.03814993672885343,0.3671249316759148,0.027190271283693904,0.08753085387373542,0.0755696265140444
0.0884483,0.18781543325779845,0.048976986437786224,0.03748642566498111,0.038277566220545144,0.3665985692249038,0.027089687229786243,0.08771950348095237,0.0751578872844273
0.0889138,0.1874322234108068,0.048546027328908704,0.03820704386153946,0.03840333012683212,0.3660353821115539,0.026988131796821815,0.08790158957830607,0.07474295556660437
0.0893793,0.18703608300351326,0.048113299755636746,0.038934770795164844,0.03852721245627755,0.3654355217932607,0.02688563293310996,0.08807707760824159,0.07432491456360275
0.0898448,0.18662716127658108,0.04767892626051375,0.03966955989586144,0.0386491975621176,0.364799148865597,0.026782218666567485,0.0882459343190967,0.07390384732952544
0.0903103,0.18620560942252776,0.047243028935490684,0.04041136251245621,0.038769270148070946,0.3641264330082988,0.02667791709797447,0.08840812777798418,0.07347983675516612
0.0907759,0.18577158053122955,0.046805729394304586,0.04116012790462277,0.03888741527398892,0.36341755292724714,0.026572756394206358,0.08856362738328877,0.07305296555382251
0.0912414,0.18532522953481695,0.046367148745217336,0.04191580323543387,0.03900361836133913,0.3626726962925072,0.026466764781443924,0.08871240387676978,0.07262331624730946
0.0917069,0.184866713152001,0.04592740756412003,0.042678333564450686,0.03911786519851606,0.36189205967248844,0.026359970538362608,0.08885442935525982,0.07219097115217221
0.0921724,0.18439618983187042,0.04548662586800811,0.04344766184135734,0.03923014194597323,0.36107584846429636,0.026252401989302582,0.08898967728195108,0.07175601236610092
0.0926379,0.18391381969719925,0.04504492308883211,0.04422372890014877,0.03934043514117199,0.36022427682034897,0.02614408749742097,0.08911812249726146,0.07131852175454664
0.0931034,0.18341976448730715,0.04460241804772853,0.045006473453880085,0.03944873170334247,0.35933756757133184,0.02603505545782749,0.08923974122927351,0.07087858093753945
0.093569,0.1829141875005131,0.04415922892963496,0.04579583208998565,0.039555018938052626,0.35841595214556865,0.02592533429070517,0.08935451110374064,0.07043627127670907
0.0940345,0.1823972535362242,0.04371547325829357,0.04659173926617628,0.03965928454158125,0.35745967048488253,0.025814952434417907,0.08946241115365577,0.06999167386250849
0.0945,0.18186912883670278,0.04327126787164665,0.047394127306923155,0.039761516605091245,0.35646897095702346,0.02570393833860695,0.0895634218283791,0.0695448695016405
0.0949655,0.18132998102855336,0.04282672889762789,0.04820292640053741,0.03986170361860017,0.35544411026473566,0.02559232045727877,0.08965752500232158,0.06909593870468704
0.095431,0.18077997906397264,0.042381971730352866,0.049018064596855045,0.0399598344747457,0.3543853533515372,0.02548012724188673,0.08974470398318135,0.06864496167394075
0.0958966,0.18021929316180432,0.04193711100671208,0.04983946780553694,0.040055898472345114,0.3532929733042796,0.025367387134409173,0.08982494351973085,0.06819201829143835
0.0963621,0.17964809474844126,0.041492260583369585,0.050667059794994286,0.04014988531974918,0.3521672512525552,0.025254128560426484,0.08989822980915128,0.06773718810719473
0.0968276,0.1790665563986165,0.0410475335141704,0.05150076219194992,0.04024178513799196,0.35100847626501674,0.02514037992220018,0.08996455050391143,0.0672805503276375
0.0972931,0.17847485177612482,0.04060304202795959,0.05234049448164637,0.04033158846373902,0.34981694524267165,0.025026169591757172,0.09002389471818749,0.0668221838042415
0.0977586,0.17787315557451566,0.04015889750681577,0.05318617400871119,0.040419286252037195,0.34859296280921503,0.024911525903982518,0.09007625303382102,0.06636216702236324
0.0982241,0.17726164345779663,0.03971521046470153,0.05403771597869004,0.04050486987886924,0.34733684119846003,0.024796477149724352,0.09012161750581162,0.06590057809027508
0.0986897,0.17664049200118706,0.039272090526533354,0.05489503346025783,0.04058833114351676,0.34604890013892975,0.024681051568914526,0.09015998166734099,0.06543749472839973
0.0991552,0.17600987863195894,0.03882964640767309,0.055758037388117854,0.04066966227073476,0.3447294667356704,0.024565277343708617,0.09019134053432562,0.06497299425874536
0.0996207,0.1753699815704022,0.038387985893843,0.0566266365665988,0.04074885591274104,0.34337887534934936,0.02444918259164885,0.09021569060949411,0.06450715359454251
0.1000862,0.17472097977094975,0.0379472158214663,0.057500737673958476,0.04082590515102339,0.34199746747270143,0.02433279535885341,0.09023302988598611,0.06404004923008394
0.1005517,0.17406305286349572,0.03750744205843492,0.05838024526740346,0.04090080349796754,0.3405855916043886,0.024216143613235673,0.0902433578504696,0.06357175723076908
0.1010172,0.17339638109493954,0.0370687694853061,0.05926506178883274,0.04097354489830828,0.33914360312033937,0.024099255237756807,0.09024667548577425,0.06310235322335392
0.1014828,0.17272114527098756,0.03663130197692932,0.06015508757131363,0.041044123730406175,0.3376718641426351,0.023982158023714884,0.09024298527303896,0.06263191238640756
0.1019483,0.17203752669824174,0.036195142384504816,0.06105022084629728,0.04111253480735201,0.33617074340601505,0.023864879664073933,0.09023229119337232,0.06216050944097568
0.1024138,0.17134570712660396,0.03576039251807484,0.061950357751581045,0.041178773377901136,0.33464061612207086,0.023747447746835966,0.09021459872902478,0.0616882186414513
0.1028793,0.17064586869202275,0.03532715312944856,0.06285539234002477,0.0412428351272398,0.3330818638412053,0.023629889748459112,0.0901899148640713,0.06121511376665212
0.1033448,0.16993819385960876,0.03489552389556142,0.06376521658902737,0.04130471617758547,0.33149487431243124,0.023512233027324837,0.09015824808460396,0.060741268111104
0.1038103,0.1692228653671427,0.03446560340226938,0.0646797204107699,0.04136441308862304,0.3298800413410903,0.023394504817257206,0.09011960837843269,0.060266754476529086
0.1042759,0.16850006616899788,0.03403748912857834,0.06559879166323093,0.041421922857778536,0.3282377646445728,0.023276732221097,0.09007400723429307,0.05979164516353694
0.1047414,0.1677699793804995,0.03361127743130864,0.06652231616197961,0.041477242920331565,0.32656844970612275,0.023158942204333385,0.09002145764055969,0.05931601196351693
0.1052069,0.1670327882227406,0.03318706353019429,0.06745017769275122,0.0415303711493675,0.32487250762681325,0.02304116158879578,0.08996197408346324,0.05883992615072966
0.1056724,0.16628867596787278,0.03276494149341642,0.06838225802481006,0.041581305855569954,0.3231503549757828,0.022923417046408233,0.08989557254480926,0.05836345847459542
0.1061379,0.16553782588489008,0.03234500422357001,0.06931843692510342,0.041630045786854024,0.32140241363882066,0.02280573509300871,0.08982227049919679,0.05788667915217722
0.1066034,0.1647804211859214,0.03192734344406299,0.07025859217321051,0.041676590127840245,0.3196291106653944,0.022688142082235425,0.08974208691073461,0.05740965786085616
0.107069,0.16401664497304727,0.031512049685946335,0.0712025995770895,0.041720938499169045,0.3178308781142126,0.02257066419948233,0.08965504222925251,0.05693246373119697
0.1075345,0.16324668018565505,0.031099212275173777,0.07215033298962598,0.041763090956655376,0.3160081528974161,0.022453327455925574,0.08956115838600505,0.05645516534000145
0.108,0.16247070954834522,0.030688919320289443,0.0731016643259852,0.04180304799028337,0.31416137662349086,0.022336157682622818,0.08946045878886476,0.05597783070354764
0.1084655,0.16168891551940087,0.030281257700541634,0.07405646358177082,0.04184081052304099,0.31229099543899846,0.022219180524687042,0.089352968317002,0.055500527271012526
0.108931,0.16090148023983214,0.029876313054420834,0.07501459885199205,0.041876379909594974,0.31039745986921446,0.022102421435536437,0.08923871331504853,0.05502332191807618
0.1093966,0.16010858548300688,0.02947416976861985,0.07597593635084136,0.04190975793480708,0.3084812246577698,0.021985905671221828,0.08911772158674251,0.05454628094070484
0.1098621,0.15931041260487994,0.02907491096741385,0.07694034043228423,0.04194094681209298,0.3065427486053862,0.021869658284832894,0.08899002238805376,0.054069470049110564
0.1103276,0.15850714249483383,0.028678618502458057,0.07790767361146252,0.04196994918162545,0.3045824944077956,0.02175370412098434,0.08885564641978909,0.053592954361884756
0.1107931,0.15769895552714402,0.028285372943000663,0.07887779658691241,0.04199676810838383,0.30260092849293135,0.021638067810383015,0.08871462581967958,0.05311679840030299
0.1112586,0.15688603151308295,0.027895253566508404,0.07985056826359771,0.042021407080051934,0.30059852085747957,0.02152277376447691,0.0885669941539526,0.05264106608279795
0.1117241,0.15606854965367653,0.02750833834970228,0.08082584577675865,0.0420438700047664,0.2985757449028737,0.021407846170187116,0.08841278640839363,0.05216582071959717
0.1121897,0.1552466884931275,0.027124703960000652,0.08180348451657629,0.04206416120871772,0.2965330772708149,0.021293308984723675,0.08825203897890387,0.05169112500752209
0.1126552,0.1544206258729192,0.026744425747367007,0.0827833381536521,0.04208228543360571,0.2944709976783992,0.02117918593048655,0.08808478966155954,0.051217041024944454
0.1131207,0.15359053888661303,0.026367577736559532,0.08376525866530173,0.042098247833951254,0.29238998875292893,0.021065500490052937,0.0879110776421796,0.05074363022689573
0.1135862,0.15275660383535242,0.02599423261977951,0.08474909636266152,0.042112053974265866,0.2902905358664867,0.02095227590125234,0.0877309434854078,0.05027095344032519
0.1140517,0.15191899618408494,0.025624461749715624,0.0857346999186062,0.042123709826080644,0.2881731269703459,0.020839535152330814,0.08754442912331488,0.04979907085950195
0.1145172,0.15107789051851345,0.025258335132981008,0.08672191639647535,0.042133221764835777,0.28603825242929376,0.020727300977205845,0.08735157784352618,0.04932804204155643
0.1149828,0.15023346050278613,0.024895921423940044,0.08771059127960631,0.0421405965666318,0.28388640485593936,0.02061559585081323,0.08715243427687995,0.048857925902156665
0.1154483,0.1493858788379335,0.024537287918921676,0.0887005685016704,0.04214584140484368,0.28171807894508066,0.020504441984547293,0.08694704438462118,0.04838878071131482
0.1159138,0.14853531722105998,0.024182500550816166,0.08969169047780885,0.042148963846598615,0.27953377130820295,0.020393861321795635,0.0867354554451356,0.04792066408931912
0.1163793,0.14768194630529602,0.023831623884052133,0.09068379813656545,0.042149971849118464,0.27733398030818024,0.02028387553356955,0.08651771604022795,0.04745363300278629
0.1168448,0.14682593566051627,0.023484721109950743,0.09167673095261125,0.04214887375592799,0.27511920589425143,0.02017450601423106,0.08629387604094808,0.04698774376082905
0.1173103,0.14596745373482825,0.023141854042453645,0.09267032698025707,0.04214567829292978,0.2728899494373424,0.020065773877317495,0.08606398659296773,0.046523052011333936
0.1177759,0.14510666781683476,0.0228030831142213,0.09366442288774929,0.04214039456434697,0.2706467135658042,0.019957699951464413,0.0858281001015105,0.046059612737344345
0.1182414,0.14424374399867373,0.02246846737309825,0.09465885399234365,0.04213303204853468,0.26839000200163865,0.01985030477642757,0.08558627021583705,0.04559748025354509
0.1187069,0.14337884713983756,0.022138064478941528,0.09565345429615173,0.04212360059366117,0.2661203193972799,0.01974360859920464,0.08533855181328728,0.04513670820284574
0.1191724,0.14251214083177421,0.021811930700808533,0.09664805652275406,0.04211211041326025,0.26383817117300207,0.01963763137025721,0.08508500098288121,0.044677349553061366
0.1196379,0.1416437873632717,0.021490120914500362,0.09764249215457367,0.04209857208165639,0.2615440633550209,0.01953239273983372,0.08482567500848023,0.044219456593690094
0.1201034,0.14077394768662765,0.02117268860045661,0.09863659147100332,0.04208299652926499,0.2592385024143585,0.01942791205439397,0.08456063235151079,0.043763080932787295
0.120569,0.13990278138460394,0.020859685841997478,0.09963018358727894,0.04206539503777011,0.2569219951065373,0.019324208353135988,0.08428993263325273,0.04330827349393667
0.1210345,0.13903044663816824,0.020551163323908918,0.10062309649409175,0.042045779235182185,0.25459504831217095,0.019221300364626052,0.08401363661669506,0.042855084513318424
0.1215,0.13815710019502214,0.020247170331366415,0.10161515709793026,0.0420241610907781,0.25225816887851754,0.01911920650353261,0.08373180618796225,0.04240356353687487
0.1219655,0.13728289733891574,0.019947754749192862,0.10260619126214365,0.042000552909925826,0.24991186346206107,0.019017944867464793,0.08344450433731478,0.04195375941757391
0.122431,0.136407991859749,0.019652963061445802,0.10359602384871655,0.041974967328795645,0.24755663837218475,0.01891753323391604,0.0831517951397284,0.041505720312770555
0.1228966,0.13553253602445892,0.019362840351329312,0.10458447876074474,0.04194741730895991,0.24519299941599978,0.018817989057313335,0.08285374373505743,0.041059493681666545
0.1233621,0.13465668054869198,0.019077430301425502,0.10557137898560086,0.041917916131883566,0.24282145174439118,0.01871932946617239,0.08255041630778766,0.04061512628286814
0.1238276,0.1337805745692611,0.018796775194240695,0.10655654663877794,0.04188647739330801,0.24044249969934173,0.018621571260358995,0.08224188006638568,0.040172664172041794
0.1242931,0.13290436561738614,0.018520915913061167,0.10753980300839815,0.041853114997531124,0.23805664666259327,0.01852473090845694,0.08192820322225217,0.039732152699667796
0.1247586,0.13202819959271767,0.018249891943113307,0.10852096860037348,0.041817843151586945,0.23566439490570323,0.018428824545242733,0.08160945496828784,0.039293636508891804
0.1252241,0.13115222073814314,0.017983741373022905,0.1094998631842043,0.04178067635932848,0.233266245441553,0.018333867969267573,0.08128570545708143,0.038857159533474316
0.1256897,0.1302765716153761,0.017722500896568356,0.1104763058394015,0.04174162941541755,0.23086269787736222,0.018239876640547163,0.08095702577873,0.038422764995838014
0.1261552,0.12940139308132834,0.017466205814722344,0.11145011500251797,0.04170071739922555,0.22845425026926222,0.01814686567836006,0.08062348793830265,0.037990495405212724
0.1266207,0.12852682426526682,0.01721489003797662,0.11242110851477437,0.041657955668649035,0.22604139897847936,0.018054849859155363,0.08028516483295932,0.03756039255587769
0.1270862,0.12765300254675666,0.016968586088944394,0.11338910367026407,0.04161335985384393,0.22362463852917763,0.017963843614570433,0.07994213022873668,0.037132497525500636
0.1275517,0.1267800635343935,0.016727325105234826,0.11435391726472162,0.04156694585088197,0.22120446146800768,0.017873861029559426,0.0795944587370136,0.03670685067357311
0.1280172,0.1259081410453283,0.01649113684259395,0.11531536564483838,0.04151872981533284,0.21878135822540704,0.017784915840633235,0.07924222579066918,0.03628349163994184
0.1284828,0.1250373670855881,0.016260049678306455,0.11627326475810852,0.041468728155775125,0.21635581697869571,0.01769702143421155,0.0788855076199462,0.03586245934343549
0.1289483,0.12416787183119815,0.016034090614852586,0.11722743020318757,0.041416957527239014,0.21392832351700902,0.01761019084508759,0.07852438122803247,0.03544379198058679
0.1294138,0.12329978361010986,0.015813285283814312,0.1181776772807457,0.04136343482458349,0.21149936110810758,0.017524436755006124,0.07815892436637348,0.035027527024449445
0.1298793,0.1224332288849406,0.015597657950025016,0.11912382104479755,0.04130817717581053,0.2090694103671035,0.017439771491355158,0.07778921550972812,0.03461370122350957
0.1303448,0.12156833223653105,0.015387231515956858,0.12006567635449045,0.041251201935318754,0.20663894912714048,0.017356207025971727,0.07741533383097973,0.0342023506006911
0.1308103,0.12070521634832641,0.015182027526339945,0.12100305792633284,0.041192526677098794,0.20420845231206403,0.01727375497406198,0.07703735917571417,0.03379351045245488
0.1312759,0.11984400199158697,0.014982066173007473,0.12193578038684516,0.04113216918787229,0.20177839181111648,0.017192426593235666,0.0766553720365761,0.03338721534799096
0.1317414,0.11898480801143316,0.01478736629996113,0.12286365832561537,0.041070147460176586,0.199349236355691,0.01711223278265507,0.07626945352741493,0.0329834991285042
0.1322069,0.11812775131373028,0.014597945408651001,0.1237865063487419,0.04100647968539674,0.196921451398176,0.01703318408229822,0.07587968535723136,0.032582394906593364
0.1326724,0.11727294685281645,0.01441381966346444,0.12470413913264648,0.04094118424674663,0.19449549899292087,0.016955290672336188,0.0754861498039358,0.03218393506572481
0.1331379,0.11642050762007691,0.014235003897418297,0.1256163714782395,0.040874279712200784,0.19207183767935176,0.0168785623726242,0.07508892968793042,0.03178815125980188
0.1336034,0.11557054463336688,0.014061511618049095,0.1265230183654204,0.04080578482737884,0.1896509223672643,0.01680300864230613,0.07468810834552693,0.03139507441283167
0.134069,0.11472316692728436,0.013893355013495711,0.1274238950078946,0.04073571850838495,0.18723320422431872,0.01672863857953212,0.07428376960221324,0.03100473471869068
0.1345345,0.11387848154429303,0.013730544958769278,0.12831881690828845,0.040664099834605,0.18481913056576146,0.016655460921288914,0.07387599774578296,0.030617161640990896
0.135,0.11303659352669503,0.01357309102220506,0.12920759991354203,0.04059094804146499,0.18240914474639505,0.016583484043342582,0.07346487749934266,0.030232383913047656
0.1354655,0.11219760590945188,0.01342100147209107,0.13009006027056041,0.04051628251315485,0.18000368605481612,0.016512715960293356,0.0730504939942122,0.029850429537950567
0.135931,0.11136161971385139,0.01327428328346835,0.13096601468210187,0.04044012277532213,0.17760318960994176,0.016443164325742266,0.07263293274273469,0.029471325788738467
0.1363966,0.11052873394201716,0.013132942145097824,0.1318352803628827,0.04036248848774073,0.1752080862598406,0.016374836432569304,0.07221227961101268,0.029095099208679285
0.1368621,0.10969904557225649,0.012996982466588758,0.13269767509587777,0.04028339943695976,0.17281880248288528,0.01630773921332287,0.07178862079158799,0.0287217756116555
0.1373276,0.10887264955524148,0.01286640738568401,0.13355301728879537,0.040202875528937615,0.17043576029124005,0.01624187924072017,0.07136204277608253,0.028351380082655784
0.1377931,0.10804963881101758,0.01274121877569732,0.13440112603070667,0.040120936781666665,0.16805937713669716,0.01617726272825822,0.07093263232781803,0.02798393697837321
0.1382586,0.10723010422683255,0.012621417253098071,0.13524182114880975,0.040037603317793706,0.16569006581887302,0.01611389553093508,0.07050047645443214,0.027619469927910412
0.1387241,0.10641413465577879,0.012507002185239117,0.1360749232653079,0.0399528953572418,0.16332823439577446,0.01605178314608075,0.07006566238050858,0.02725800183359189
0.1391897,0.10560181691624046,0.012397971698223244,0.13690025385438195,0.03986683320983941,0.16097428609674452,0.01599093071429714,0.06962827752023883,0.026899554871883686
0.1396552,0.10479323579213674,0.012294322684904014,0.13771763529923656,0.03977943726796306,0.15862861923779467,0.015931343020506444,0.06918840945013206,0.026544150494420552
0.1401207,0.10398847403395141,0.012196050813016581,0.1385268909491989,0.0396907279992002,0.15629162713933004,0.015873024495107274,0.06874614588179047,0.026191809429140935
0.1405862,0.10318761236053894,0.01210315053343411,0.139327845176848,0.039600725939038496,0.15396369804627277,0.015815979215237773,0.06830157463476579,0.02584255168153011
0.1410517,0.10239072946169618,0.012015615088545381,0.14012032343515132,0.03950945168358851,0.1516452150505878,0.015760210906145006,0.06785478360951352,0.025496396535971917
0.1415172,0.10159790200148813,0.011933436520749203,0.14090415231458475,0.03941692588234569,0.14933655601621357,0.015705722942659824,0.06740586076045972,0.025153362557209645
0.1419828,0.10080920462231613,0.011856605681061233,0.1416791596002099,0.03932316923099798,0.1470380935063999,0.015652518350776353,0.06695489406919533,0.024813467591916327
0.1424483,0.10002470994971581,0.01178511223782905,0.14244517432868314,0.03922820246428484,0.1447501947134536,0.015600599809335165,0.06650197151781226,0.024476728770374885
0.1429138,0.09924448859787204,0.011718944685551446,0.14320202684516847,0.039132046348913076,0.1424732213908911,0.01554996965180912,0.06604718106239484,0.02414316250826834
0.1433793,0.09846860917583704,0.011658090353798138,0.14394954886012606,0.03903472167653498,0.14020752978799714,0.015500629868190894,0.06559061060667987,0.02381278450858057
0.1438448,0.09769713829443785,0.011602535416226432,0.14468757350594744,0.03893624925679378,0.13795347058678656,0.015452582106981015,0.06513234797589791,0.023485609763608164
0.1443103,0.09693014057385875,0.01155226489969167,0.1454159353934077,0.038836649910441154,0.13571138884136696,0.015405827677275346,0.06467248089080826,0.02316165255708404
0.1447759,0.09616767865188348,0.01150726269344859,0.14613447066790447,0.038735944462531625,0.13348162391969792,0.015360367550950872,0.06421109694193952,0.022840926466413558
0.1452414,0.0954098131927821,0.011467511558441133,0.1468430170654527,0.038634153735698264,0.13126450944774304,0.015316202364948869,0.06374828356404753,0.022523444365023737
0.1457069,0.09465660289682644,0.011432993136678561,0.14754141396840342,0.03853129854351401,0.12906037325601014,0.015273332423654485,0.06328412801080188,0.02220921842482625
0.1461724,0.09390810451041748,0.011403687960696147,0.1482295024608552,0.0384273996839428,0.12686953732847467,0.015231757701372002,0.06281871732971173,0.021898260118794668
0.1466379,0.09316437283680806,0.011379575463099072,0.14890712538372622,0.038322477932884354,0.12469231775388072,0.015191477844895086,0.06235213833730148,0.021590580223656643
0.1471034,0.09242546074740338,0.01136063398618856,0.1495741273894561,0.038216554037816576,0.12252902467941276,0.01515249217617146,0.06188447759454607,0.021286188822701644
0.147569,0.09169141919362185,0.011346840791669588,0.15023035499630616,0.038109648711539525,0.12037996226673119,0.015114799695061425,0.0614158213825755,0.020985095308705046
0.1480345,0.09096229721929867,0.01133817207043986,0.15087565664222832,0.03800178262602496,0.11824542865036362,0.01507839908218976,0.06094625567865772,0.02068730838696936
0.1485,0.09023814197361399,0.011334602952459963,0.1515098827382729,0.0378929764063757,0.11612571589844226,0.015043288701890464,0.060475866132468525,0.020392836078483426
0.1489655,0.08951899872452784,0.011336107516704861,0.15213288572150546,0.03778325062489899,0.11402110997577752,0.015009466605243832,0.060004738042657095,0.02010168572320038
0.149431,0.08880491087270383,0.011342658801197007,0.15274452010740414,0.03767262579529838,0.11193189070925678,0.014976930533205297,0.059532956333715054,0.01981386398343494
0.1498966,0.08809591996590371,0.011354228813121476,0.1533446425417083,0.03756112236698819,0.10985833175555597,0.014945677919825373,0.05906060553315682,0.01952937684738048
0.1503621,0.08739206571383518,0.011370788539023551,0.15393311185168976,0.03744876071953481,0.10780070057115178,0.014915705895559938,0.05858776974901863,0.01924822963274623
0.1508276,0.08669338600343558,0.011392307955089172,0.15450978909681887,0.0373355611572285,0.105759258384621,0.01488701129066996,0.05811453264768333,0.01897042699051472
0.1512931,0.08599991691457483,0.011418756037508646,0.15507453761879697,0.03722154390378965,0.10373426017121291,0.014859590638709657,0.057640977432037645,0.018695972908819528
0.1517586,0.08531169273616077,0.011450100772923985,0.15562722309092838,0.037106729097213055,0.10172595462968013,0.014833440180101992,0.05716718681996867,0.018424870716943216
0.1522241,0.0846287459826313,0.011486309168960079,0.15616771356680512,0.03699113678475364,0.0997345841613525,0.0148085558658003,0.056693243023205955,0.01815712308943537
0.1526897,0.08395110741081785,0.011527347264839886,0.1566958795282783,0.03687478691805701,0.09776038485143818,0.014784933361034787,0.0562192277265154,0.017892732050350513
0.1531552,0.08327880603716557,0.011573180142083687,0.15721159393269105,0.03675769934843794,0.09580358645253505,0.014762568049142617,0.05574522206725114,0.01763169897760568
0.1536207,0.08261186915529618,0.011623771935292406,0.15771473225934815,0.03663989382230961,0.09386441237033501,0.014741455035480286,0.05527130661527143,0.017374024607457336
0.1540862,0.0819503223539001,0.011679085843014858,0.1582051725551984,0.036521389976766246,0.09194307965150281,0.014721589151417,0.05479756135322422,0.01711970903909732
0.1545517,0.08129418953494563,0.011739084138698749,0.15868279547970549,0.03640220733532164,0.09003979897370998,0.014702964958407762,0.05432406565720784,0.016868751739367503
0.1550172,0.08064349293219363,0.011803728181725117,0.15914748434888357,0.03628236530380564,0.08815477463780447,0.014685576752144892,0.053850898277812,0.01662115154759273
0.1554828,0.0799982531300066,0.011872978428525912,0.15959912517847302,0.03616188316642052,0.08628820456209543,0.014669418566786822,0.053378137321543714,0.016376906680531565
0.1559483,0.0793584890824422,0.011946794443784292,0.16003760672623135,0.036040780081958955,0.08444028027873206,0.014654484179262899,0.0529058602326428,0.016136014737444374
0.1564138,0.078724218132621,0.012025134911717179,0.16046282053331334,0.0359190750801848,0.08261118693215494,0.014640767113653084,0.052434143775290765,0.01589847270527808
0.1568793,0.07809545603235879,0.012107957647439611,0.1608746609647135,0.0357967870583779,0.08080110327959814,0.014628260645641412,0.05196306401621664,0.015664276963967008
0.1573448,0.07747221696205364,0.012195219608410449,0.16127302524874323,0.03567393477804356,0.07901020169361977,0.01461695780704208,0.05149269630770316,0.015433423291849041
0.1578103,0.07685451355081778,0.012286876905958944,0.1616578135155159,0.0355505368617872,0.07723864816663842,0.014606851390397158,0.05102311527099609,0.015205906871196207
0.1582759,0.07624235689684407,0.01238288481689185,0.1620289288344128,0.035426611790354605,0.07548660231745272,0.014597933953644796,0.0505543947801193,0.01498172229385874
0.1587414,0.07563575658799658,0.012483197795180654,0.16238627725050547,0.03530217789983754,0.0737542173997209,0.01459019782485695,0.050086607946097615,0.014760863567021523
0.1592069,0.07503472072261455,0.012587769483728648,0.1627297678199115,0.03517725337904458,0.07204164031237731,0.014583635107045547,0.049619827101589395,0.014543324119071688
0.1596724,0.07443925593051885,0.012696552726217565,0.16305931264406506,0.03505185626703657,0.07034901161196233,0.014578237683036085,0.04915412378593049,0.014329096805576072
0.1601379,0.07384936739420984,0.012809499579033603,0.16337482690288474,0.03492600445082586,0.06867646552684263,0.014573997220407607,0.048689568730590674,0.014118173915367105
0.1606034,0.07326505887024559,0.012926561323272707,0.16367622888682518,0.03479971566323817,0.0670241299732977,0.014570905176497947,0.0482262318450437,0.013910547176735644
0.161069,0.07268633271078907,0.013047688476825133,0.16396344002780117,0.0346730074809357,0.06539212657344902,0.014568952803473076,0.047764182203051904,0.013706207763729208
0.1615345,0.07211318988531314,0.013172830806539313,0.16423638492897547,0.03454589732259986,0.06378057067500832,0.014568131153459339,0.047303488029365674,0.013505146302554021
0.162,0.07154563000245193,0.013301937340465237,0.1644949913934035,0.03441840244727161,0.06218957137282062,0.014568431083737267,0.04684421668683858,0.013307352878079173
0.1624655,0.07098365133198681,0.013434956380177611,0.16473919045152977,0.034290539952847206,0.060619231532177985,0.014569843261995534,0.046386434663958136,0.0131128170404412
0.162931,0.07042725082695543,0.013571835513179165,0.16496891638753108,0.03416232677472681,0.05906964781387968,0.014572358171643568,0.04593020756279241,0.012921527811747296
0.1633966,0.06987642414587154,0.013712521625384574,0.16518410676450393,0.034033779684613144,0.05754091070101418,0.014575966117181139,0.04547560008735236,0.012733473692875438
0.1638621,0.06933116567504308,0.013856960913685436,0.16538470244849215,0.03390491528945708,0.05603310452743807,0.014580657229623184,0.04502267603236975,0.01254864267036954
0.1643276,0.06879146855097558,0.014005098898596847,0.16557064763135293,0.03377575003054691,0.054546307507926765,0.014586421471977935,0.044571498272490406,0.012367022223427783
0.1647931,0.06825732468284791,0.01415688043698608,0.16574188985245805,0.033646300182737995,0.053080591769971146,0.014593248644776397,0.044122128751882296,0.012188599330982226
0.1652586,0.06772872477504682,0.014312249734883818,0.16589838001922735,0.033516581853819026,0.0516360233871944,0.014601128391651029,0.043674628474257904,0.01201336047886769
0.1657241,0.06720565834974745,0.014471150360378408,0.1660400724264905,0.033386610984011446,0.05021266241436255,0.01461005020496136,0.04322905749331017,0.011841291667077926
0.1661897,0.06668811376952688,0.014633525256593512,0.16616692477467285,0.03325640334559817,0.04881056292396195,0.014620003431464206,0.04278547490356085,0.0116723784171069
0.1666552,0.06617607825999842,0.014799316754749431,0.16627889818680078,0.03312597454267761,0.04742977304431672,0.01463097727802596,0.04234393883162006,0.011506605779373019
0.1671207,0.06566953793245504,0.01496846658730838,0.1663759572243206,0.032995340011038925,0.04607033499921885,0.014642960817374406,0.04190450642785555,0.011343958340724002
0.1675862,0.06516847780651079,0.015140915901203873,0.1664580699017266,0.03286451501815427,0.04473228514904364,0.014655942993887318,0.041467233858469586,0.011184420232019984
0.1680517,0.06467288183273025,0.015316605271154317,0.16652520769999254,0.03273351466328366,0.04341565403332278,0.014669912629415019,0.04103217629798169,0.011027975135792392
0.1685172,0.06418273291523632,0.015495474713060977,0.16657734557880152,0.032602353877688416,0.04212046641474722,0.014684858429133998,0.04059938792211496,0.010874606293976003
0.1689828,0.06369801293428826,0.015677463697490367,0.16661446198756819,0.03247104742494908,0.04084674132457196,0.014700768987428553,0.040168921901083954,0.010724296515711502
0.1694483,0.06321870276882217,0.015862511163241153,0.16663653887524796,0.03233960990138433,0.039594492109394544,0.01471763279379727,0.03974083039328199,0.010577028185215772
0.1699138,0.06274478231894767,0.01605055553099555,0.1666435616989265,0.0322080557365676,0.038363726479278874,0.014735438238781108,0.039315164539365656,0.010432783269717041
0.1703793,0.062276230528394615,0.016241534717055205,0.16663551943118218,0.03207639919393862,0.03715444655719564,0.014754173619909747,0.03889197445673448,0.010291543327451965
0.1708448,0.06181302540690489,0.01643538614716138,0.1666124045662138,0.031944654371507286,0.03596664892975072,0.014773827147662745,0.03847130923440359,0.010153289515721564
0.1713103,0.061355144052564814,0.016632046770399242,0.1665742131247236,0.031812835202647605,0.034800324699172686,0.014794386951441975,0.038053216928267214,0.010018002599002939
0.1717759,0.06090256267407433,0.01683145307318588,0.1665209446575458,0.0316809554569796,0.03365545953653044,0.01481584108555174,0.03763774455675068,0.009885662957113583
0.1722414,0.06045525661294967,0.017033541093341625,0.16645260224800906,0.03154902874133693,0.03253203373615205,0.01483817753518291,0.03722493809684845,0.009756250593425003
0.1727069,0.06001320036565678,0.017238246434244212,0.16636919251302032,0.03141706850081811,0.03143002227121582,0.014861384222397366,0.036814842480545514,0.009629745143122375
0.1731724,0.059576367605673294,0.017445504279065206,0.16627072560285627,0.031285088019918715,0.03034939485048444,0.014885449012109125,0.036407501591619394,0.009506125881506797
0.1736379,0.059144731205477336,0.017655249405088135,0.16615721519964752,0.031153100423742107,0.02929011597615321,0.01491035971805843,0.03600295826281978,0.009385371732336695
0.1741034,0.05871826325846152,0.017867416198107618,0.16602867851454017,0.03102111867928563,0.028252145002782933,0.014936104108775227,0.035601254273422756,0.00926746127620483
0.174569,0.05829693510077116,0.018081938666908666,0.16588513628351947,0.030889155596799264,0.027235436197287983,0.014962669913528409,0.03520243034715638,0.009152372758947301
0.1750345,0.0578807173330655,0.018298750457825298,0.1657266127618825,0.030757223831213487,0.026239938799949687,0.014990044828257332,0.03480652615049457,0.009040084100080876
0.1755,0.057469579842201114,0.018517784869377375,0.165553135717351,0.030625335883632962,0.025265597086425118,0.015018216521482133,0.034413580291315735,0.00893057290126493
0.1759655,0.057063491822836404,0.01873897486698455,0.16536473642182004,0.030493504102892588,0.024312350430721014,0.01504717264018946,0.034023630317922354,0.00882381645478429
0.176431,0.05666242179895573,0.018962253097755986,0.16516144964174437,0.03036174068717246,0.023380133369102468,0.01507690081569034,0.03363671271841794,0.00871979175204918
0.1768966,0.05626633764531178,0.019187551905354542,0.1649433136271692,0.030230057685668225,0.022468875664905814,0.015107388669446928,0.03325286292043739,0.008618475492108493
0.1773621,0.05587520660878414,0.01941480334493394,0.16471037009941603,0.030098467000313135,0.021578502374225064,0.015138623818864987,0.03287211529122662,0.008519844090172625
0.1778276,0.05548899532965162,0.019643939198147567,0.16446266423743675,0.02996698038754821,0.02070893391244117,0.01517059388304903,0.03249450313806795,0.008423873686142063
0.1782931,0.055107669862775835,0.01987489098822739,0.16420024466285196,0.02983560946013658,0.019860086121563175,0.015203286488517112,0.03212005870904701,0.00833054015313802
0.1787586,0.05473119569869318,0.020107589995131576,0.16392316342369018,0.02970436568901796,0.01903187033835034,0.015236689274872345,0.03174881319415782,0.008239819106031413
0.1792241,0.05435953778461208,0.020341967270759275,0.16363147597684555,0.029573260405198993,0.01822419346318421,0.015270789900428256,0.031380796726742224,0.00815168590996657
0.1796897,0.053992660545312286,0.020577953654231075,0.16332524116927144,0.02944230480167497,0.01743695802965939,0.015305576047785246,0.031016038385259997,0.008066115688876113
0.1801552,0.05363052790394286,0.020815479787233512,0.16300452121792716,0.029311509935378316,0.01667006227486193,0.01534103542935536,0.030654566195385882,0.007983083333983555
0.1806207,0.053273103302715244,0.021054476129425993,0.16266938168849376,0.029180886729149282,0.01592340021030409,0.015377155792832784,0.030296407132429575,0.007902563512290144
0.1810862,0.05292034972348743,0.021294872973908384,0.16231989147287407,0.029050445973724047,0.015196861693484262,0.015413924926607462,0.029941587124074562,0.007824530675042652
0.1815517,0.052572229708235475,0.021536600462747312,0.16195612276549065,0.0289201983297358,0.014490332500040993,0.015451330665119275,0.029590131053431452,0.0077489590661787705
0.1820172,0.052228705379408574,0.0217795886025592,0.16157815103839487,0.02879015432972428,0.013803694396469977,0.015489360894150216,0.029242062762401357,0.007675822730746857
0.1824828,0.05188973846016405,0.022023767280147762,0.16118605501519973,0.028660324380149538,0.01313682521337317,0.01552800355605194,0.02889740505534457,0.007605095523296772
0.1829483,0.051555290294478945,0.022269066278193708,0.16077991664384766,0.02853071876340566,0.012489598919209357,0.015567246654905983,0.028556179703049737,0.007536751116238601
0.1834138,0.05122532186713484,0.022515415290994066,0.16035982106822566,0.028401347639830616,0.011861885694515883,0.015607078261613888,0.028218407446998352,0.007470763008166051
0.1838793,0.05089979382357297,0.022762743940248614,0.1599258565986389,0.028272221049708227,0.011253552006571662,0.015647486518914292,0.027884108003919383,0.007407104532141409
0.1843448,0.0505786664896167,0.023010981790890794,0.15947811468115516,0.02814334891525867,0.010664460684472212,0.015688459646324017,0.027553300070628534,0.00734574886393886
0.1848103,0.05026189989105818,0.02326005836696036,0.15901668986583256,0.02801474104261412,0.010094470994587997,0.015729985945000052,0.027226001329146574,0.007286669030243062
0.1852759,0.04994945377310613,0.02350990316751508,0.15854167977384337,0.027886407123776324,0.009543438716377904,0.01577205380251926,0.026902228452090983,0.007229837916799866
0.1857414,0.04964128761969154,0.023760445682578776,0.1580531850635082,0.027758356738553307,0.009011216218530276,0.015814651697572582,0.026581997108335097,0.007175228276515996
0.1862069,0.04933736067262754,0.024011615409123038,0.15755130939525502,0.02763059935647266,0.008497652535404267,0.01585776820457042,0.02626532196892882,0.007122812737504569
0.1866724,0.04903763195061969,0.02426334186707993,0.15703615939551904,0.027503144338669273,0.008002593443744785,0.01590139199815594,0.025952216713275026,0.007072563811073267
0.1871379,0.0487420602681222,0.024515554615383205,0.1565078446196006,0.027376000939745626,0.0075258815396445616,0.015945511857623006,0.025642694035555705,0.007024453899652076
0.1876034,0.048450604254035405,0.024768183268035423,0.15596647751349932,0.027249178309603158,0.007067356315727181,0.015990116671235607,0.02533676565140188,0.0069784553046575186
0.188069,0.04816322237023945,0.025021157510198653,0.1554121733747442,0.027122685495243503,0.006626854238525075,0.0160351954404457,0.025034442304801424,0.0069345402342904545
0.1885345,0.04787987292995877,0.02527440711430633,0.15484505031224008,0.026996531442538746,0.0062042088260267116,0.01608073728400654,0.02473573377523892,0.006892680811264607
0.189,0.04760051411595157,0.02552786195619394,0.1542652292051527,0.0268707249979699,0.005799250725367301,0.01612673144197865,0.02444064888506203,0.00685284908046313
0.1894655,0.04732510399851839,0.025781452031246342,0.15367283366085555,0.026745274910333103,0.005411807790637501,0.016173167279625658,0.0241491955070689,0.006815017016520707
0.189931,0.04705360055332363,0.026035107470559368,0.15306798997196308,0.02662018983241308,0.005041705160784656,0.01622003429119749,0.023861380572311335,0.006779156531328781
0.1903966,0.046785961679023734,0.026288758557113483,0.15245082707247593,0.026495478322623386,0.004688765337581223,0.01626732210359837,0.02357721007810871,0.006745239481461702
0.1908621,0.0465221452146958,0.02654233574195714,0.15182147649306438,0.026371148846613034,0.0043528082636350406,0.016315020479937353,0.02329668909626777,0.006713237675521717
0.1913276,0.04626210895705998,0.02679576966039746,0.15118007231551797,0.026247209778838862,0.004033651400416127,0.01636311932295928,0.023019821781503656,0.006683122881400823
0.1917931,0.04600581067748949,0.02704899114819575,0.15052675112638958,0.026123669404102916,0.0037311098062746896,0.016411608678354127,0.02274661138005774,0.0066548668334576715
0.1922586,0.04575320813880175,0.027301931257765283,0.14986165196986345,0.026000535919053932,0.0034449962144250984,0.016460478737942957,0.022477060238507752,0.006628441239607799
0.1927241,0.045504259111824444,0.02755452127436869,0.14918491629987685,0.025877817433651827,0.0031751211108706733,0.0165097198427388,0.022211169812766017,0.006603817788325567
0.1931897,0.04525892139173037,0.02780669273231197,0.14849668793152615,0.025755521972594064,0.002921292812244309,0.01655932248588097,0.02194894067726155,0.006580968155556307
0.1936552,0.04501715281413525,0.028058377431132164,0.1477971129917881,0.025633657476702564,0.0026833175435402416,0.016609277315441345,0.021690372534301946,0.006559864011537284
0.1941207,0.044778911270952716,0.02830950745177543,0.14708633986958766,0.0255122318042699,0.0024609995157126104,0.016659575137101406,0.02143546422361106,0.0065404770275261205
0.1945862,0.04454415472600144,0.02856001517276201,0.14636451916524373,0.025391252732363426,0.002254141003116892,0.016710206916698816,0.02118421373203858,0.006522778882435469
0.1950517,0.04431284123035936,0.028809833286334435,0.14563180363932424,0.025270727958085933,0.00206254242077074,0.0167611637826425,0.020936618203437816,0.006506741269372803
0.1955172,0.04408492893746031,0.029058894814585016,0.1448883481609419,0.025150665099791567,0.0018860024014113006,0.016812437028195158,0.020692673948708135,0.006492335902084376
0.1959828,0.04386037611792911,0.02930713312555846,0.1441343096555217,0.025031071698255712,0.0017243178723266067,0.016864018113622335,0.020452376455998518,0.006479534521302551
0.1964483,0.04363914117415119,0.029554481949325157,0.14336984705207048,0.02491195521779758,0.0015772841319392375,0.016915898668207103,0.020215720401068882,0.006468308900995858
0.1969138,0.043421182654573405,0.0298008753940205,0.142595121229979,0.024793323047354245,0.0014446949261210226,0.016968070492129568,0.01998269965780564,0.006458630854521335
0.1973793,0.043206459267733005,0.030046247961845244,0.14181029496538555,0.02467518250150504,0.0013263425242181933,0.017020525558210358,0.019753307308887996,0.006450472240678786
0.1978448,0.042994929896012384,0.030290534565021763,0.14101553287712953,0.024557540821445418,0.0012220177947669948,0.017073256013517432,0.019527535656601248,0.006443804969666656
0.1983103,0.04278655360911725,0.03053367054170083,0.14021100137232265,0.024440405175909355,0.0011315102808804058,0.017126254180835482,0.019305376233793196,0.0064386010089392195
0.1987759,0.042581289677276674,0.030775591671813193,0.13939686859156372,0.024323782662039602,0.00105460827528721,0.017179512559997327,0.0190868198149697,0.006434832388964805
0.1992414,0.042379097584163763,0.031016234192860138,0.13857330435382267,0.024207680306205247,0.0009910988950052738,0.017233023829076644,0.01887185642752517,0.006432471208884677
0.1997069,0.04217993703953602,0.03125553481563677,0.1377404801010177,0.02409210506476611,0.0009407681556314504,0.01728678084544135,0.018660475363103602,0.006431489642072221
0.2001724,0.04198376799159498,0.03149343073988166,0.1368985688423089,0.023977063824783703,0.0009034010452310648,0.017340776646667,0.018452665189085667,0.006431859941592104
0.2006379,0.04179055063906507,0.03172985966984622,0.13604774509813072,0.02386256340467847,0.0008787815978104438,0.01739500445130944,0.018248413760197164,0.006433554445559077
0.2011034,0.041600245442992054,0.03196475982977688,0.1351881848439848,0.023748610554833138,0.0008666929663564028,0.017449457659536004,0.018047708230233966,0.006436545582396289
0.201569,0.04141281313826174,0.032198069979302926,0.13432006545401434,0.023635211958142003,0.000866917495427036,0.017504129853614547,0.017850535063898536,0.006440805875993041
0.2020345,0.04122821474483993,0.03242972942872258,0.13344356564438084,0.02352237423050612,0.000879236793278522,0.01755901479825959,0.01765688004874286,0.006446307950762147
0.2025,0.041046411578734766,0.03265967805417989,0.13255886541646314,0.023410103921274253,0.0009034318035129902,0.017614106440834793,0.017466728307212704,0.006453024536597186
0.2029655,0.04086736526268296,0.03288785631272437,0.13166614599989945,0.023298407513629573,0.0009392828762327439,0.017669398911410967,0.017280064308787885,0.006460928473730101
0.203431,0.040691037736561214,0.033114205257245746,0.13076558979549208,0.023187291424922214,0.0009865698386863336,0.017724886522678777,0.017096871882213226,0.00646999271748973
0.2038966,0.04051739126752423,0.03333866655127549,0.12985738031799493,0.023076762006947832,0.0010450720653920997,0.01778056376971511,0.016917134227814854,0.006480190342961981
0.2043621,0.04034638845987064,0.03356118248364696,0.12894170213880396,0.02296682554617255,0.0011145685477248796,0.017836425329602005,0.016740833929896455,0.006491494549552409
0.2048276,0.04017799226463776,0.03378169598300564,0.1280187408285705,0.022857488263904806,0.0011948379629516132,0.01789246606089696,0.016567952969210143,0.006503878665452048
0.2052931,0.04001216598892613,0.03400015063216112,0.12708868289975817,0.022748756316414778,0.0012856587427016156,0.017948681002953236,0.016398472735496723,0.006517316152007364
0.2057586,0.03984887330495418,0.03421649068227193,0.12615171574916365,0.022640635795002195,0.0013868091408573262,0.018005065375088797,0.01623237404009015,0.006531780607995245
0.2062241,0.03968807825884345,0.03443066106685468,0.12520802760042224,0.02253313272601345,0.0014980673008514339,0.01806161457560246,0.016069637128581168,0.0065472457738039724
0.2066897,0.03952974527913452,0.03464260741560881,0.12425780744651937,0.022426253070809036,0.001619211322356398,0.01811832418063573,0.01591024169353517,0.00656368553552108
0.2071552,0.039373839185033656,0.034852276068048395,0.12330124499232935,0.02232000272568232,0.0017500193273525505,0.018175189942878936,0.015754166887259384,0.0065810739289291
0.2076207,0.03922032519439039,0.03505961408693324,0.12233853059720308,0.02221438752173076,0.001890269525561152,0.01823220779012041,0.015601391334614552,0.006599385143410167
0.2080862,0.03906916893140622,0.035264569271491616,0.12136985521762707,0.02210941322468072,0.002039740279228975,0.018289373823637597,0.015451893145866298,0.006618593525760473
0.2085517,0.03892033643407485,0.035467090170427984,0.1203954103499756,0.022005085534666874,0.002198210167251205,0.01834668431642929,0.015305649929571407,0.006638673583915591
0.2090172,0.038773794161354645,0.03566712609470944,0.11941538797337946,0.021901410085967393,0.0023654580486196833,0.018404135711288537,0.01516263880549431,0.006659599990587626
0.2094828,0.03862950900007396,0.03586462713012523,0.11842998049273394,0.021798392446695833,0.0025412631251837538,0.018461724618716174,0.015022836417549148,0.006681347586815151
0.2099483,0.03848744827157076,0.03605954414961373,0.11743938068186965,0.021696038118450625,0.00272540500371123,0.01851944781467546,0.01488621894676284,0.006703891385426801
0.2104138,0.03834757973806786,0.03625182882535152,0.11644378162690941,0.02159435253592281,0.0029176637572372556,0.01857730223818867,0.014752762124254618,0.006727206574419383
0.2108793,0.038209871608785674,0.03644143364059911,0.11544337666983508,0.021493341066462644,0.0031178199856890425,0.018635284988777052,0.014622441244227579,0.006751268520251298
0.2113448,0.03807429254579446,0.036628311901297575,0.11443835935228801,0.021393009009605495,0.0033256548757747335,0.018693393323745987,0.014495231176967707,0.006776052771052055
0.2118103,0.03794081166960861,0.036812417747410266,0.11342892335962627,0.02129336159655729,0.003540950260124833,0.0187516246553177,0.014371106381845801,0.006801535059748634
0.2122759,0.037809398564525636,0.036993706164003444,0.11241526246526229,0.02119440398963992,0.0037634886756748483,0.018809976547614227,0.014250040920317678,0.006827691307109435
0.2127414,0.03768002328371287,0.03717213299205939,0.1113975704753035,0.021096141281696765,0.003993053421277938,0.018868446713493817,0.01413200846891803,0.00685449762470651
0.2132069,0.03755265635404505,0.03734765493901543,0.11037604117351882,0.020998578495458695,0.0042294286145365045,0.01892703301124426,0.014016982332243244,0.006881930317796792
0.2136724,0.03742726878069611,0.03752022958902212,0.10935086826665252,0.020901720582870854,0.0044723992478418635,0.018985733441136854,0.013904935455918456,0.006909965888122979
0.2141379,0.03730383205148897,0.037689815412913524,0.10832224533010752,0.020805572424380792,0.0047217512436113175,0.01904454614184503,0.013795840439544094,0.0069385810366347335
0.2146034,0.037182318141006705,0.03785637177788267,0.10729036575401833,0.020710138828188524,0.004977271508712231,0.01910346938673177,0.013689669549617034,0.00696775266613081
0.215069,0.03706269951446918,0.03801985895685514,0.10625542268973452,0.020615424529459376,0.005238747988062943,0.01916250158001001,0.013586394732421476,0.006997457883822762
0.2155345,0.03694494913137869,0.03818023813755424,0.10521760899673428,0.020521434189500684,0.005505969717400585,0.019221641252780475,0.013485987626884601,0.007027674003820798
0.216,0.036829040448938574,0.03833747143125126,0.10417711718998739,0.020428172394903563,0.005778726875206141,0.019280887058951264,0.013388419577392058,0.007058378549542394
0.2164655,0.036714947425248425,0.03849152188119508,0.10313413938778598,0.020335643656651206,0.006056810833777347,0.019340237771043635,0.013293661646558276,0.007089549256044249
0.216931,0.036602644522279494,0.03864235347071525,0.10208886726006133,0.020243852409195427,0.006340014209440391,0.019399692275888378,0.013201684627946669,0.00712116407227816
0.2173966,0.03649210670863393,0.03878993113099309,0.10104149197720413,0.020152803009503274,0.006628130911891711,0.019459249570217132,0.013112459058734843,0.0071532011632713935
0.2178621,0.036383309462091055,0.03893422074849547,0.09999220415940481,0.020062499736075785,0.006920956192661679,0.019518908756152933,0.013025955232320089,0.0071856389122321165
0.2183276,0.03627622877194384,0.039075189172065906,0.09894119382653002,0.01997294678794101,0.007218286692692442,0.019578669036604202,0.012942143210860634,0.007218455922580477
0.2187931,0.036170841141128764,0.03921280421966811,0.0978886503485505,0.01988414828362365,0.007519920489022673,0.01963852971056619,0.012860992837748372,0.007251631019905956
0.2192586,0.036067123588151825,0.03934703468477742,0.09683476239653456,0.019796108260093755,0.007825657140572501,0.01969849016833383,0.012782473750008986,0.007285143253851608
0.2197241,0.03596505364881371,0.03947785034241585,0.09577971789422116,0.019708830671696972,0.008135297733022268,0.019758549886629777,0.012706555390625478,0.007318971899925809
0.2201897,0.03586460937773683,0.03960522195482664,0.0947237039701849,0.0196223193890689,0.008448644922779115,0.019818708423651445,0.01263320702078117,0.007353096461242196
0.2206552,0.035765769349696955,0.039729121276784254,0.09366690691060552,0.019536578198036267,0.008765502980025625,0.0198789654140407,0.012562397732018248,0.007387496670188437
0.2211207,0.03566851266076209,0.03984952106053572,0.09260951211265317,0.019451610798507574,0.009085677830844826,0.019939320563779922,0.012494096458307772,0.007422152490024482
0.2215862,0.035572818929241086,0.03996639506036905,0.09155170403850016,0.019367420803355982,0.009408977098416024,0.019999773645018055,0.012428271988027099,0.007457044116410964
0.2220517,0.03547866829644437,0.04007971803680482,0.0904936661699695,0.019284011737297217,0.009735210143276048,0.020060324490830294,0.01236489297584046,0.007492151978868366
0.2225172,0.035386041427259,0.04018946576040709,0.08943558096382989,0.0192013870357652,0.010064188102640757,0.02012097298991502,0.01230392795447844,0.007527456742167592
0.2229828,0.03529491951054007,0.04029561501521062,0.08837762980774623,0.019119550043788125,0.010395723928782106,0.020181719081231696,0.012245345346412041,0.0075629393076524914
0.2234483,0.035205284259320124,0.04039814360176184,0.08731999297689387,0.019038504014867695,0.010729632426456507,0.020242562748583354,0.012189113475417008,0.007598580814494924
0.2239138,0.03511711791083822,0.04049703033977192,0.08626284959124483,0.018958252109864075,0.011065730289380732,0.020303504015147404,0.012135200578024257,0.00763436264088283
0.2243793,0.03503040322638991,0.04059225507038077,0.0852063775735334,0.018878797395889022,0.011403836135752021,0.020364542937958616,0.012083574814852378,0.007670266405141779
0.2248448,0.034945123490999284,0.0406837986580318,0.08415075360790812,0.018800142845209488,0.011743770542809397,0.02042567960234804,0.012034204281818391,0.00770627396679047
0.2253103,0.03486126251291419,0.04077164299195796,0.0830961530992768,0.018722291334163862,0.012085356080433488,0.020486914116341837,0.011987057021223171,0.007742367427530617
0.2257759,0.0347788046229256,0.040855770987280104,0.08204275013335062,0.01864524564209297,0.012428417343782461,0.02054824660502391,0.011942101032708013,0.007778529132171696
0.2262414,0.03469773467351214,0.040936166585720093,0.08099071743739344,0.018569008450287736,0.01277278098496202,0.020609677204866426,0.011899304284078996,0.007814741669491062
0.2267069,0.03461803803781051,0.041012814755931375,0.0799402263416817,0.01849358234095534,0.013118275743727875,0.020671206058032326,0.011858634721995984,0.007850987873029921
0.2271724,0.03453970060841252,0.04108570149345085,0.07889144674168035,0.01841896979620571,0.013464732477219696,0.020732833306653962,0.011820060282523344,0.0078872508218257
0.2276379,0.03446270879598937,0.04115481382027631,0.07784454706094025,0.01834517319706005,0.013811984188726055,0.020794559087092213,0.011783548901539858,0.00792351384108132
0.2281034,0.03438704952774342,0.04122013978407414,0.0767996942147219,0.018272194822483084,0.014159866055480499,0.020856383524180407,0.01174906852500561,0.007959760502771933
0.228569,0.03431271024568763,0.04128166845702202,0.07575705357435052,0.018200036848440588,0.014508215455489382,0.020918306725457515,0.011716587119083771,0.007995974626189655
0.2290345,0.034239678904752394,0.04133938993429122,0.07471678893230788,0.018128701346983873,0.01485687199339263,0.020980328775395178,0.011686072680115489,0.00803214027842684
0.2295,0.03416794397071939,0.041393295332173244,0.0736790624680655,0.018058190285362624,0.015205677525359064,0.02104244972962321,0.011657493244445946,0.008068241774798483
0.2299655,0.03409749441798186,0.04144337678585528,0.07264403471466434,0.01798850552516767,0.015554476183018329,0.021104669609158227,0.011630816898099758,0.008104263679204316
0.230431,0.03402831972713018,0.04148962744684902,0.0716118645260459,0.017919648821505194,0.015903114396432026,0.02116698839464023,0.01160601178630378,0.008140190804431228
0.2308966,0.03396040988236173,0.04153204148007747,0.07058270904513958,0.01785162182220374,0.01625144091610708,0.021229406020581938,0.011583046122855406,0.00817600821239659
0.2313621,0.033893755368713856,0.04157061406062435,0.06955672367271093,0.017784426067055516,0.016599306834054833,0.02129192236963567,0.011561888199334463,0.008211701214333206
0.2318276,0.033828347169118436,0.04160534137015089,0.06853406203697571,0.017718062987093313,0.016946565603899774,0.021354537266882707,0.011542506394156864,0.008247255370916537
0.2322931,0.03376417676127692,0.04163622059298486,0.0675148759639842,0.01765253390390448,0.017293073060042307,0.02141725047414996,0.011524869181468335,0.008282656492334972
0.2327586,0.033701236114354376,0.04166324991188681,0.06649931544878025,0.017587840028983226,0.01763868743588022,0.021480061684358825,0.011508945139876702,0.008317890638303975
0.2332241,0.03363951768549131,0.04168642850349885,0.06548752862733936,0.01752398246312252,0.017983269381093816,0.021542970515911176,0.011494702961021333,0.008352944118024987
0.2336897,0.03357901441613193,0.041705756533481214,0.06447966174928992,0.017460962195846856,0.01832668197799991,0.021605976507117465,0.01148211145797854,0.008387803490090042
0.2341552,0.03351971972816766,0.0417212351513423,0.06347585915142158,0.017398780104886963,0.018668790756980164,0.021669079110671896,0.011471139573501888,0.008422455562333135
0.2346207,0.03346162751989454,0.04173286648496802,0.062476263231984464,0.0173374369556976,0.019009463710989053,0.021732277688179605,0.011461756388096548,0.008456887391629416
0.2350862,0.03340473216178307,0.04174065363485646,0.061481014425782604,0.017276933401019427,0.019348571309147057,0.021795571504740787,0.011453931127926989,0.008491086283643411
0.2355517,0.03334902849205898,0.04174460066806447,0.06049025118006508,0.017217269980485894,0.019685986509424398,0.021858959723596846,0.011447633172557434,0.008525039792527488
0.2360172,0.03329451181209299,0.04174471261187252,0.05950410993121762,0.01715844712027605,0.020021584770420847,0.02192244140084344,0.011442832062524569,0.008558735720571847
0.2364828,0.03324117788159784,0.04174099544717496,0.05852272508225727,0.0171004651328141,0.020355244062246904,0.021986015480215306,0.01143949750674211,0.008592162117807351
0.2369483,0.033189022913630406,0.04173345610160246,0.0575462289811324,0.01704332421651647,0.020686844876511613,0.022049680787947643,0.01143759938973683,0.008625307281562538
0.2374138,0.03313804356939699,0.04172210244238372,0.056574751899830016,0.016987024455587033,0.02101627023542218,0.022113436027718675,0.011437107778715788,0.00865815975597615
0.2378793,0.03308823695286011,0.041706943268953564,0.05560842201429153,0.0169315658198611,0.021343405700000425,0.022177279775677905,0.011437992930464519,0.008690708331466478
0.2383448,0.03303960060514561,0.041687988305314366,0.05464736538513804,0.016876948164698764,0.02166813937742107,0.02224121047556444,0.011440225298075994,0.008722942044158776
0.2388103,0.03299213249874957,0.04166524819215765,0.05369170593920549,0.016823171230928042,0.021990361927476658,0.022305226433919596,0.011443775537510243,0.008754850175271948
0.2392759,0.03294583103154529,0.04163873447875283,0.052741565451889745,0.01677023464483809,0.02230996656817399,0.022369325815398036,0.011448614513984453,0.008786422250465659
0.2397414,0.032900695020591585,0.0416084596146097,0.05179706353030113,0.016718137918222836,0.022626849080467058,0.02243350663818127,0.011454713308193516,0.008817648039148971
0.2402069,0.03285672369574457,0.04157443694092161,0.05085831759722767,0.01666688044847511,0.02294090781213141,0.022497766769497465,0.011462043222360808,0.00884851755375155
0.2406724,0.03281391669307577,0.04153668068179603,0.04992544287590589,0.016616461518731418,0.0232520436807853,0.022562103921251242,0.011470575786119099,0.008879021048958427
0.2411379,0.03277227404810034,0.04149520593527901,0.04899855237559772,0.0165668802980672,0.023560160176063036,0.022626515645766995,0.011480282762221398,0.008909149020909305
0.2416034,0.03273179618881971,0.041450028664180155,0.048077756877971785,0.01651813584174247,0.023865163360946268,0.022690999331649128,0.011491136152081565,0.008938892206363305
0.242069,0.03269248392858335,0.04140116568670456,0.04716316492428693,0.01647022709149759,0.024166961872259234,0.022755552199762562,0.011503108201144509,0.008968241581830004
0.2425345,0.03265433845877484,0.04134863466689785,0.04625488280337588,0.016423152875898715,0.024465466920334234,0.02282017129933673,0.011516171404085776,0.008997188362667545
0.243,0.032617361341327394,0.041292454104910496,0.045353014540426555,0.01637691191073252,0.024760592287854107,0.02288485350419618,0.0115302985098403,0.009025724002148567
0.2434655,0.03258155450107409,0.04123264332708702,0.04445766188655822,0.016331502799449674,0.025052254327878887,0.022949595509120922,0.011545462526460094,0.009053840190494641
0.243931,0.03254692021793798,0.041169222475885614,0.04356892430918979,0.016286924033656378,0.025340371961064208,0.023014393826339387,0.01156163672580066,0.009081528853879865
0.2443966,0.03251346111896693,0.04110221249963346,0.042686898983197136,0.01624317399365327,0.02562486667207966,0.023079244782156956,0.011578794648035864,0.009108782153404256
0.2448621,0.03248118017021785,0.04103163514212232,0.0418116807828563,0.016200250949020816,0.02590566250523557,0.023144144513722733,0.011596910106000927,0.009135592484037572
0.2453276,0.032450080668494835,0.0409575129320492,0.0409433622745691,0.01615815305925024,0.02618268605932712,0.02320908896593747,0.011615957189363214,0.009161952473534126
0.2457931,0.03242016623294511,0.040879869172306287,0.040082033710367726,0.016116878374419042,0.026455866481704837,0.023274073888505255,0.011635910268620417,0.009187854981319209
0.2462586,0.0323914407965168,0.04079872792912412,0.03922778302219433,0.016076424835910083,0.026725135461580556,0.023339094833131742,0.011656743998925786,0.009213293097347648
0.2467241,0.03236390859728212,0.040714114021072056,0.03838069581695164,0.016036790277173335,0.026990427222577898,0.023404147150871697,0.011678433323740134,0.009238260140934996
0.2471897,0.032337574169629305,0.04062605300791948,0.037540855372320166,0.01599797242452929,0.027251678514536373,0.023469225989628632,0.011700953478310381,0.009262749659561819
0.2476552,0.03231244233532643,0.040534571179361344,0.03670834263333751,0.01595996889801322,0.027508828604578144,0.023534326291809272,0.011724279992974545,0.009286755427651507
0.2481207,0.0322885181944602,0.040439695543611605,0.035883236209734576,0.01592277721225941,0.02776181926744661,0.023599442792135824,0.011748388696293128,0.009310271445321894
0.2485862,0.03226580711625226,0.04034145381586794,0.03506561237402347,0.01588639477742455,0.028010594775125963,0.023664570015618853,0.011773255718006971,0.009333291937111023
0.2490517,0.03224431472975558,0.040239874406651194,0.034255545060331495,0.01585081890014946,0.028255101885750946,0.023729702275693605,0.011798857491821661,0.009355811350677281
0.2495172,0.032224046914433306,0.04013498641002306,0.033453105863975256,0.01581604678455833,0.02849528983181606,0.023794833672522567,0.011825170758018599,0.009377824355474145
0.2499828,0.032205009790622116,0.04002681959168555,0.03265836404176861,0.015782075533294627,0.028731110307693753,0.023859958091466914,0.011852172565893094,0.009399325841399749
0.2504483,0.032187209709882224,0.039915404376965634,0.03187138651305799,0.015748902148592828,0.028962517456471222,0.023925069201729505,0.011879840276019916,0.009420310917421537
0.2509138,0.03217065324523603,0.039800771838688444,0.031092237861478196,0.015716523533384995,0.029189467856115668,0.02399016045517195,0.011908151562346966,0.009440774910176244
0.2513793,0.03215534718129743,0.039682953684942325,0.030320980337421737,0.015684936492441303,0.029411920504977995,0.024055225085308104,0.011937084414117921,0.009460713362545455
0.2518448,0.03214129850429404,0.03956198224673873,0.029557673861214273,0.015654137733543464,0.029629836806644695,0.024120256106476334,0.011966617137624676,0.009480122032207041
0.2523103,0.032128514391985094,0.03943789046556974,0.02880237602698869,0.015624123868689966,0.029843180554147652,0.0241852463131927,0.0119967283577906,0.009498996890162726
0.2527759,0.032117002203477685,0.03931071188086582,0.028055142107250026,0.015594891415331918,0.03005191791354151,0.024250188279687054,0.012027397019585735,0.00951733411924203
0.2532414,0.032106769468945154,0.039180480617356093,0.027316025058123198,0.015566436797638245,0.03025601740685819,0.024315074359623896,0.012058602389275298,0.009535130112582823
0.2537069,0.032097823879251405,0.03904723137233299,0.02658507552527525,0.01553875634778881,0.030455449894448372,0.02437989668600963,0.012090324055503046,0.00955238147208864
0.2541724,0.0320901732754858,0.03891099940282336,0.02586234185050369,0.015511846307294108,0.030650188556720137,0.02444464717128769,0.012122541930211327,0.009569085006862963
0.2546379,0.03208382563841353,0.03877182051266763,0.025147870078982146,0.015485702828340105,0.030840208875285206,0.024509317507622773,0.012155236249399803,0.009585237731620634
0.2551034,0.0320787890778469,0.038629731039508904,0.02444170396715448,0.015460321975156923,0.031025488613523854,0.024573899167375263,0.012188387573724967,0.009600836865076644
0.255569,0.03207507182194324,0.03848476784169375,0.023743884991268272,0.015435699725410064,0.031206007796579824,0.024638383403766652,0.012221976788942704,0.009615879828312628
0.2560345,0.03207268220643529,0.03833696828508699,0.023054452356538385,0.015411831971613154,0.03138174869079691,0.02470276125173665,0.012255985106196111,0.00963036424312143
0.2565,0.03207162866380032,0.03818637022980307,0.022373443006931195,0.015388714522561336,0.03155269578260884,0.024767023528992356,0.012290394062150876,0.009644287930330186
0.2569655,0.03207191971237412,0.038033012016857194,0.021700891635559785,0.015366343104784668,0.03171883575689438,0.02483116083724973,0.012325185518980441,0.009657648908102475
0.257431,0.032073563945416314,0.03787693245473971,0.021036830695680356,0.015344713364021146,0.03188015747480932,0.024895163563667368,0.012360341664203191,0.009670445390220179
0.2578966,0.03207657002013314,0.03771817080591795,0.02038129041227986,0.015323820866709264,0.032036651951107185,0.02495902188247236,0.012395845010373887,0.009682675784345727
0.2583621,0.03208094664666424,0.037556766773269704,0.019734298794244643,0.015303661101500199,0.03218831233096048,0.025022725756777806,0.012431678394631553,0.009694338690265458
0.2588276,0.032086702577039765,0.037392760486453076,0.019095881647099848,0.015284229480790015,0.03233513386629421,0.0250862649405914,0.012467824978106114,0.00970543289811474
0.2592931,0.03209384659411412,0.03722619248821759,0.018466062586309093,0.015265521342272362,0.032477113891643435,0.025149628981014267,0.012504268245185999,0.009715957386585553
0.2597586,0.032102387500482804,0.037057103720661434,0.01784486305112392,0.015247531950512318,0.032614251799546176,0.025212807220629102,0.012540992002649024,0.009725911321117098
0.2602241,0.03211233410738843,0.03688553551144035,0.017232302318972385,0.015230256498542098,0.03274654901548324,0.02527578880007643,0.012577980378658926,0.009735294052070093
0.2606897,0.03212369522362219,0.036711529559933516,0.01662839752037617,0.015213690109479377,0.03287400897237598,0.025338562660817625,0.012615217821629967,0.009744105112885275
0.2611552,0.03213647964442675,0.03653512792337224,0.016033163654385525,0.015197827838168957,0.03299663708465301,0.02540111754808319,0.012652689098962194,0.009752344218226714
0.2616207,0.03215069614040635,0.03635637300293756,0.0154466136045214,0.015182664672848456,0.03311444072189668,0.025463442014004415,0.01269037929564998,0.009760011262110489
0.2620862,0.03216635344644974,0.03617530752983293,0.014868758155214122,0.0151681955368386,0.033227429182080326,0.025525524420926614,0.012728273812766573,0.009767106316019276
0.2625517,0.03218346025067114,0.03599197455133844,0.01429960600872801,0.015154415290258615,0.03333561366440705,0.025587352944901793,0.012766358365827552,0.00977362962700343
0.2630172,0.03220202518337451,0.03580641741685301,0.013739163802561278,0.015141318731767089,0.033439007241761326,0.025648915579358573,0.012804618983036394,0.009779581615769082
0.2634828,0.03222205680604585,0.03561867976393103,0.013187436127310695,0.015128900600328598,0.03353762483278452,0.02571020013894693,0.012843042003415555,0.009784962874753791
0.2639483,0.032243563600378264,0.03542880550431988,0.012644425544990458,0.015117155577006287,0.033631483173586045,0.025771194263555473,0.012881614074826825,0.009789774166190243
0.2644138,0.03226655395733452,0.03523683881000447,0.012110132607794822,0.015106078286780504,0.033720600789101926,0.025831885422498792,0.01292032215188479,0.009794016420158395
0.2648793,0.032291036166251515,0.03504282409926489,0.011584555877294076,0.015095663300393537,0.0338049979641128,0.0258922609188724,0.012959153493767351,0.0097976907326265
0.2653448,0.0323170184039913,0.034846806022752724,0.011067691944053472,0.01508590513622042,0.033884696713933654,0.02595230789407263,0.012998095661927219,0.009800798363481354
0.2658103,0.03234450872414305,0.03464882944959182,0.010559535447664824,0.0150767982621657,0.033959720754787925,0.02601201333247887,0.013037136517708226,0.00980334073454812
0.2662759,0.032373515046280325,0.03444893945350869,0.010060079097180517,0.015068337097586008,0.03403009547387855,0.026071364066295292,0.01307626421987019,0.009805319427600082
0.2667414,0.03240404514527782,0.034247181298997974,0.009569313691939679,0.015060516015238263,0.034095847899168856,0.026130346780549027,0.01311546722202602,0.009806736182358756
0.2672069,0.03243610664069157,0.03404360042752812,0.009087228142776363,0.015053329343253206,0.03415700666888629,0.026188948018241637,0.013154734269994705,0.009807592894484782
0.2676724,0.03246970698620653,0.033838242443792195,0.008613809493599524,0.015046771367134048,0.0342136020007622,0.026247154185650583,0.013194054399073734,0.00980789161356016
0.2681379,0.03250485345915517,0.03363115310200897,0.008149042943334659,0.015040836331779953,0.034265665661020815,0.026304951557777036,0.013233416931234435,0.009807634541062486
0.2686034,0.03254155315011104,0.03342237829227896,0.007692911868216893,0.01503551844353414,0.03431323093313102,0.026362326283936362,0.01327281147224367,0.009806824028331903
0.269069,0.03257981295256105,0.033211964027000426,0.007245397844425311,0.015030811872256336,0.03435633258633434,0.026419264393487227,0.013312227908715212,0.009805462574531576
0.2695345,0.03261963955266083,0.03299995642734993,0.006806480671048308,0.015026710753419473,0.0343950068439629,0.02647575180169517,0.01335165640509402,0.009803552824602428
0.27,0.03266103941907765,0.03278640170983223,0.006376138393369673,0.015023209190230404,0.03442929135156099,0.026531774315726273,0.013391087400576575,0.009801097567212935
0.2704655,0.032704018792925775,0.032571346172904116,0.0059543473264650915,0.015020301255774596,0.034459225144824204,0.026587317640766404,0.013430511605970294,0.009798099732704665
0.270931,0.03274858367779939,0.032354836183676766,0.005541082079098723,0.0150179809951846,0.03448484861737001,0.026642367386261565,0.013469920000495116,0.009794562391034246
0.2713966,0.03279473982990828,0.032136918164701024,0.005136315577909431,0.01501624242783204,0.03450620348835369,0.026696909072274826,0.013509303828530094,0.009790488749712336
0.2718621,0.032842492748321725,0.03191763858083997,0.004740019091876226,0.01501507954954285,0.034523332769943564,0.026750928135955403,0.013548654596307922,0.009785882151740175
0.2723276,0.0328918476653258,0.031697043926232966,0.004352162257052457,0.015014486334835332,0.03453628073466932,0.02680440993811558,0.013587964068560337,0.009780746073544214
0.2727931,0.032942809536899105,0.03147518071135523,0.003972713101558206,0.015014456739180516,0.034545092882657384,0.02685733976991137,0.013627224265117298,0.009775084122909254
0.2732586,0.03299538303331193,0.03125209545017687,0.0036016380708203564,0.015014984701284142,0.034549815908766816,0.026909702859622825,0.013666427457462871,0.009768900036910555
0.2737241,0.033049572529853875,0.031027834647425045,0.003238902053049752,0.01501606414538961,0.03455049766963923,0.02696148437952989,0.013705566165250791,0.009762197679845286
0.2741897,0.03310538209769445,0.030802444785953,0.0028844684049448613,0.015017688983601068,0.03454718715067593,0.0270126694528798,0.013744633152782555,0.009754981041163638
0.2746552,0.033162815494881266,0.030575972314219296,0.002538298977611322,0.01501985311822578,0.03453993443295518,0.02706324316094175,0.013783621425450943,0.0097472542333999
0.2751207,0.033221876157480346,0.030348463633880798,0.0022003541426867525,0.015022550444134785,0.03452879066010218,0.027113190550144634,0.013822524226151857,0.009739021490103732
0.2755862,0.03328256719086293,0.030119965087502552,0.0018705928186601925,0.015025774851140818,0.03451380800512416,0.027162496639293227,0.013861335031667331,0.009730287163771766
0.2760517,0.03334489136114304,0.02989052294638791,0.0015489724973755138,0.015029520226392267,0.03449503963722263,0.027211146426858134,0.013900047549022623,0.009721055723779634
0.2765172,0.03340885108677009,0.0296601833985321,0.0012354492707081389,0.01503378045678191,0.03447253968859454,0.02725912489833455,0.013938655711820253,0.009711331754314401
0.2769828,0.03347444843028068,0.029428992536702323,0.0009299778574043984,0.015038549431369033,0.03444636322123405,0.027306417033664692,0.013977153676553855,0.009701119952307309
0.2774483,0.0335416850902138,0.029196996346647658,0.0006325116300728651,0.01504382104381343,0.03441656619374627,0.027353007814718593,0.01401553581890468,0.009690425125366697
0.2779138,0.03361056239319331,0.02896424069544176,0.00034300264231699296,0.01504958919481965,0.03438320542818412,0.027398882232827788,0.014053796730023665,0.009679252189710823
0.2783793,0.033681081286181885,0.028730771319961507,6.140165599840073e-05,0.015055847794589846,0.03434633857691947,0.027444025296366338,0.01409193121280208,0.009667606168100302
0.2788448,0.03375324232891031,0.02849663381550463,-0.00021234183137985475,0.015062590765283495,0.03430602408955931,0.027488422038373397,0.014129934278133693,0.009655492187769793
0.2793103,0.03382704568648591,0.02826187362454917,-0.0004782795591806585,0.015069812043482326,0.03426232117991751,0.027532057524211402,0.014167801141171612,0.009642915478358547
0.2797759,0.03390249112218392,0.028026536025657692,-0.0007364644760414968,0.015077505582658614,0.034215289793052606,0.027574916859254003,0.014205527217582805,0.00962988136983938
0.2802414,0.03397957799042542,0.02779066612252895,-0.0009869507121950058,0.015085665355645126,0.03416499057238159,0.027616985196597457,0.014243108119803335,0.009616395290445641
0.2807069,0.03405830522994531,0.027554308833199582,-0.0012297935517120023,0.01509428535710487,0.034111484826879694,0.027658247744789234,0.014280539653297291,0.009602462764595796
0.2811724,0.03413867135715384,0.02731750887939817,-0.0014650494046775733,0.015103359605998786,0.03405483449837572,0.02769868977556741,0.014317817812822403,0.009588089410815159
0.2816379,0.03422067445969473,0.02708031077605396,-0.0016927757793107853,0.015112882148049442,0.033995102128952535,0.027738296631604344,0.01435493877870525,0.009573280939654373
0.2821034,0.034304312190203086,0.026842758820962206,-0.0019130312540385508,0.015122847058198823,0.033932350828462035,0.027777053734247957,0.014391898913128988,0.009558043151604138
0.282569,0.03438958176026574,0.026604897084607972,-0.0021258754495341644,0.015133248443058158,0.03386664424216407,0.02781494659125398,0.0144286947564364,0.00954238193500571
0.2830345,0.03447647993458663,0.026366769400149943,-0.0023313690007309863,0.015144080443347765,0.033798046518498936,0.02785196080450245,0.014465323023451201,0.009526303263956627
0.2835,0.034565003025359455,0.026128419353565552,-0.0025295735288216985,0.015155337236324772,0.03372662227700308,0.02788808207769196,0.014501780599820565,0.009509813196211046
0.2839655,0.03465514688684967,0.02588989027395864,-0.002720551613253512,0.015167013038196508,0.03365243657637774,0.02792329622400522,0.014538064538382021,0.009492917871074088
0.284431,0.03474690691018758,0.025651225224030433,-0.0029043667637296145,0.015179102106517236,0.033575554882720515,0.027957589173739757,0.014574172055557907,0.00947562350728947
0.2848966,0.034840278018374145,0.025412466990714526,-0.0030810833922270625,0.015191598742565832,0.033496043037929586,0.027990946981897507,0.014610100527780645,0.00945793640091978
0.2853621,0.034935254661501026,0.025173658075976244,-0.003250766785041212,0.015204497293701876,0.033413967228290535,0.028023355835727293,0.01464584748795216,0.009439862923218717
0.2858276,0.03503183081218629,0.02493484068777679,-0.0034134830748666547,0.015217792155697565,0.033329393953255404,0.028054802062213783,0.014681410621940661,0.009421409518494626
0.2862931,0.03512999996122695,0.024696056731202107,-0.003569299212924496,0.015231477775042804,0.03324238999442368,0.028085272135506798,0.014716787765118014,0.009402582701964708
0.2867586,0.0352297551134696,0.024457347799756383,-0.003718282941145669,0.01524554865122079,0.03315302238473462,0.028114752684284566,0.01475197689894088,0.009383389057599226
0.2872241,0.035331088783900476,0.02421875516682001,-0.0038605027644198235,0.015259999338951507,0.03306135837788009,0.028143230499044648,0.014786976147578691,0.009363835235955062
0.2876897,0.03543399299395599,0.02398031977727167,-0.003996027922919163,0.015274824450400681,0.03296746541794678,0.028170692539316058,0.01482178377459147,0.009343927951997948
0.2881552,0.0355384592680551,0.023742082239274077,-0.004124928364506442,0.015290018657351778,0.0328714111092966,0.02819712594078607,0.01485639817966039,0.00932367398291269
0.2886207,0.035644478630354574,0.023504082816222974,-0.004247274717236134,0.015305576693338747,0.032773263186693484,0.02822251802233491,0.014890817895373908,0.009303080165900762
0.2890862,0.03575204160172858,0.023266361418858912,-0.00436313826195759,0.015321493355737187,0.032673089485684835,0.028246856292971474,0.014925041584072242,0.009282153395964613
0.2895517,0.03586113819697373,0.023028957597541307,-0.0044725909050288195,0.015337763507811486,0.0325709579132454,0.02827012845866292,0.014959068034752854,0.009260900623678065
0.2900172,0.035971757922240916,0.022791910534684212,-0.00457570515114928,0.015354382080715507,0.032466936418691084,0.028292322429050925,0.014992896160039536,0.00923932885294228
0.2904828,0.03608388977269536,0.02255525903735331,-0.004672554076319865,0.015371344075444255,0.03236109296487031,0.02831342632404747,0.015026524993217558,0.009217445138726951
0.2909483,0.03619752223040627,0.022319041530023415,-0.004763211300938041,0.01538864456473397,0.032253495499639975,0.028333428480303017,0.015059953685337258,0.009195256584796519
0.2914138,0.036312643262467484,0.022083296047495905,-0.004847750963035852,0.01540627869490805,0.03214421192763318,0.02835231745754052,0.015093181502388312,0.009172770341421546
0.2918793,0.03642924031935029,0.02184806022797519,-0.004926247691668303,0.01542424168766621,0.03203331008232563,0.028370082044748994,0.01512620782254687,0.009149993603075566
0.2923448,0.03654730033348973,0.021613371306303385,-0.004998776580459401,0.015442528841814119,0.031920857698407565,0.028386711266231105,0.01515903213349762,0.009126933606117984
0.2928103,0.03666680971810511,0.021379266107352145,-0.005065413161312951,0.015461135534930781,0.03180692238446786,0.02840219438749971,0.015191654029832725,0.009103597626463811
0.2932759,0.03678775436625563,0.02114578103957061,-0.005126233378295031,0.015480057224970804,0.03169157159599673,0.028416520921018564,0.015224073210529517,0.009079992977241092
0.2937414,0.036910119650131495,0.020912952088688305,-0.0051813135616948554,0.01549928945179868,0.03157487260871327,0.02842968063178282,0.015256289476508712,0.00905612700643699
0.2942069,0.0370338904205812,0.02068081481157202,-0.005230730402270638,0.015518827838652164,0.031456892492223755,0.02844166354273545,0.015288302728274831,0.009032007094533489
0.2946724,0.03715905100687502,0.0204494043302358,-0.005274560925686859,0.015538668093531877,0.03133769808401652,0.02845245994001621,0.015320112963640345,0.00900764065213371
0.2951379,0.0372855852167049,0.020218755326003483,-0.005312882467149237,0.015558806010514174,0.031217355963798835,0.028462060378040784,0.01535172027553498,0.008983035117579878
0.2956034,0.03741347633642083,0.0199889020338235,-0.005345772646243575,0.015579237470984443,0.031095932428181088,0.028470455684408556,0.015383124849901505,0.008958197954563995
0.296069,0.03754270713150342,0.01975987823673607,-0.005373309341984543,0.015599958444787967,0.030973493465713365,0.02847763696463834,0.015414326963679224,0.008933136649732453
0.2965345,0.03767325984727247,0.019531717260493294,-0.005395570668080399,0.015620964991295538,0.030850104732279282,0.028483595606732085,0.01544532698287623,0.008907858710285814
0.297,0.03780511620983092,0.01930445196833294,-0.005412634948419552,0.015642253260381083,0.03072583152685173,0.028488323285567226,0.015476125360731445,0.008882371661575133
0.2974655,0.037938257427243674,0.019078114755907045,-0.005424580692784801,0.01566381949330855,0.030600738767614943,0.02849181196711864,0.015506722635967241,0.00885668304469628
0.297931,0.03807266419095023,0.0188527375463667,-0.005431486572800982,0.015685660023525325,0.030474890968457045,0.028494053912511443,0.01553711943113343,0.008830800414083786
0.2983966,0.03820831667741044,0.018628351785604264,-0.005433431398121661,0.01570777127735953,0.03034835221583721,0.0284950416819059,0.015567316451043246,0.008804731335105781
0.2988621,0.038345194549982045,0.018404988437654517,-0.005430494092860399,0.01573014977461854,0.030221186146031205,0.028494768138215814,0.015597314481301895,0.008778483381661628
0.2993276,0.038483276961028934,0.018182677980255947,-0.0054227536722719835,0.01575279212908613,0.030093455922758916,0.028493226450661848,0.01562711438692812,0.008752064133783863
0.2997931,0.03862254255425869,0.01796145040057336,-0.0054102892196888465,0.015775695048915798,0.029965224215197407,0.028490410098161396,0.01565671711106921,0.008725481175246
0.3002586,0.038762969467288126,0.017741335191082907,-0.00539317986371775,0.01579885533691782,0.0298365531763827,0.028486312872557033,0.015686123673809785,0.008698742091177705
0.3007241,0.03890453533443519,0.017522361345620463,-0.005371504755701636,0.01582226989073788,0.02970750442200333,0.028480928881685505,0.015715335171074513,0.008671854465688814
0.3011897,0.03904721728973578,0.017304557355594233,-0.005345343047451374,0.015845935702925272,0.029578139009588583,0.028474252552289612,0.015744352773624862,0.008644825879503552
0.3016552,0.039190991970183796,0.017087951206362327,-0.0053147738692519144,0.01586984986088896,0.029448517418094115,0.02846627863277552,0.01577317772614987,0.008617663907606272
0.3021207,0.0393358355191928,0.016872570373776062,-0.005279876308147197,0.015894009546740015,0.029318699527887633,0.028457002195818128,0.015801811346450787,0.00859037611689997
0.3025862,0.03948172359027733,0.01665844182088964,-0.005240729386507926,0.015918412037019276,0.029188744601137052,0.028446418640817223,0.015830255024719384,0.008562970063878784
0.3030517,0.03962863135095219,0.016445591994836757,-0.005197412040886142,0.015943054702309396,0.02905871126260357,0.0284345236962074,0.01585851022290944,0.008535453292315654
0.3035172,0.039776533486847385,0.016234046823874713,-0.005150003101160318,0.015967935006730702,0.028928657480842057,0.028421313421624638,0.01588657847420099,0.008507833330966242
0.3039828,0.039925404206036415,0.016023831714596506,-0.005098581269974502,0.01599305050732057,0.028798640549811187,0.02840678420993258,0.015914461382556637,0.00848011769129023
0.3044483,0.040075217243575254,0.015814971549311233,-0.005043225102474837,0.01601839885329626,0.028668717070895605,0.028390932789111607,0.015942160622369195,0.00845231386519108
0.3049138,0.04022594586624937,0.015607490683593114,-0.00498401298634661,0.016043977785201353,0.02853894293534271,0.028373756224013943,0.01596967793819981,0.00842442932277526
0.3053793,0.040377562877525634,0.015401412943999321,-0.0049210231221548115,0.0160697851339361,0.02840937330711632,0.02835525191798809,0.01599701514460569,0.008396471510132
0.3058448,0.04053004062270612,0.01519676162595663,-0.0048543335039910335,0.016095818819672206,0.028280062606169575,0.028335417614375996,0.016024174126056518,0.008368447847134515
0.3063103,0.04068335099428043,0.0149935594918169,-0.004784021900429376,0.0161220768506528,0.028151064492139447,0.028314251397886302,0.016051156836938765,0.008340365725263643
0.3067759,0.040837465437473214,0.014791828769081139,-0.004710165835793899,0.01614855732187892,0.028022431848465028,0.028291751695847092,0.016077965301647092,0.008312232505454785
0.3072414,0.040992354955983294,0.014591591148791954,-0.004632842571740015,0.016175258413684356,0.027894216766931802,0.028267917279341418,0.016104601614762223,0.008284055515968945
0.3077069,0.04114799011791087,0.014392867784093981,-0.004552129089152124,0.016202178390201428,0.027766470532643892,0.02824274726422895,0.016131067941314723,0.008255842050288658
0.3081724,0.04130434106186916,0.014195679288961894,-0.004468102070359655,0.016229315597720874,0.027639243609426208,0.028216241112056933,0.016157366517134137,0.008227599365039508
0.3086379,0.041461377503276574,0.014000045737095363,-0.0043808378816735825,0.01625666846294954,0.02751258562565802,0.02818839863086367,0.016183499649282958,0.00819933467793794
0.3091034,0.04161906874082581,0.013805986660980374,-0.004290412556245467,0.016284235491169877,0.027386545360539506,0.02815921997587756,0.016209469716574828,0.008171055165766014
0.309569,0.04177738366312583,0.013613521051116094,-0.004196901777250921,0.016312015264305604,0.027261170730792424,0.028128705650114567,0.016235279170176316,0.008142767962373735
0.3100345,0.04193629075551275,0.013422667355406436,-0.0041003808613994,0.016340006438898123,0.02713650877779596,0.02809685650487688,0.016260930534291482,0.008114480156709632
0.3105,0.042095758107025476,0.013233443478715287,-0.004000924742772125,0.016368207743998314,0.027012605655158475,0.028063673740155278,0.01628642640692828,0.008086198790880222
0.3109655,0.04225575341754179,0.01304586678258432,-0.0038986079569898703,0.01639661797897846,0.026889506616725845,0.028029158904937613,0.016311769460745827,0.008057930858239009
0.311431,0.04241624400507037,0.012859954085112096,-0.00379350462571225,0.01642523601126894,0.026767256005026708,0.027993313897425553,0.016336962443981397,0.008029683301505655
0.3118966,0.04257719681319404,0.012675721660993133,-0.003685688441470038,0.016454060774024254,0.02664589724015487,0.027956140965161507,0.016362008181455865,0.008001463010915925
0.3123621,0.04273857841865953,0.012493185241715481,-0.0035752326528319394,0.01648309126372292,0.026525472809088818,0.02791764270506745,0.016386909575656305,0.007973276822403
0.3128276,0.04290035503910881,0.012312360015915248,-0.0034622100499070926,0.016512326537705645,0.026406024255448093,0.027877822063397124,0.0164116696078944,0.007945131515810699
0.3132931,0.043062492540947,0.012133260629886492,-0.00334669295018444,0.01654176571165596,0.0262875921696862,0.02783668233560296,0.01643629133953919,0.00791703381313916
0.3137586,0.043224956447342054,0.011955901188244824,-0.0032287531847099526,0.01657140795702751,0.02617021617971938,0.02779422716611868,0.016460777913322684,0.007888990376823455
0.3142241,0.043387711946351076,0.011780295254743013,-0.003108462084602534,0.01660125249842192,0.02605393494199054,0.027750460548058454,0.016485132554716658,0.007861007808045639
0.3146897,0.043550723899168454,0.01160645585323683,-0.0029858904679092614,0.01663129861092115,0.025938786132967417,0.027705386822833116,0.0165093585733791,0.007833092645080678
0.3151552,0.04371395684849062,0.011434395468799393,-0.002861108626800503,0.016661545617377968,0.025824806441074166,0.027659010679683727,0.016533459364668584,0.007805251361676637
0.3156207,0.043877375026992245,0.011264126048982229,-0.0027341863151052687,0.016691992885668187,0.02571203155905536,0.02761133715513259,0.016557438411224954,0.007777490365469503
0.3160862,0.04404094236590827,0.011095659005221253,-0.0026051927361870424,0.016722639825908055,0.02560049617677164,0.027562371632351583,0.016581299284614773,0.0077498159964329676
0.3165517,0.04420462250371611,0.010929005214385945,-0.0024741965311602314,0.016753485887640078,0.025490233974426117,0.0275121198404474,0.016605045647040025,0.007722234525363409
0.3170172,0.04436837879491204,0.010764175020469906,-0.0023412657674472545,0.016784530556990505,0.02538127761622084,0.027460587853663107,0.016628681253108592,0.007694752152400344
0.3174828,0.044532174318875566,0.01060117823642106,-0.002206467927676225,0.01681577335380146,0.025273658744442335,0.027407782090495224,0.016652209951664974,0.007667375005582524
0.3179483,0.04469597188881587,0.010440024146109776,-0.0020698698989191056,0.016847213828740725,0.025167407973975413,0.027353709312725336,0.01667563568767959,0.0076401091394398555
0.3184138,0.04485973406079442,0.010280721506433166,-0.0019315379622701781,0.01687885156039194,0.02506255488724425,0.027298376624365,0.01669896250419509,0.007612960533621237
0.3188793,0.045023423142818354,0.01012327854955388,-0.0017915377827646096,0.016910686152327915,0.024959128029579607,0.02724179147051253,0.01672219454432793,0.007585935091558374
0.3193448,0.04518700120399951,0.009967702985271693,-0.001649934399636854,0.016942717230169598,0.02485715490501112,0.02718396163611993,0.016745336053323633,0.007559038639165602
0.3198103,0.045350430083774776,0.009814002003526242,-0.0015067922169185533,0.016974944438633188,0.0247566619724834,0.027124895244668226,0.016768391380664077,0.007532276923575679
0.3202759,0.04551367140118343,0.009662182277029259,-0.0013621749943755399,0.017007367438567716,0.02465767464249471,0.02706460075674903,0.016791364982225207,0.007505655611911467
0.3207414,0.0456766865641976,0.009512249964024649,-0.0012161458387834419,0.01703998590398539,0.02456021727415697,0.02700308696855028,0.016814261422483646,0.007479180290093382
0.3212069,0.04583943677910197,0.009364210711174789,-0.0010687671955413158,0.017072799519086915,0.024464313172675674,0.02694036301024383,0.016837085376770592,0.007452856461682417
0.3216724,0.0460018830599186,0.00921806965657136,-0.0009201008406225974,0.017105807975283913,0.02436998458724857,0.02687643834427257,0.016859841633571435,0.007426689546758508
