Time,Rectus Femoris right,Rectus Femoris left,Hamstrings right,Hamstrings left,TibilaisÂ Anterior right,TibilaisÂ Anterior left,Gastrocnemius right,Gastrocnemius left
0.0,0.13037547279268458,0.017741289951815446,0.09397844557573147,0.0162384307095784,0.09999021935046325,-0.01400141243572257,-0.10229567974352424,-0.0038812587070907226
0.0004655,0.13186571783228657,0.017934568635921144,0.09466195891471244,0.01623575224024255,0.10081709282040373,-0.013409154248201114,-0.09968850394396954,-0.0035954285665904047
0.000931,0.1333527054856225,0.018128415801970506,0.09534293645968517,0.016233288841468317,0.10164095983805395,-0.012815924058341229,-0.09709046729248064,-0.0033096960743100316
0.0013966,0.13483613971139694,0.01832279666994118,0.09602125702527683,0.01623104714639992,0.10246165357144443,-0.012221785702840725,-0.09450193783365642,-0.003024097900120017
0.0018621,0.13631572370267606,0.018517676047788867,0.09669679978632668,0.016229033872187576,0.1032790071720883,-0.011626803183467767,-0.09192328115769312,-0.002738670677027012
0.0023276,0.13779115997281344,0.01871301833857438,0.09736944431974162,0.016227255820151585,0.104092853826741,-0.011031040650670853,-0.08935486028180512,-0.002453450990032818
0.0027931,0.13926215044221368,0.018908787547801197,0.0980390706464154,0.01622571987593492,0.1049030268094276,-0.010434562387215482,-0.08679703553290129,-0.0021684753650399137
0.0032586,0.1407283965258997,0.019104947290963008,0.09870555927318739,0.016224433009643845,0.10570935953371158,-0.009837432791856091,-0.08425016443159569,-0.0018837802578119608
0.0037241,0.1421895992218488,0.01930146080130058,0.09936879123481611,0.016223402275975886,0.10651168560517903,-0.009239716363051657,-0.08171460157762943,-0.001599402042997474
0.0041897,0.14364545920006203,0.019498290937767174,0.10002864813594249,0.0162226348143346,0.10730983887411177,-0.008641477682733089,-0.07919069853677914,-0.001315377003224579
0.0046552,0.1450956768923303,0.01969540019320154,0.1006850121930169,0.01622213784893051,0.10810365348832227,-0.008042781400130346,-0.07667880372932609,-0.0010317413182744524
0.0051207,0.14653995258266017,0.019892750702707355,0.10133776627616362,0.01622191868886754,0.10889296394612259,-0.007443692215666957,-0.07417926232015756,-0.0007485310543406033
0.0055862,0.14797798649832136,0.020090304252237855,0.10198679395095588,0.01622198472821426,0.1096776051493991,-0.006844274864929476,-0.07169241611057019,-0.0004657821533806869
0.0060517,0.14940947890147746,0.0202880222873842,0.10263197952007377,0.016222343446059283,0.11045741245676391,-0.006244594102719233,-0.0692186034318416,-0.00018353042256706099
0.0065172,0.15083413018136047,0.02048586592236602,0.10327320806481682,0.016223002406550037,0.11123222173675418,-0.005644714687193582,-0.06675815904063338,9.818847615817763e-05
0.0069828,0.15225164094694837,0.020683795949222327,0.10391036548644231,0.01622396925891413,0.11200186942104955,-0.005044701364103621,-0.06431141401628515,0.0003793390364183932
0.0074483,0.15366171212010474,0.020881772847200896,0.1045433385472994,0.0162252517374625,0.11276619255767893,-0.004444618851135059,-0.06187869566005665,0.0006598859176230303
0.0079138,0.15506404502913743,0.02107975679234401,0.10517201491172837,0.01622685766157342,0.11352502886418721,-0.0038445318223584955,-0.05946032739637241,0.000939793955069299
0.0083793,0.15645834150273347,0.02127770766726832,0.10579628318669372,0.016228794935656463,0.114278216780733,-0.0032445048927948828,-0.05705662867612023,0.0012190281699209831
0.0088448,0.15784430396422539,0.02147558507113632,0.10641603296211935,0.01623107154909543,0.11502559552308829,-0.0026446026031013577,-0.05466791488205119,0.001497553779060733
0.0093103,0.15922163552614477,0.021673348329816926,0.10703115485089316,0.016233695576169067,0.1157670051355104,-0.002044889404382018,-0.05229449723632395,0.0017753362048124107
0.0097759,0.1605900400850182,0.02187095650623229,0.10764154052850919,0.016236675175948522,0.11650228654345704,-0.0014454296431276326,-0.04993668271023193,0.0020523410845301976
0.0102414,0.16194922241636134,0.022068368410888075,0.10824708277231437,0.01624001859217015,0.11723128160611557,-0.0008462875462877999,-0.04759477393614794,0.0023285342800512766
0.0107069,0.16329888826982666,0.022265542612584153,0.10884767550032858,0.01624373415308246,0.1179538331687176,-0.0002475272064787334,-0.0452690691217184,0.002603881887008979
0.0111724,0.16463874446446086,0.022462437449302614,0.10944321380960592,0.016247830271265713,0.11866978511461104,0.0003507874326703801,-0.04295986196633751,0.0028783502440033553
0.0116379,0.16596849898402746,0.022659011039270024,0.11003359401410627,0.016252315443422753,0.11937898241706084,0.0009485925910296258,-0.040667441579929936,0.0031519059416262336
0.0121034,0.16728786107234947,0.022855221292190732,0.11061871368204496,0.01625719825013946,0.12008127119074985,0.0015458246663364813,-0.03839209240406918,0.0034245158313380166
0.012569,0.16859654132862617,0.023051025920648165,0.11119847167268894,0.01626248735561324,0.12077649874295152,0.0021424202484171726,-0.03613409413545617,0.0036961470341936894
0.0130345,0.16989425180267703,0.023246382451670933,0.11177276817256648,0.01626819150734776,0.12146451362434682,0.0027383161332587332,-0.033893721651779694,0.003966766949415762
0.0135,0.17118070609006444,0.023441248238460534,0.11234150473105775,0.016274319535812074,0.12214516567945996,0.003333449336929374,-0.03167124493997654,0.004236343262812112
0.0139655,0.17245561942704699,0.02363558047227747,0.11290458429533298,0.01628088035406211,0.12281830609668977,0.003927757109344964,-0.029466929026906126,0.004504843955036858
0.014431,0.17371870878531412,0.023829336194482697,0.11346191124460651,0.016287882957322454,0.12348378745791624,0.004521176947879638,-0.02728103391245034,0.004772237309692572
0.0148966,0.17496969296645395,0.02402247230873122,0.11401339142367584,0.016295336422526247,0.12414146378766323,0.005113646610818818,-0.02511381450504665,0.0050384919212723
0.0153621,0.17620829269610586,0.024214945593314743,0.11455893217571746,0.016303249907810992,0.12479119060179936,0.005705104130653157,-0.02296552055965954,0.005303576702939968
0.0158276,0.17743423071775172,0.024406712713650133,0.11509844237431237,0.016311632651968094,0.12543282495575853,0.006295487827212098,-0.020836396618193267,0.00556746089414788
0.0162931,0.17864723188610043,0.024597730234910607,0.11563183245467634,0.01632049397384399,0.1260662254922616,0.0068847363206358805,-0.01872668195234726,0.005830114068090086
0.0167586,0.1798470232600226,0.024787954634796234,0.11615901444407052,0.016329843271690778,0.1266912524885191,0.007472788544184918,-0.016636610508914546,0.006091506138990557
0.0172241,0.18103333419499407,0.024977342316440224,0.11667990199136981,0.01633969002246435,0.12730776790289539,0.008059583756885568,-0.014566410857522746,0.006351607369225163
0.0176897,0.18220589643500934,0.0251658496214474,0.11719441039576704,0.016350043781068056,0.12791563542101347,0.008645061556011384,-0.012516306140816981,0.006610388376276589
0.0181552,0.1833644442039269,0.02535343284306097,0.11770245663459307,0.016360914179540005,0.12851472050127927,0.009229161889399064,-0.010486514027083596,0.006867820139521457
0.0186207,0.1845087142962099,0.02554004823945348,0.11820395939023402,0.016372310926182194,0.12910489041980497,0.009811825067598444,-0.008477246665313293,0.007123874006849037
0.0190862,0.1856384461670258,0.025725652047137743,0.11869883907612964,0.01638424380462965,0.1296860143147113,0.010392991775855936,-0.006488710642701828,0.0073785217011110345
0.0195517,0.1867533820216683,0.025910200494493094,0.11918701786183805,0.016396722672857956,0.13025796322978905,0.01097260308593092,-0.004521106944586084,0.00763173532640211
0.0200172,0.1878532669042655,0.026093649815402464,0.11966841969715436,0.016409757462127555,0.13082061015750188,0.011550600467744586,-0.0025746309168129884,0.007883487374170904
0.0204828,0.18893784878573586,0.0262759562629952,0.12014297033527187,0.01642335817586339,0.1313738300813118,0.012126925800860751,-0.0006494722305385195,0.008133750729161452
0.0209483,0.19000687865095553,0.02645707612349052,0.12061059735497522,0.01643753488846854,0.13191750001731037,0.012701521385798139,0.0012541851505462299,0.008382498675184888
0.0214138,0.19106011058510008,0.02663696573013621,0.12107123018185556,0.01645229774407067,0.1324514990551378,0.013274329955173643,0.0031361630005653086,0.008629704900721374
0.0218793,0.19209730185912505,0.02681558147723708,0.12152480010853742,0.016467656955200166,0.13297570839817208,0.013845294684676131,0.004996288859388454,0.008875343504352186
0.0223448,0.193118213014351,0.02699287983426725,0.12197124031390733,0.016483622801398947,0.13349001140297068,0.014414359203870448,0.0068343960581468,0.009119389000021908
0.0228103,0.19412260794612166,0.027168817360060316,0.12241048588133326,0.01650020562775909,0.1339942936179473,0.014981467606831406,0.00865032374233982,0.009361816322130768
0.0232759,0.19511025398650417,0.027343350717071207,0.12284247381586345,0.016517415843390445,0.13448844282126662,0.015546564462607633,0.010443916892541018,0.009602600830457175
0.0237414,0.19608092198600294,0.027516436685703315,0.12326714306039288,0.0165352639198165,0.13497234905794123,0.016109594825515213,0.012215026342711236,0.009841718314910616
0.0242069,0.19703438639425966,0.02768803217869448,0.12368443451078447,0.01655376038929793,0.13544590467611414,0.016670504245261168,0.013963508796129646,0.010079145000115107
0.0246724,0.19797042533971407,0.027858094255555247,0.12409429102993334,0.016572915843083232,0.1359090043625115,0.01722923877689674,0.015689226838953352,0.01031485754982338
0.0251379,0.19888882070820132,0.028026580137052635,0.12449665746076213,0.01659274092958608,0.13636154517704943,0.017785744990600406,0.017392048951417178,0.010548833071162047
0.0256034,0.19978935822046182,0.028193447219732586,0.12489148063813635,0.016613246352489106,0.13680342658657968,0.01833996998129051,0.019071849516685932,0.010781049118707997
0.026069,0.20067182750854107,0.028358653090474042,0.1252787093996903,0.01663444286877394,0.1372345504977583,0.018891861378067212,0.020728508827372275,0.011011483698396253
0.0265345,0.20153602219105674,0.028522155541067462,0.12565829459555514,0.01665634128667756,0.13765482128902154,0.019441367353483487,0.022361913089734935,0.011240115271259718
0.027,0.20238173994731024,0.028683912582810223,0.12603018909698183,0.016678952463575064,0.13806414584165452,0.019988436632644536,0.02397195442557449,0.011466922757001312
0.0274655,0.2032087825902201,0.028843882461111213,0.12639434780385447,0.016702287303789205,0.13846243356993776,0.020533018502135077,0.025558530871847274,0.011691885537399183
0.027931,0.20401695613805293,0.029002023670096716,0.1267507276510903,0.016726356756327,0.13884959645035788,0.02107506281877375,0.027121546378021968,0.011914983459545806
0.0283966,0.204806070884927,0.029158294967209394,0.12709928761392617,0.01675117181254402,0.13922554904986917,0.021614520018193785,0.02866091080120709,0.012136196838921764
0.0288621,0.20557594147006247,0.029312655387792118,0.12743998871209267,0.01677674350373692,0.13959020855319418,0.022151341123249145,0.030176539899080902,0.01235550646230504
0.0293276,0.20632638694575023,0.029465064259648115,0.1277727940128802,0.01680308289866488,0.13994349478915205,0.022685477752245248,0.03166835532065699,0.012572893590516568
0.0297931,0.2070572308440102,0.029615481217568743,0.12809766863310365,0.016830201101000645,0.1402853302560046,0.0232168821269933,0.033136284594920254,0.01278833996100276
0.0302586,0.20776830124190945,0.02976386621782013,0.1284145797399753,0.01685810924671192,0.14061564014581046,0.023745507080687314,0.03458026111736829,0.013001827790255667
0.0307241,0.20845943082550714,0.029910179552579536,0.12872349655089702,0.01688681850137379,0.14093435236777813,0.024271306065602617,0.03600022413449354,0.013213339776071307
0.0311897,0.20913045695239527,0.030054381864312408,0.12902439033218635,0.016916340057412868,0.141241397570608,0.024794233160614666,0.03739611872624172,0.013422859099646767
0.0316552,0.20978122171280048,0.03019643416008067,0.12931723439675247,0.016946685131283782,0.1415367091638135,0.025314243078536816,0.038767895786482126,0.013630369427516548
0.0321207,0.2104115719892126,0.030336297825772705,0.12960200410074038,0.016977864960578494,0.14182022333801053,0.025831291173275654,0.04011551200152519,0.01383585491332861
0.0325862,0.21102135951450401,0.030473934640245285,0.12987867683916318,0.017009890801068867,0.14209187908416374,0.02634533344680247,0.04143892982672278,0.014039300199460623
0.0330517,0.21161044092850226,0.03060930678936746,0.13014723204054426,0.017042773923682804,0.14235161821177741,0.026856326555939544,0.04273811746118666,0.014240690418476946
0.0335172,0.21217867783297759,0.030742376879956353,0.13040765116059266,0.01707652561141423,0.1425993853660185,0.02736422781895973,0.044013048820660476,0.014440011194426856
0.0339828,0.21272593684500576,0.03087310795359436,0.13065991767493584,0.017111157156167126,0.14283512804375925,0.027868995221997945,0.04526370350858063,0.014637248643984514
0.0344483,0.2132520896486649,0.031001463500317145,0.13090401707093538,0.017146679855533736,0.14305879660852897,0.02837058742527308,0.04649006678536123,0.014832389377431135
0.0349138,0.2137570130450237,0.03112740747216156,0.13113993683861164,0.01718310500950713,0.14327034430436505,0.028868963769118763,0.047692129535938294,0.015025420499479691
0.0353793,0.2142405890003772,0.031250904296562375,0.13136766646070386,0.017220443917128236,0.1434697272685559,0.029364084279821248,0.0488698882356081,0.015216329609942444
0.0358448,0.21470270469268612,0.03137191888958675,0.13158719740189173,0.017258707873067502,0.1436569045432698,0.029855909675262655,0.0500233449141945,0.015405104804241452
0.0363103,0.21514325255617528,0.031490416668995214,0.13179852309720455,0.01729790816414134,0.14383183808606603,0.03034440137036763,0.051152507118579556,0.01559173467376217
0.0367759,0.2155621303240479,0.03160636356711802,0.13200163893964353,0.017338056065763607,0.14399449277928533,0.030829521482351418,0.0522573878736316,0.01577620830605016
0.0372414,0.2159592410692723,0.031719726043536185,0.1321965422670417,0.017379162838332324,0.14414483643831888,0.03131123283576726,0.05333800564156453,0.015958515284850885
0.0377069,0.21633449324340046,0.03183047109755696,0.132383232348185,0.017421239723551946,0.14428283981875567,0.0317894989673508,0.05439438427976182,0.01613864568999251
0.0381724,0.2166878007133794,0.031938566280474014,0.13256171036821757,0.017464297940691504,0.14440847662240866,0.0322642841306591,0.05542655299709827,0.016316590097111568
0.0386379,0.2170190827963188,0.03204397970760369,0.13273197941335277,0.017508348682778917,0.1445217235022204,0.03273555330050171,0.05643454630879265,0.0164923395772212
0.0391034,0.21732826429217925,0.03214668007008902,0.13289404445491154,0.01755340311273184,0.14462256006604873,0.03320327217716094,0.05741840398982403,0.016665885696121676
0.039569,0.21761527551434862,0.032246636646463746,0.13304791233270857,0.01759947235942535,0.14471096887933213,0.03366740719039824,0.058378171026944314,0.016837220513652787
0.0400345,0.21788005231807542,0.032343819313968916,0.13319359173780718,0.01764656751369675,0.14478693546663446,0.03412792550324364,0.05931389756932014,0.017006336582787586
0.0405,0.21812253612673008,0.03243819855961544,0.1333310931946629,0.01769469962428784,0.1448504483120699,0.03458479501556497,0.06022563887783663,0.01717322694856704
0.0409655,0.21834267395586884,0.03252974549098654,0.1334604290426758,0.017743879693724825,0.14490149885860906,0.03503798436741412,0.06111345527309644,0.017337885146874964
0.041431,0.2185404184350792,0.032618431846775355,0.13358161341717126,0.01779411867413612,0.14494008150627136,0.03548746294214754,0.061977412082147465,0.017500305203052572
0.0418966,0.21871572782759188,0.03270423000705388,0.13369466222982931,0.01784542746300821,0.14496619360921006,0.03593320086931879,0.06281757958397315,0.01766048163035198
0.0423621,0.21886856604764898,0.03278711300327073,0.13379959314858172,0.017897816898879655,0.14497983547169993,0.03637516902734165,0.06363403295377972,0.017818409428227888
0.0428276,0.21899890267562033,0.032867054527976065,0.13389642557699685,0.017951297756973468,0.144981010343039,0.03681333904592251,0.06442685220611524,0.01797408408046655
0.0432931,0.21910671297086232,0.03294402894427266,0.1339851806331711,0.018005880744768006,0.1449697244113785,0.03724768330826148,0.06519612213685584,0.01812750155315118
0.0437586,0.2191919778823127,0.03301801129499261,0.13406588112814646,0.018061576497506695,0.14494598679649368,0.03767817495302182,0.06594193226409455,0.01827865829246271
0.0442241,0.21925468405681528,0.03308897731159926,0.13413855154387302,0.018118395573646917,0.1449098095415093,0.03810478787606751,0.06666437676796877,0.018427551222315024
0.0446897,0.21929482384516605,0.03315690342281418,0.1342032180107356,0.018176348450248684,0.1448612076035929,0.038527496731969,0.06736355442946226,0.018574177741823468
0.0451552,0.21931239530587213,0.03322176676296912,0.13425990828466342,0.018235445518303816,0.14480019884362763,0.038946276935276865,0.06803956856821741,0.018718535722605723
0.0456207,0.21930740220661335,0.033283545180083536,0.13430865172384227,0.018295697078006663,0.14472680401487661,0.039361104661563055,0.06869252697939372,0.01886062350591407
0.0460862,0.21927985402339534,0.033342217243668974,0.13434947926504878,0.01835711333396769,0.14464104675064893,0.03977195684822925,0.06932254186960807,0.019000439899598334
0.0465517,0.21922976593738255,0.03339776225226185,0.13438242339962692,0.018419704390371494,0.14454295355097832,0.04017881119508156,0.06992972979199193,0.01913798417489921
0.0470172,0.21915715882939843,0.03345016024068715,0.1344075181491272,0.018483480246081117,0.14443255376832484,0.04058164616467063,0.07051421158040064,0.019273256063072005
0.0474828,0.21906205927208008,0.03349939198705567,0.13442479904063004,0.01854845078969093,0.14430987959231026,0.0409804409823962,0.07107611228280945,0.019406255751841437
0.0479483,0.21894449951967493,0.03354543901949743,0.13443430308177504,0.018614625794530423,0.1441749660334989,0.041375175636375,0.07161556109393069,0.019536983881688612
0.0484138,0.2188045174954714,0.03358828362263413,0.13443606873551803,0.018682014913621623,0.14402785090623652,0.04176583087707152,0.07213269128708644,0.019665441541971706
0.0488793,0.21864215677686177,0.0336279088437933,0.13443013589463945,0.01875062767459291,0.14386857481056092,0.04215238821669141,0.07262764014537015,0.01979163026688222
0.0493448,0.2184574665780444,0.033664298498967064,0.1344165458560268,0.018820473474552266,0.14369718111320046,0.04253482992833827,0.07310054889213091,0.019915552031238702
0.0498103,0.21825050173038227,0.033697437178518905,0.13439534129475458,0.018891561574923072,0.1435137159276767,0.042913139044935496,0.07355156262081325,0.020037209246120076
0.0502759,0.21802132266044177,0.03372731025264221,0.13436656623798549,0.018963901096245735,0.14331822809352976,0.04328729935791525,0.07398083022418508,0.02015660475434071
0.0507414,0.21776999536574043,0.03375390387657496,0.1343302660387165,0.019037501012948516,0.14311076915468543,0.043657295415677706,0.07438850432298598,0.020273741825769603
0.0512069,0.2174965913882333,0.033777204995575134,0.13428648734939372,0.01911237014809095,0.1428913933369853,0.04402311252182379,0.07477474119402713,0.020388624152496232
0.0516724,0.21720118778556913,0.033797201349661486,0.13423527809541952,0.01918851716808333,0.1426601575249012,0.044384736733164766,0.07513970069777434,0.02050125584384582
0.0521379,0.2168838671001458,0.03381388147812431,0.13417668744857547,0.01926595057738561,0.14241712123745626,0.04474215485751217,0.07548354620544478,0.020611641421246933
0.0526034,0.2165447173259938,0.033827234723810676,0.1341107658003846,0.019344678713189088,0.14216234660337532,0.0450953544512514,0.07580644452564801,0.020719785812954493
0.053069,0.21618383187351553,0.03383725123718848,0.13403756473543574,0.019424709740084093,0.14189589833548577,0.045444323816702104,0.0761085658306018,0.020825694348631317
0.0535345,0.21580130953210663,0.033843921980193294,0.13395713700469278,0.019506051644716787,0.14161784370439043,0.045789051999268374,0.07639008358195304,0.020929372753791486
0.054,0.21539725443068536,0.03384723872986222,0.13386953649881078,0.01958871223043811,0.14132825251143247,0.046129528784381486,0.07665117445623407,0.021030827144108644
0.0544655,0.21497177599615344,0.03384719408175857,0.13377481822148,0.019672699111947665,0.1410271970609727,0.046465744694237664,0.07689201826998493,0.021130064019592543
0.054931,0.21452498890981256,0.03384378145319097,0.1336730382628179,0.019758019709935355,0.1407147521319978,0.04679769098433299,0.07711279790457218,0.021227090258637237
0.0553966,0.2140570130617599,0.03383699508623046,0.1335642537728286,0.01984468124572349,0.1403909949490781,0.047125359639797554,0.077313699230735,0.021321913111944566
0.0558621,0.21356797350328677,0.03382683005052892,0.13344852293494788,0.01993269073591199,0.14005600515269295,0.04744874337153067,0.0774949110328895,0.02141454019632696
0.0563276,0.21305800039730557,0.033813282245941774,0.1333259049396915,0.020022054987029407,0.1397098647689406,0.047767835612139174,0.0776566249332218,0.021504979488393982
0.0567931,0.21252722896683018,0.03379634840495819,0.13319645995842316,0.02011278059019231,0.13935265817864936,0.04808263051168095,0.07779903531560062,0.021593239318127122
0.0572586,0.21197579944153666,0.033776026094941486,0.1330602491172581,0.020204873915775738,0.13898447208590642,0.04839312293321621,0.07792233924933939,0.02167932836234762
0.0577241,0.2114038570024327,0.03375231372018272,0.13291733447111603,0.020298341108097362,0.13860539548602047,0.0486993084481694,0.07802673641283757,0.02176325563808207
0.0581897,0.21081155172466354,0.03372521052377022,0.13276777897793804,0.02039318808011793,0.13821551963293432,0.04900118333150457,0.07811242901713028,0.02184503049583065
0.0586552,0.2101990385184868,0.0336947165892779,0.13261164647307946,0.020489420508160706,0.13781493800610348,0.049298744556716984,0.07817962172937479,0.021924662612742955
0.0591207,0.20956647706844778,0.03366083284227509,0.13244900164389076,0.020587043826652572,0.13740374627685611,0.04959198979064411,0.07822852159630189,0.022002161985706547
0.0595862,0.2089140317707904,0.033623561051660894,0.13227991000449754,0.02068606322288954,0.13698204227424904,0.04988091738809925,0.0782593379676597,0.022077538924353567
0.0600517,0.20824187166914077,0.0335829038308257,0.13210443787079043,0.020786483631829476,0.13654992595043347,0.050165526386331344,0.07827228241967692,0.02215080404399075
0.0605172,0.20755017038850201,0.03353886463864278,0.13192265233563436,0.02088830973091492,0.13610749934554345,0.05044581649931507,0.07826756867857204,0.022221968258458433
0.0609828,0.20683910606760317,0.033491447780292775,0.13173462124430652,0.020991545934929,0.13565486655211936,0.05072178811187582,0.07824541254413449,0.022291042772924
0.0614483,0.20610886128964598,0.03344065840792369,0.1315404131701717,0.02109619639088742,0.13519213367907815,0.05099344227365438,0.07820603181340302,0.022358039076615238
0.0619138,0.20535962301149682,0.03338650252114932,0.1313400973906032,0.02120226497296963,0.13471940881524205,0.05126078069291619,0.07814964620446688,0.02242296893549895
0.0623793,0.20459158249137202,0.033328986967388494,0.13113374386315696,0.021309755277492196,0.1342368019924384,0.05152380573020993,0.0780764772804137,0.022485844384910074
0.0628448,0.20380493521506818,0.03326811944204798,0.13092142320200603,0.021418670617927522,0.13374442514818227,0.05178252039188021,0.07798674837344875,0.022546677722136477
0.0633103,0.20299988082078949,0.03320390848855123,0.13070320665464183,0.021529014019971114,0.1332423920879551,0.05203692832343911,0.07788068450920876,0.02260548149896462
0.0637759,0.20217662302262626,0.03313636349821547,0.13047916607884766,0.021640788216660645,0.1327308184470913,0.05228703380280129,0.07775851233129363,0.022662268514191303
0.0642414,0.2013353695327395,0.03306549470997932,0.13024937391994987,0.021753995643550256,0.13220982165228531,0.05253284173338691,0.07762046002603866,0.022717051806106756
0.0647069,0.20047633198230747,0.032991313209983136,0.13001390318835035,0.021868638433943773,0.13167952088273085,0.05277435763709694,0.07746675724754981,0.022769844644954535
0.0651724,0.1995997258412906,0.03291383093100399,0.12977282743734372,0.021984718414190516,0.13114003703090482,0.05301158764716454,0.07729763504302378,0.022820660525373664
0.0656379,0.1987057703370716,0.03283306065174712,0.12952622074122122,0.022102237099047677,0.1305914926630077,0.05324453850088639,0.07711332577837411,0.022869513158828524
0.0661034,0.19779468837202727,0.03274901599599564,0.12927415767366277,0.022221195687113077,0.13003401197907313,0.05347321753223727,0.07691406306418432,0.02291641646603205
0.066569,0.19686670644008852,0.03266171143162005,0.129016713286417,0.022341595056332157,0.12946772077275942,0.053697632664371185,0.07670008168200802,0.022961384569367773
0.0670345,0.19592205454234415,0.03257116226944905,0.1287539630882685,0.022463435759582994,0.1288927463908372,0.05391779240201202,0.07647161751103568,0.02300443178531593
0.0675,0.19496096610174304,0.03247738466200305,0.12848598302429018,0.02258671802034299,0.1283092176923879,0.05413370582373698,0.07622890745514707,0.023045572616889016
0.0679655,0.1939836778769488,0.03238039560209177,0.1282128494553782,0.02271144172844061,0.12771726500772865,0.05434538257415608,0.07597218937036813,0.02308482174608181
0.068431,0.19299042987539825,0.03228021292127715,0.12793463913806555,0.022837606435895587,0.1271170200970801,0.05455283285599125,0.07570170199275003,0.023122194026340928
0.0688966,0.19198146526561513,0.03217685528820277,0.12765142920461017,0.02296521135285071,0.12650861610899428,0.05475606742205917,0.0754176848666885,0.02315770447505884
0.0693621,0.19095703028882838,0.03207034220679103,0.12736329714335243,0.023094255343598328,0.1258921875385597,0.05495509756716207,0.07512037827370091,0.023191368266097072
0.0698276,0.18991737416994242,0.031960694014308934,0.12707032077933594,0.02322473692270465,0.12526787018540134,0.05514993511989064,0.07481002316167844,0.023223200722343195
0.0702931,0.18886274902790628,0.031847931879303494,0.12677257825518515,0.023356654251235,0.12463580111149333,0.055340592434343215,0.07448686107463011,0.023253217308306127
0.0707586,0.18779340978552747,0.03173207779940758,0.12647014801223222,0.02349000513308329,0.12399611859880216,0.055527082381765076,0.07415113408293525,0.023281433622753932
0.0712241,0.18670961407877537,0.03161315459901693,0.12616310877188544,0.023624787011409066,0.12334896210677715,0.05570941834211202,0.07380308471412024,0.02330786539139834
0.0716897,0.18561162216561802,0.03149118592683908,0.12585153951722983,0.02376099696518542,0.1226944722297058,0.05588761419554183,0.07344295588417503,0.023332528459629923
0.0721552,0.18449969683443587,0.03136619625331471,0.1255355194748508,0.02389863170586111,0.12203279065395045,0.05606168431383762,0.07307099082942452,0.023355438785307766
0.0726207,0.1833741033120553,0.031238210867911936,0.12521512809687046,0.02403768757414012,0.12136406011508262,0.05623164355176688,0.07268743303896924,0.02337661243160737
0.0730862,0.18223510917144417,0.03110725587629398,0.12489044504318526,0.02417816053688183,0.12068842435493023,0.056397507238379406,0.07229252618770955,0.023396065559930283
0.0735517,0.18108298423911035,0.030973358197360315,0.1245615501638937,0.024320046184124852,0.12000602807855314,0.05655929116824781,0.07188651406996657,0.02341381442287884
0.0740172,0.1799180005022447,0.03083654556016147,0.12422852348190108,0.024463339726237487,0.11931701691116055,0.0567170115926537,0.07146964053371287,0.023429875357299262
0.0744828,0.1787404320156482,0.03069684650068723,0.12389144517568856,0.024608035991197746,0.11862153735498385,0.05687068521072289,0.07104214941542522,0.023444264777396112
0.0749483,0.17755055480848225,0.030554290358527855,0.12355039556223203,0.024754129422005517,0.11791973674611725,0.05702032916051324,0.07060428447557118,0.023456999167920906
0.0754138,0.176348646790881,0.03040890727340773,0.12320545508005594,0.024901614074229625,0.11721176321133807,0.05716596101005892,0.07015628933474086,0.02346809507743748
0.0758793,0.17513498766046226,0.030260728181590608,0.12285670427240654,0.025050483613692203,0.11649776562491806,0.05730759874837445,0.06969840741043515,0.02347756911166662
0.0763448,0.17390985880877358,0.03010978481215533,0.1225042237705281,0.025200731314292752,0.11577789356543707,0.05744526077642262,0.06923088185452139,0.023485437926912166
0.0768103,0.17267354322770812,0.029956109683140737,0.12214809427702553,0.02535235005597402,0.11505229727260959,0.05757896589804976,0.06875395549136726,0.023491718223570754
0.0772759,0.17142632541592354,0.029799736097558253,0.12178839654929695,0.02550533232283177,0.11432112760413533,0.05770873331089247,0.06826787075666321,0.023496426739727138
0.0777414,0.1701684912852968,0.029640698139270467,0.12142521138301927,0.025659670201370135,0.11358453599258446,0.057834582597259765,0.06777286963694364,0.023499580244837052
0.0782069,0.16890032806744573,0.029479030668733898,0.12105861959567055,0.025815355378904392,0.11284267440232822,0.0579565337149948,0.06726919360981677,0.023501195533499285
0.0786724,0.1676221242203484,0.02931476931860399,0.1206887020100734,0.02597237914211257,0.1120956952865262,0.058074606988319906,0.0667570835849135,0.023501289419318724
0.0791379,0.16633416933508963,0.02914795048920022,0.1203155394379446,0.026130732375737434,0.11134375154418152,0.058188823098668796,0.06623677984556496,0.02349987872886189
0.0796034,0.16503675404276563,0.028978611343828946,0.11993921266343721,0.026290405561440224,0.11058699647727535,0.05829920307550911,0.06570852199121888,0.023496980295706692
0.080069,0.16373016992157538,0.028806789803961765,0.11955980242666371,0.02645138877680744,0.10982558374799241,0.05840576828715851,0.06517254888060463,0.023492610954588093
0.0805345,0.16241470940412867,0.02863252454426675,0.11917738940719044,0.026613671694512103,0.10905966733604931,0.05850854043159733,0.0646290985756568,0.023486787535641537
0.081,0.1610906656850003,0.028455854987489912,0.11879205420749583,0.02677724358163088,0.10828940149613754,0.05860754152728031,0.06407840828620663,0.023479526858746134
0.0814655,0.15975833262855976,0.028276821299184112,0.11840387733638734,0.026942093299118727,0.10751494071549325,0.05870279390395009,0.06352071431545092,0.023470845727969508
0.081931,0.15841800467710582,0.02809546438228255,0.11801293919237382,0.027108209301442615,0.10673643967160618,0.05879432019345493,0.0629562520062076,0.023460760926116212
0.0823966,0.157069976759336,0.027911825871513786,0.11761932004699203,0.027275579636376075,0.10595405319008,0.058882143320572934,0.06238525568796693,0.023449289209381562
0.0828621,0.15571454419918154,0.027725948127655303,0.11722310002808743,0.027444191944956214,0.10516793620265673,0.0589662864938451,0.06180795862474738,0.023436447302112716
0.0833276,0.15435200262503826,0.027537874231622555,0.11682435910305027,0.027614033461604976,0.10437824370541797,0.059046773196419454,0.06122459296376469,0.023422251891678802
0.0837931,0.15298264787942545,0.02734764797839045,0.11642317706200932,0.027785091014416244,0.1035851307171759,0.05912362717690835,0.06063538968492256,0.023406719623451935
0.0842586,0.15160677592910426,0.02715531387074427,0.11601963350098547,0.027957351025610536,0.10278875223806663,0.059196872440261075,0.06004057855113326,0.023389867095900713
0.0847241,0.15022468277568826,0.02696091711285696,0.11561380780500807,0.02813079951215884,0.1019892632083586,0.05926653323865365,0.05944038805947568,0.02337171085579786
0.0851897,0.14883666436677864,0.026764503603689854,0.11520577913119585,0.028305422086577103,0.10118681846748838,0.05933263406239742,0.05883504539319867,0.0233522673935435
0.0856552,0.14744301650765707,0.026566119930213832,0.11479562639180478,0.02848120395789276,0.1003815727133356,0.059395199630868346,0.058224776374577035,0.023331553138605274
0.0861207,0.1460440347735692,0.026365813360448156,0.11438342823724405,0.028658129932784507,0.09957368046174916,0.059454254883458235,0.05760980541862736,0.023309584455076596
0.0865862,0.14464001442263136,0.026163631836314004,0.11396926303906191,0.0288361844168964,0.09876329600633595,0.05950982497054938,0.05699035548769064,0.023286377637354125
0.0870517,0.14323125030939252,0.025959623966299954,0.1135532088729018,0.029015351416327217,0.09795057337852348,0.059561935244513774,0.05636664804688793,0.02326194890593544
0.0875172,0.14181803679908397,0.025753839017936712,0.11313534350142992,0.029195614539295738,0.09713566630790813,0.05961061125073806,0.05573890302045539,0.023236314403337698
0.0879828,0.14040066768258735,0.025546326910078576,0.11271574435723519,0.029376956997982394,0.09631872818289998,0.05965587871867545,0.05510733874896427,0.02320949019013822
0.0884483,0.13897943609215174,0.02533713820498933,0.1122944885257034,0.02955936161054747,0.09549991201167585,0.059697763552925956,0.054472171947431224,0.02318149224113786
0.0889138,0.13755463441788926,0.025126324100230437,0.1118716527278688,0.029742810803325866,0.09467937038345166,0.059736291824346886,0.05383361766432364,0.023152336441647978
0.0893793,0.13612655422507802,0.024913936420350048,0.11144731330324682,0.029927286613198253,0.09385725543008518,0.05977148976119529,0.05319188924146439,0.023122038583901963
0.0898448,0.13469548617229943,0.0247000276083715,0.11102154619265359,0.030112770690138076,0.0930337187880195,0.059803383740304784,0.05254719827484,0.023090614363592075
0.0903103,0.13326171993043665,0.02448465071708049,0.11059442692101949,0.030299244299933796,0.09220891156057746,0.05983200027829891,0.051899754576315606,0.02305807937653231
0.0907759,0.13182554410255923,0.02426785940011041,0.1101660305802056,0.030486688327085492,0.09138298428061639,0.05985736602284386,0.051249766136259894,0.02302444911544794
0.0912414,0.1303872461447181,0.02404970790282549,0.10973643181183317,0.03067508327787464,0.09055608687355203,0.05987950774394315,0.050597439087082606,0.0229897389668922
0.0917069,0.1289471122876743,0.0238302510530015,0.10930570479013811,0.030864409283605777,0.08972836862076043,0.059898452325277275,0.04994297766768695,0.022953964208290645
0.0921724,0.1275054274595832,0.023609544251303845,0.108873923204863,0.03105464610401855,0.08889997812336624,0.0599142267555915,0.04928658418883896,0.02291714000511336
0.0926379,0.12606247520965613,0.02338764346156314,0.10844116024419938,0.03124577313086859,0.08807106326642573,0.059926858120134936,0.048628458999455344,0.022879281408175373
0.0931034,0.12461853763281956,0.02316460520084841,0.10800748857779373,0.03143776939167543,0.08724177118351294,0.05993637359215395,0.04796880045381103,0.022840403351065314
0.093569,0.12317389529539206,0.022940486529338788,0.1075729803398293,0.03163061355363568,0.08641224822171763,0.0599428004244429,0.04730780487966732,0.022800520647702344
0.0940345,0.12172882716179832,0.02271534503999515,0.10713770711219614,0.03182428392769972,0.08558263990706363,0.05994616594095491,0.046645666547321246,0.02275964799002116
0.0945,0.12028361052233912,0.022489238848033624,0.10670173990776094,0.03201875847280994,0.08475309091035627,0.05994649752847514,0.04598257763957633,0.022717799945784704
0.0949655,0.11883852092203531,0.022262226580203735,0.10626514915374796,0.03221401480029864,0.08392374501346754,0.05994382262835908,0.0453187282226346,0.022674990956524005
0.095431,0.11739383209056355,0.02203436736387449,0.10582800467524232,0.032410030178443565,0.08309474507606819,0.059938168728337654,0.04465430621790925,0.022631235335604422
0.0958966,0.1159498158733011,0.021805720815932243,0.10539037567882643,0.03260678153717903,0.08226623300281498,0.059929563354391084,0.04398949737475719,0.022586547266417626
0.0963621,0.11450674216349614,0.021576347031494303,0.10495233073636077,0.03280424547296043,0.08143834971100222,0.05991803406269286,0.04332448524413015,0.022540940800698357
0.0968276,0.1130648788355797,0.021346306572442648,0.10451393776891979,0.03300239825377971,0.0806112350986858,0.05990360843162508,0.04265945115314264,0.022494429856964992
0.0972931,0.11162449167963455,0.021115660455781966,0.10407526403089366,0.03320121582432943,0.07978502801328823,0.059886314053866165,0.04199457418055491,0.02244702821908285
0.0977586,0.11018584433703617,0.020884470141826324,0.103636376094267,0.03340067381131269,0.07895986622069323,0.05986617852855137,0.04133003113316859,0.02239874953494915
0.0982241,0.10874919823728012,0.020652797522218574,0.1031973398330854,0.03360074752889601,0.07813588637483776,0.05984322945350643,0.04066599652313245,0.022349607315298222
0.0986897,0.10731481253600954,0.020420704907786816,0.10275822040812116,0.03380141198430217,0.07731322398780996,0.05981749441755449,0.04000264254615542,0.0222996149326255
0.0991552,0.10588294405425562,0.020188255016242097,0.10231908225174946,0.03400264188353957,0.07649201340046106,0.05978900099289587,0.03934013906062377,0.02224878562022867
0.0996207,0.10445384721890388,0.019955510959721735,0.10187998905304715,0.0342044116372646,0.07567238775353935,0.05975777672756059,0.03867865356761906,0.022197132471364376
0.1000862,0.10302777400439801,0.019722536232182508,0.10144100374312592,0.034406695366773245,0.07485447895935418,0.05972384913793345,0.038018351191833145,0.022144668438518568
0.1005517,0.10160497387569227,0.01948939469664805,0.10100218848071252,0.03460946691011798,0.07403841767397766,0.05968724570135237,0.03735939466337666,0.022091406332788586
0.1010172,0.10018569373246317,0.01925615057231476,0.1005636046379886,0.03481269982834608,0.07322433326999157,0.05964799384878067,0.036701944300476734,0.022037358823374938
0.1014828,0.09877017785459045,0.019022868421520626,0.1001253127867028,0.03501636741185507,0.07241235380978671,0.05960612095755525,0.03604615799305983,0.02198253843718052
0.1019483,0.09735866784891654,0.018789613136581323,0.0996873726845678,0.03522044268686115,0.07160260601942132,0.05956165434421269,0.035392191187215406,0.021926957558515175
0.1024138,0.09595140259729316,0.01855644992649843,0.09924984326195418,0.03542489842197613,0.07079521526304534,0.059514621257395386,0.03474019687053574,0.02187062842890319
0.1028793,0.09454861820592364,0.018323444303544708,0.09881278260889322,0.03562970713488842,0.0699903055178961,0.05946504887084045,0.034090325558327327,0.02181356314699172
0.1033448,0.09315054795600813,0.01809066206973182,0.09837624796239988,0.03583484109914322,0.06918799934987149,0.059412964276453546,0.03344272528068881,0.021755773668558027
0.1038103,0.09175742225569894,0.017858169303165985,0.09794029569412714,0.03604027235101685,0.06838841788968572,0.05935839447747012,0.032797541570450374,0.021697271806613624
0.1042759,0.09036946859337242,0.017626032344297226,0.09750498129836123,0.036245972696480014,0.06759168080961299,0.05930136638170628,0.0321549174519693,0.021638069231603406
0.1047414,0.08898691149222347,0.017394317782067893,0.09707035938036833,0.036451913718244196,0.06679790630082362,0.05924190679490179,0.03151499343077628,0.021578177471697886
0.1052069,0.08760997246618787,0.01716309243996607,0.09663648364510166,0.036658066782885565,0.06600721105131728,0.059180042414157794,0.030877907484066745,0.021517607913176636
0.1056724,0.08623886997719735,0.01693242336198956,0.09620340688627768,0.036864403048040194,0.06521971022445704,0.05911579982147235,0.030243795052031425,0.021456371800901035
0.1061379,0.08487381939377173,0.016702377798526073,0.09577118097582968,0.03707089346966445,0.0644355174381083,0.05904920547737715,0.029612789030020018,0.0213944802388745
0.1066034,0.08351503295095165,0.016473023192155156,0.0953398568537456,0.037277508809354015,0.06365474474438577,0.05898028571467978,0.02898501976153169,0.021331944190888612
0.107069,0.08216271971157484,0.016244427163377272,0.09490948451829706,0.03748421964171523,0.06287750261001145,0.058909066732315975,0.028360615032025888,0.021268774481253493
0.1075345,0.08081708552889857,0.016016657496275465,0.09448011301666515,0.03769099636178182,0.06210389989728602,0.05883557458931698,0.027739700063546778,0.021204981795611
0.108,0.07947833301057042,0.015789782124114856,0.09405179043596794,0.0378978091924706,0.061334043845675985,0.0587598351988969,0.02712239751015427,0.021140576681829296
0.1084655,0.07814666148394811,0.015563869114885151,0.09362456389469416,0.03810462819206938,0.060568040054017766,0.05868187432266498,0.02650882745415457,0.021075569550977266
0.108931,0.07682226696276985,0.015338986656791218,0.09319847953454642,0.0383114232617506,0.05980599246334005,0.058601717564967494,0.025899107403122935,0.021009970678377267
0.1093966,0.0755053421151751,0.01511520304369662,0.09277358251269714,0.038518164153104335,0.05904800334030485,0.05851939036736374,0.02529335228771118,0.020943790204734795
0.1098621,0.07419607623307581,0.014892586660524903,0.09234991699445916,0.03872482047568444,0.058294173261267575,0.058434918003240834,0.024691674460232238,0.020877038137343658
0.1103276,0.07289465520287736,0.014671205968623294,0.09192752614637277,0.038931361704561775,0.05754460109695606,0.0583483255725721,0.02409418369401402,0.020809724351365372
0.1107931,0.07160126147754817,0.01445112949109337,0.0915064521297102,0.039137757187878854,0.056799383997768245,0.05825963799682416,0.023500987183514527,0.020741858591181613
0.1112586,0.07031607405003638,0.014232425798093131,0.09108673609439781,0.03934397615440035,0.056058617379687946,0.05816888001401783,0.02291218954519003,0.020673450471818452
0.1117241,0.06903926842803142,0.01401516349211487,0.09066841817335626,0.039549987721053795,0.05532239491081806,0.05807607617394793,0.022327892819108068,0.020604509480441183
0.1121897,0.06777101661006797,0.013799411193243167,0.09025153747725784,0.039755760900455225,0.05459080849852996,0.05798125083356736,0.02174819647129664,0.0205350449779185
0.1126552,0.0665114870629694,0.013585237524397284,0.08983613208970044,0.039961264608414225,0.05386394827722802,0.057884428152540184,0.02117319739682093,0.020465066200454945
0.1131207,0.065260844700627,0.013372711096562243,0.08942223906279732,0.04016646767141324,0.05314190259672755,0.05778563208896844,0.020602989923578674,0.020394582261290643
0.1135862,0.06401925086411116,0.013161900494012795,0.08900989441318115,0.04037133883405584,0.05242475801124424,0.05768488639529742,0.020037665816805196,0.02032360215246732
0.1140517,0.06278686330311013,0.01295287425953446,0.08859913311842137,0.04057584676647865,0.05171259926899301,0.05758221461440378,0.019477314284279002,0.02025213474665981
0.1145172,0.06156383615869139,0.01274570087964578,0.08818998911385278,0.040779960071722014,0.05100550930239404,0.05747764007587123,0.018922021982218696,0.020180188799072192
0.1149828,0.060350319947380424,0.012540448769825813,0.08778249528981397,0.04098364729305428,0.05030356921888321,0.057371185892458404,0.018371873021862,0.0201077729493978
0.1154483,0.05914646154655117,0.012337186259750823,0.0873766834892931,0.04118687692124514,0.049606858292324536,0.0572628749567637,0.017826948976717473,0.020034895723842327
0.1159138,0.05795240418112188,0.012135981578544057,0.08697258450597911,0.04138961740178333,0.04891545395502154,0.05715272993809208,0.017287328890479493,0.019961565537209226
0.1163793,0.056768287411549545,0.011936902840042379,0.08657022808271551,0.04159183714203429,0.048229431790324746,0.05704077327952868,0.016753089285596927,0.019887790695046547
0.1168448,0.0555942471231157,0.01174001802808345,0.08616964291035449,0.041793504518333344,0.04754886552583222,0.05692702719522407,0.01622430417248585,0.019813579395854323
0.1173103,0.054430415516495974,0.011545394981817076,0.08577085662700853,0.04199458788301044,0.046873827027179994,0.05681151366789591,0.015701045059376542,0.019738939733351554
0.1177759,0.053276921099605024,0.011353101381044206,0.08537389581769712,0.0421950555713424,0.046204386292419256,0.05669425444655159,0.015183380962784829,0.019663879698801866
0.1182414,0.05213388868070818,0.011163204731587006,0.08497878601438641,0.04239487590842944,0.04554061144697719,0.05657527104443627,0.01467137841859781,0.0195884071833969
0.1187069,0.05100143936279056,0.010975772350693372,0.08458555169641963,0.04259401721599295,0.044882568739198124,0.05645458473721095,0.014165101493763826,0.019512529980696452
0.1191724,0.049879690539174064,0.010790871352479118,0.08419421629133639,0.042792447819092035,0.044230322536461836,0.056332216561364785,0.013664611798576478,0.019436255789124224
0.1196379,0.04876875589037229,0.010608568633411013,0.08380480217607891,0.04299013605275688,0.043583935321875725,0.056208187312866066,0.013169968499542372,0.019359592214518117
0.1201034,0.04766874538217274,0.010428930857833809,0.08341733067858383,0.0431870502685379,0.04294346769153737,0.05608251754605579,0.012681228332822191,0.01928254677273382
0.120569,0.046579765264935714,0.01025202444354432,0.08303182207975802,0.04338315884097052,0.04230897835236408,0.05595522757278761,0.01219844561823456,0.019205126892300518
0.1210345,0.045501918074098646,0.010077915547415547,0.08264829561583752,0.04357843017395627,0.04168052412048593,0.05582633746181738,0.011721672273812083,0.019127339917127405
0.1215,0.04443530263187463,0.009906670051073778,0.08226676948112836,0.04377283270706135,0.0410581599201987,0.05569586703844513,0.011250957830898826,0.01904919310925968
0.1219655,0.043380014050133475,0.009738353546631552,0.081887260831129,0.043966334921734164,0.04044193878347306,0.05556383588441227,0.010786349449778425,0.018970693651682552
0.122431,0.04233614373445355,0.009573031322479244,0.08150978578603335,0.04415890534744349,0.039831911850016284,0.05543026333805616,0.010327891935821907,0.0188918486511718
0.1228966,0.041303779389332704,0.009410768349137986,0.08113435943461449,0.044350512567739794,0.039228128367882725,0.05529516849472432,0.009875627756144237,0.01881266514118934
0.1233621,0.04028300502454607,0.009251629265176592,0.08076099583848867,0.0445411252262424,0.038630635694629226,0.05515857020744994,0.009429597056758518,0.018733150084822205
0.1238276,0.039273900962638664,0.009095678363195058,0.08038970803675964,0.04473071203255636,0.038039479299011525,0.05502048708789032,0.008989837680216717,0.01865331037776339
0.1242931,0.03827654384754026,0.008942979575877148,0.0800205080510429,0.04491924176812318,0.03745470276321778,0.05488093750752933,0.008556385183725713,0.01857315285133289
0.1247586,0.037291006654289964,0.008793596462114535,0.0796534068908699,0.04510668329201017,0.03687634778563514,0.05473993959914487,0.00812927285772736,0.018492684275537314
0.1252241,0.036317358699857485,0.008647592193204937,0.0792884145594718,0.04529300554664382,0.03630445418414533,0.054597511258542016,0.007708531744931215,0.018411911362166477
0.1256897,0.03535566565504794,0.00850502953912662,0.07892554005994208,0.045478177563492844,0.035739059899945115,0.05445367014655212,0.007294190659788509,0.01833084076792538
0.1261552,0.03440598955747658,0.008365970854891628,0.07856479140177752,0.045662168468706785,0.03518020100188729,0.054308433691297835,0.006886276208395869,0.018249479097599972
0.1266207,0.03346838882559974,0.00823047806698013,0.07820617560779623,0.04584494748871603,0.034627911691337825,0.05416181909072388,0.006484812808817249,0.018167832907255103
0.1270862,0.03254291827378805,0.008098612659858246,0.07784969872143166,0.04602648395579911,0.03408222430754441,0.054013843315392863,0.006089822711812464,0.018085908707462968
0.1275517,0.03162962912842751,0.007970435662581729,0.07749536581440074,0.046206747313623016,0.03354316933351143,0.053864523111545354,0.005701326021960703,0.018003712966560302
0.1280172,0.030728569045034224,0.007846007635487852,0.0771431809947444,0.04638570712276212,0.03301077540237621,0.05371387500442291,0.005319340719167344,0.01792125211393253
0.1284828,0.029839782126367943,0.007725388656977917,0.07679314741523825,0.04656333306620116,0.03248506930428094,0.05356191530185246,0.0049438826805423925,0.017838532543323002
0.1289483,0.028963308941529663,0.007608638310392724,0.07644526728217084,0.046739594954827754,0.031966075993734876,0.05340866009809015,0.004574965702638812,0.01775556061616539
0.1294138,0.02809918654602799,0.007495815670983377,0.07609954186448652,0.04691446273291984,0.0314538185974609,0.053254125277922115,0.004212601524039053,0.017672342664937165
0.1298793,0.02724744850279889,0.007386979292979813,0.07575597150328972,0.047087906483633306,0.030948318422720618,0.05309832652101948,0.003856799848278066,0.017588884996532113
0.1303448,0.026408124904163076,0.00728218719675935,0.07541455562170676,0.04725989643449481,0.030449594966112124,0.05294127930654436,0.0035075683670910433,0.01750519389564962
0.1308103,0.02558124239470508,0.007181496856117529,0.07507529273510097,0.04743040296290442,0.029957665922834463,0.052782998918003546,0.003164912783974167,0.017421275628198465
0.1312759,0.02476682419505783,0.007084965185643494,0.07473818046163595,0.04759939660165272,0.029472547196412756,0.05262350044834639,0.0028288368380466177,0.01733713644471279
0.1317414,0.02396489012657633,0.006992648528202058,0.0744032155331817,0.047766848044456446,0.02899425290887818,0.052462798805303384,0.0024993423282021286,0.01725278258377782
0.1322069,0.023175456636883744,0.006904602642524571,0.07407039380655726,0.047932728151516474,0.028522795411396747,0.052300908716961955,0.0021764291375384287,0.01716822027546293
0.1326724,0.022398536826273144,0.006820882690910668,0.0737397102751031,0.04809700795510168,0.028058185295341057,0.05213784473757627,0.0018600952580530071,0.017083455744759543
0.1331379,0.02163414047494777,0.006741543227042908,0.073411159080576,0.04825965866516189,0.027600431403799162,0.05197362125360755,0.001550336815593764,0.01699849521502129
0.1336034,0.020882274071082726,0.006666638183916285,0.07308473352535874,0.04842065167497242,0.027149540843514848,0.05180825248999141,0.0012471480950532541,0.016913344911403914
0.134069,0.020142940839690662,0.0065962208618845965,0.07276042608497608,0.048579958566812804,0.026705518997253742,0.0516417525166279,0.0009505215657953802,0.016828011064302185
0.1345345,0.01941614077227411,0.006530343916825584,0.07243822842090844,0.04873755111768154,0.026268369536589793,0.051474135255090196,0.0006604479073035425,0.01674249991278124
0.135,0.018701870657246746,0.006469059348426733,0.0721181313936944,0.04889340130504827,0.025838094435106818,0.05130541448554703,0.00037691603503937974,0.01665681770799953
0.1354655,0.01800012411110587,0.006412418488593617,0.07180012507631249,0.04904748131264458,0.02541469398200995,0.05113560385389391,9.991312650133608e-05,0.016570970716620732
0.135931,0.01731089161033824,0.006360471989982632,0.07148419876783287,0.04919976353629407,0.024998166796141964,0.0509647168790877,-0.00017057535252764077,0.016484965224211973
0.1363966,0.01663416052404123,0.006313269814659935,0.07117034100732858,0.04935022058978173,0.024588509840399387,0.05079276696067884,-0.0004345656215539126,0.01639880753862588
0.1368621,0.01596991514724127,0.00627086122288841,0.07085853958803665,0.04949882531076267,0.02418571843654346,0.05061976738653519,-0.0006920755587790584,0.01631250399336399
0.1373276,0.015318136734891482,0.0062332947620444045,0.07054878157175863,0.04964555076670943,0.023789786280400644,0.05044573134075128,-0.0009431246743483888,0.016226060950919215
0.1377931,0.014678803536530506,0.006200618255665968,0.07024105330349018,0.04979037026089702,0.023400705457447553,0.05027067191173635,-0.0011877340834524897,0.01613948480609508
0.1382586,0.014051890831584571,0.006172878792634326,0.06993534042626931,0.04993325733842427,0.02301846645877492,0.05009460210047464,-0.0014259264792921109,0.016052781989299488
0.1387241,0.013437370965295016,0.00615012271649024,0.06963162789623306,0.05007418579226999,0.022643058197425216,0.049917534828951754,-0.0016577261059166062,0.01596595896981097
0.1391897,0.012835213385253424,0.006132395614886969,0.06932989999787194,0.05021312966938222,0.022274468025098543,0.04973948294874134,-0.001883158730946007,0.015879022259015507
0.1396552,0.012245384678526554,0.006119742309181521,0.06903014035947226,0.05035006327679824,0.021912681749221258,0.04956045924974707,-0.002102251618186699,0.015791978413612493
0.1401207,0.011667848609353253,0.006112206844165889,0.06873233196873639,0.050484961187793095,0.021557683650371712,0.049380476469095665,-0.002315033500150555,0.015704834038788557
0.1405862,0.011102566157395502,0.006109832477940034,0.06843645718857091,0.05061779824805394,0.021209456500057455,0.04919954730017669,-0.0025215345504872766,0.015617595791358201
0.1410517,0.01054949555652574,0.006112661671928294,0.06814249777303366,0.05074854958187711,0.02086798157883799,0.04901768440182534,-0.002721786356339594,0.015530270382870403
0.1415172,0.010008592334132663,0.006120736081040999,0.06785043488343004,0.05087719059838473,0.02053323869478704,0.04883490040764391,-0.0029158218906308467,0.015442864582680262
0.1419828,0.009479809350927666,0.006134096543982961,0.06756024910455015,0.05100369699775695,0.02020520620228814,0.04865120793545749,-0.003103675484294364,0.015355385220984782
0.1424483,0.008963096841234149,0.006152783073710556,0.06727192046103785,0.05112804477747611,0.01988386102115711,0.04846661959689896,-0.0032853827984539135,0.015267839191821743
0.1429138,0.00845840245374192,0.006176834848039045,0.0669854284338838,0.051250210238578585,0.01956917865608484,0.04828114800711855,-0.0034609807965643815,0.015180233456030525
0.1433793,0.007965671292708903,0.006206290200401743,0.06670075197703455,0.05137016999191029,0.019261133216393694,0.04809480579461236,-0.003630507716521684,0.01509257504417363
0.1438448,0.007484845959592334,0.006241186610762652,0.06641786953410976,0.051487900964381834,0.01895969743610056,0.04790760561116442,-0.0037940030427507953,0.015004871059417535
0.1443103,0.007015866595091618,0.006281560696684096,0.06613675905522057,0.05160338040521974,0.018664842694279413,0.04771956014189609,-0.003951507478280638,0.014917128680371518
0.1447759,0.006558670921584988,0.006327448204550882,0.06585739801388187,0.051716585892210044,0.01837653903571621,0.0475306821154167,-0.0041030629168144145,0.014829355163882965
0.1452414,0.006113194285942019,0.006378884000952513,0.06557976342401163,0.0518274953379312,0.0180947551918486,0.04734098431406885,-0.004248712414803819,0.014741557847787704
0.1457069,0.005679369702694084,0.006435902064224909,0.06530383185701052,0.05193608699597303,0.017819458601982967,0.04715047958426185,-0.004388500163535411,0.014653744153613773
0.1461724,0.00525712789754477,0.006498535476153067,0.06502957945891527,0.052042339467139015,0.017550615434780988,0.046959180846886606,-0.004522471461237293,0.014565921589237066
0.1466379,0.0048463973512023195,0.006566816413836058,0.06475698196761931,0.05214623170562892,0.017288190610007935,0.04676710110780524,-0.004650672685214114,0.014478097751487177
0.1471034,0.004447104343516214,0.006640776141715717,0.0644860147301542,0.05224774302519905,0.017032147820534676,0.04657425346840868,-0.004773151264018301,0.01439028032870172
0.147569,0.0040591729978999925,0.006720445003770346,0.06421665272002554,0.05234685310529763,0.016782449554585258,0.046380651136235296,-0.004889955649665324,0.014302477103227408
0.1480345,0.0036825253260224927,0.006805852415874688,0.06394887055459704,0.052443541997172494,0.016539057118221807,0.04618630743564356,-0.005001135289900685,0.014214695953866131
0.1485,0.0033170812727496488,0.006897026858327465,0.0636826425125165,0.05253779012994852,0.0163019306580584,0.04599123581853191,-0.005106740600526245,0.014126944858264432
0.1489655,0.002962758761318981,0.00699399586854769,0.0634179425511773,0.05262957831667186,0.016071029184195347,0.04579544987509849,-0.005206822937793419,0.014039231895244784
0.149431,0.002619473738728931,0.007096786033940965,0.06315474432420948,0.05271888776031805,0.015846310593365304,0.045598963344633606,-0.005301434570870694,0.013951565247077214
0.1498966,0.002287140221325203,0.007205422984936938,0.06289302119899412,0.05280570005976104,0.015627731692282383,0.045401790126337396,-0.00539062865439286,0.013863953201689979
0.1503621,0.0019656703405663695,0.00731993138819905,0.06263274627419488,0.05288999721569959,0.015415248221185488,0.045203944290155104,-0.005474459201099247,0.013776404154818001
0.1508276,0.0016549743889511083,0.007440334940007693,0.062373892397300464,0.05297176163653805,0.01520881487756694,0.04500544008762222,-0.005552981054568188,0.013688926612087869
0.1512931,0.0013549608660896083,0.007566656359817827,0.06211643218217175,0.05305097614421833,0.0150083853400774,0.044806291962711645,-0.005626249862054844,0.013601529191038235
0.1517586,0.0010655365249018743,0.007698917383992091,0.06186033802658694,0.05312762397999987,0.014813912292597977,0.04460651456267445,-0.005694322047439409,0.013514220623074353
0.1522241,0.0007866064179258983,0.007837138759710364,0.061605582129778035,0.053201688810184444,0.014625347448470397,0.04440612274886585,-0.005757254784292684,0.013427009755355492
0.1526897,0.0005180739437189067,0.007981340239056712,0.061352136509951395,0.053273154731782936,0.014442641574875915,0.04420513160754769,-0.0058151059690658684,0.013339905552613905
0.1531552,0.0002598408933350908,0.008131540573284548,0.06109997302178491,0.05334200627812079,0.014265744517353641,0.04400355646065836,-0.005867934194411329,0.013252917098904006
0.1536207,1.1807496863396293e-05,0.008287757507260832,0.060849063373893536,0.053408228424378756,0.01409460522444878,0.043801412876541365,-0.005915798722640997,0.013166053599280338
0.1540862,-0.00022612752999092114,0.00845000777409005,0.060599379146254635,0.053471806593065496,0.013929171772481255,0.043598716680623366,-0.005958759459328981,0.01307932438140287
0.1545517,-0.00045406693929712515,0.008618307089918717,0.0603508918075844,0.05353272665941807,0.013769391390425028,0.043395483966032634,-0.005996876927064831,0.012992738897068099
0.1550172,-0.0006721149042781928,0.008792670148921123,0.06010357273265585,0.053590974956726434,0.013615210484888363,0.04319173110414877,-0.006030212239363793,0.012906306723664484
0.1554828,-0.0008803769726941589,0.008973110618467058,0.059857393219549096,0.05364653828157758,0.013466574665185133,0.04298747475507424,-0.006058827074740242,0.012820037565550698
0.1559483,-0.0010789600202451848,0.009159641134472271,0.05961232450682416,0.05369940389901506,0.013323428768487253,0.04278273187801816,-0.006082783650950347,0.012733941255355232
0.1564138,-0.0012679722040097017,0.009352273296932447,0.059368337790606726,0.05374955954760947,0.013185716885048184,0.04257751974158266,-0.006102144699409844,0.012648027755195796
0.1568793,-0.001447522915932736,0.009551017665641518,0.05912540424157719,0.053796993444436336,0.01305338238348739,0.042371855933941625,-0.00611697343979265,0.012562307157817037
0.1573448,-0.0016177227363792554,0.00975588375609517,0.0588834950218535,0.053841694289957574,0.012926367936125545,0.042165758372901874,-0.00612733355481588,0.012476789687644985
0.1578103,-0.0017786833877671282,0.009966880035580385,0.05864258130175848,0.0538836512728036,0.0128046155443603,0.04195924531583599,-0.006133289165216668,0.012391485701756716
0.1582759,-0.0019305176882940822,0.010184013919451887,0.05840263427646238,0.05392285407445308,0.012688066564072375,0.041752335369476576,-0.00613490480492604,0.012306405690763649
0.1587414,-0.0020733395057728993,0.01040729176759641,0.05816362518249186,0.05395929287380751,0.012576661731051762,0.041545047499561304,-0.00613224539644496,0.012221560279606981
0.1592069,-0.0022072637115890044,0.010636718881085631,0.05792552531409688,0.053992958351657766,0.012470341186433916,0.041337401040318036,-0.006125376226427509,0.012136960228263643
0.1596724,-0.0023324061347945466,0.010872299499018646,0.057688306039467195,0.054023841695039744,0.012369044502135844,0.041129415703779655,-0.006114362921476103,0.012052616432361213
0.1601379,-0.002448883516353028,0.011114036795554933,0.05745193881679059,0.054051934601475796,0.012272710706282186,0.04092111158891797,-0.006099271424153559,0.011968539923700214
0.1606034,-0.0025568134635484832,0.011361932877138667,0.05721639521014543,0.05407722928309878,0.012181278308611609,0.04071250919058617,-0.006080167969216727,0.011884741870682223
0.161069,-0.0026563144045731353,0.011615988779915322,0.05698164690522062,0.054099718470654944,0.01209468532585406,0.040503629408259356,-0.006057119060076377,0.01180123357864229
0.1615345,-0.002747505543307378,0.0118762044673415,0.056747665724856344,0.054119395417381935,0.01201286930706968,0.040294493554563195,-0.006030191445487909,0.011718026490084195
0.162,-0.0028305068143058038,0.012142578827988899,0.05651442364439957,0.05413625390275762,0.011935767358940265,0.040085123363581096,-0.005999452096477338,0.011635132184817248
0.1624655,-0.0029054388380028123,0.01241510967354328,0.05628189280686852,0.05415028823611558,0.011863316171004385,0.03987554099893091,-0.005964968183506867,0.011552562379993404
0.162931,-0.0029724228761511145,0.012693793736999269,0.05605004553792117,0.05416149326012264,0.011795452040827405,0.03966576906160263,-0.005926807053884202,0.01147032893004356
0.1633966,-0.0030315807875061886,0.012978626671051744,0.05581885436062267,0.054169864354113806,0.011732110899097807,0.039455830597548806,-0.005885036209419529,0.011388443826511925
0.1638621,-0.0030830349837694918,0.013269603046684482,0.05558829201000762,0.05417539743728057,0.011673228334641312,0.03924574910501979,-0.005839723284333898,0.01130691919778749
0.1643276,-0.003126908385802979,0.013566716351956741,0.055358331447433094,0.054178088971708185,0.011618739619344539,0.03903554854163585,-0.005790936023422591,0.011225767308731604
0.1647931,-0.0031633243801272286,0.013869958990988423,0.05512894587471915,0.05417793596525837,0.011568579732979992,0.03882525333118849,-0.005738742260476838,0.011145000560200837
0.1652586,-0.003192406775715297,0.014179322283144532,0.05490010874807357,0.05417493597429376,0.01152268338792427,0.03861488837016305,-0.0056832098969671,0.011064631488464316
0.1657241,-0.0032142797610942454,0.014494796462419614,0.054671793791798366,0.054169087106240445,0.011480985053761444,0.03840447903397475,-0.005624406880990978,0.010984672764514787
0.1661897,-0.0032290678617661796,0.014816370677023004,0.054443975011775704,0.054160388021985334,0.011443418981763643,0.03819405118291014,-0.0055624011864886325,0.010905137193272723
0.1666552,-0.00323689589796057,0.015144032989165682,0.054216626708731286,0.05414883793810521,0.01140991922924087,0.03798363116776578,-0.005497260792728485,0.010826037712682854
0.1671207,-0.0032378889427295073,0.015477770375049514,0.053989723491273546,0.054134436628924365,0.011380419683752162,0.037773245835175946,-0.00542905366406582,0.01074738739270267
0.1675862,-0.003232172280397445,0.015817568725059666,0.05376324028870698,0.05411718442839785,0.01135485408717025,0.037562922532621355,-0.005357847729976855,0.010669199434182566
0.1680517,-0.003219871365376792,0.016163412844160854,0.05353715236361806,0.05409708223181779,0.01133315605959206,0.03735268911311092,-0.0052837108653707035,0.010591487167637498
0.1685172,-0.003201111781360501,0.016515286452498053,0.05331143532423227,0.0540741314973406,0.01131525912308736,0.03714257393952907,-0.00520671087118164,0.01051426405191012
0.1689828,-0.0031760192009025606,0.016873172186202285,0.05308606513654065,0.054048334247333754,0.011301096725278046,0.036932605888641765,-0.005126915455243965,0.01043754367272557
0.1694483,-0.0031447193453970437,0.017237051598401998,0.05286101813619411,0.05401969306954155,0.011290602262740493,0.036722814354754926,-0.005044392213451748,0.010361339741138167
0.1699138,-0.0031073379454660973,0.017606905160440653,0.0526362710401638,0.053988211118069604,0.011283709104223442,0.03651322925302,-0.0049592086112056,0.010285666091870543
0.1703793,-0.003064000701767051,0.017982712263301098,0.05241180095816558,0.05395389211418831,0.011280350613673827,0.03630388102238208,-0.004871431965148609,0.010210536681546046
0.1708448,-0.003014833246228554,0.018364451219237413,0.052187585403846486,0.053916740346955185,0.011280460173063013,0.03609480062816646,-0.004781129425193427,0.010135965586815412
0.1713103,-0.002959961103725484,0.01875209926361498,0.05196360230573098,0.05387676067365632,0.011283971205005874,0.03588601956429997,-0.004688367956842394,0.01006196700237888
0.1717759,-0.002899509654202214,0.019145632556959644,0.05173983001792446,0.05383395852006732,0.011290817195165283,0.03567756985516333,-0.004593214323802481,0.009988555238904968
0.1722414,-0.0028336040952536886,0.019545026187217016,0.05151624733057129,0.053788339880534906,0.011300931714434697,0.035469484057070656,-0.004495735070896632,0.009915744720847145
0.1727069,-0.002762369405173684,0.019950254172223018,0.05129283348006438,0.05373991131788104,0.011314248440891747,0.035261795259372335,-0.004395996507272958,0.00984354998415955
0.1731724,-0.002685930306479516,0.020361289462386946,0.05106956815900294,0.053688679963131515,0.011330701181516151,0.035054537085177195,-0.004294064689913039,0.00977198567391292
0.1736379,-0.002604411229922371,0.020778103943588224,0.05084643152589471,0.05363465351507181,0.011350223893665724,0.03484774369169007,-0.00419000540744041,0.009701066541811729
0.1741034,-0.002517936278992277,0.021200668440288055,0.05062340421459852,0.053577840239632586,0.01137275070630474,0.03464144977016077,-0.004083884164230102,0.009630807443613568
0.174569,-0.0024266291949265662,0.02162895271885714,0.05040046734350269,0.053518248969107445,0.011398215940979402,0.034435690545440406,-0.003975766164819995,0.009561223336451711
0.1750345,-0.0023306133222305175,0.022062925491120523,0.0501776025244344,0.05345588910120545,0.01142655413253543,0.03423050177514078,-0.003865716298624506,0.009492329276061685
0.1755,-0.0022300115747186625,0.022502554418120848,0.04995479187129505,0.053390770597940694,0.011457700049572951,0.034025919748393,-0.0037537991249510594,0.00942414041391267
0.1759655,-0.0021249464020851087,0.022947806114101275,0.04973201800841615,0.05332290398436069,0.011491588714633922,0.03382198128420112,-0.0036400788583196056,0.00935667199424452
0.176431,-0.0020155397570110942,0.023398646150709534,0.04950926407863021,0.053252300347115145,0.011528155424117444,0.0336187237293869,-0.0035246193540853957,0.009289939351011068
0.1768966,-0.0019019130628178935,0.023855039061424856,0.04928651375105109,0.05317897133286637,0.011567335767918241,0.03341618495612167,-0.003407484094365102,0.009223957904730523
0.1773621,-0.0017841871816731,0.02431694834620968,0.04906375122855848,0.053102929146542105,0.011609065648783619,0.03321440335904132,-0.0032887361742663206,0.009158743159243699
0.1778276,-0.001662482383358217,0.024784336476388308,0.048840961254980705,0.05302418654943156,0.011653281301384226,0.033013417851940216,-0.0031684382884204208,0.009094310698380905
0.1782931,-0.0015369183146053886,0.025257164899754686,0.0486181291219707,0.052942756857125024,0.011699919311093885,0.03281326786404008,-0.003046652717818635,0.009030676182538395
0.1787586,-0.001407613969010969,0.025735394045911554,0.04839524067557012,0.052858653937297634,0.011748916632473837,0.03261399333583027,-0.0029234413169512406,0.008967855345165286
0.1792241,-0.0012746876575335314,0.026218983331843096,0.04817228232245666,0.05277189220733764,0.011800210607456724,0.03241563471447642,-0.0027988655012496175,0.008905863989161862
0.1796897,-0.0011382569795838028,0.026707891167723263,0.047949241035870394,0.0526824866318203,0.011853738983225883,0.03221823294879536,-0.0026729862348309264,0.008844717983190278
0.1801552,-0.000998438794713882,0.027202074962961696,0.04772610436121521,0.052590452719828824,0.011909439929785682,0.03202182948379453,-0.002545864018545077,0.008784433257898629
0.1806207,-0.0008553491949129157,0.027701491132489087,0.04750286042133225,0.052495806522125016,0.011967252057218944,0.03182646625477482,-0.002417558878323615,0.008725025802059621
0.1810862,-0.0007091034775160728,0.028206095103283747,0.04727949792144241,0.05239856462817319,0.012027114432627755,0.03163218568099618,-0.002288130353830064,0.008666511658625106
0.1815517,-0.0005598161187331224,0.02871584132114088,0.047056006153756075,0.052298744163022125,0.012088966596754102,0.03143903065890594,-0.0021576374874111757,0.008608906920698007
0.1820172,-0.00040760074780214485,0.029230683257686026,0.04683237500174828,0.052196362784050813,0.01215274858027697,0.031247044554930305,-0.0020261388133484192,0.008552227727423204
0.1824828,-0.00025257012177296614,0.029750573417633833,0.046608594944098476,0.0520914386775841,0.01221840091978249,0.031056271197830113,-0.001893692347408949,0.008496490259799079
0.1829483,-9.483610092388187e-05,0.0302754633462933,0.04638465705829438,0.051983990555384406,0.012285864673403701,0.030866754870621977,-0.0017603555766951906,0.008441710736411426
0.1834138,6.549037518575548e-05,0.030805303637320352,0.04616055302389991,0.05187403765102535,0.012355081436126453,0.030678540302066144,-0.0016261854497921066,0.008387905409091503
0.1838793,0.00022829931102539135,0.03134004394071854,0.04593627512548784,0.051761599716152885,0.012425993354757933,0.030491672657722683,-0.001491238367211151,0.008335090558500144
0.1843448,0.00039348167776457786,0.03187963297108841,0.045711816255237986,0.0516466970166394,0.012498543142554205,0.030306197530577932,-0.001355570172129867,0.008283282489639934
0.1848103,0.0005609294353052482,0.03242401851612599,0.04548716991520238,0.051529350328635655,0.012572674093503145,0.03012216093124379,-0.0012192361414260539,0.008232497527297567
0.1852759,0.0007305355536747833,0.03297314744537076,0.045262330219239456,0.051409580934525224,0.01264833009625906,0.029939609277733027,-0.0010822909770053818,0.008182752011418552
0.1857414,0.0009021940337798826,0.033526965719203286,0.045037291894619316,0.05128741061878556,0.012725455647725238,0.029758589384814096,-0.0009447887974212923,0.008134062292416484
0.1862069,0.0010757999275213864,0.03408541839809256,0.04481205028330279,0.051162861663759544,0.012803995866280555,0.029579148452949143,-0.0008067831297859668,0.008086444726419019
0.1866724,0.0012512493572703395,0.03464844965209313,0.04458660134289728,0.05103595684534084,0.012883896504646246,0.029401334056818905,-0.0006683269019710834,0.008039915670452747
0.1871379,0.0014284395347057622,0.035216002770591746,0.044360941647292554,0.05090671942857606,0.012965103962388825,0.02922519413343819,-0.0005294724350970257,0.007994491477569142
0.1876034,0.0016072687790147956,0.03578802017230321,0.04413506838698012,0.050775173163186145,0.013047565298055218,0.02905077696986562,-0.0003902714363091459,0.007950188491913757
0.188069,0.0017876365344561,0.03636444341551481,0.043908979369059714,0.05064134227900926,0.013131228240936302,0.02887813119051159,-0.0002507749918396264,0.007907023043740935
0.1885345,0.0019694433872876134,0.03694521320857859,0.043682673016936964,0.050505251481366975,0.013216041202455207,0.02870730574404885,-0.00011103356035342621,0.007865011444376263
0.189,0.002152591082060013,0.037530269420650304,0.04345614836971601,0.050366925946355334,0.013301953287177006,0.02853834988993049,2.8903033423247335e-05,0.007824169981129073
0.1894655,0.0023369825372775268,0.038119551092674196,0.043229405081291215,0.05022639131606252,0.013388914303436686,0.0283713131845206,0.00016898560479353879,0.007784514912157272
0.189931,0.0025225218604280767,0.03871299644861215,0.04300244341914212,0.050083673693714456,0.013476874773582458,0.028206245466843072,0.0003091656149012359,0.007746062461286765
0.1903966,0.0027091143623851626,0.03931054290691584,0.04277526426283556,0.049938799638749864,0.013565785943831721,0.0280431968439545,0.0004493951762643861,0.007708828812787707
0.1908621,0.002896666571184351,0.03991212709224051,0.04254786910223896,0.0497917961618265,0.01365559979373695,0.027882217675947233,0.000589627058032881,0.007672830106109797
0.1913276,0.0030850862451777283,0.040517684847398726,0.04232026003544856,0.04964269071976031,0.01374626904525896,0.027723358560589315,0.000729814690971665,0.007638082430578779
0.1917931,0.0032742823855701525,0.04112715124555236,0.04209243976643619,0.04949151121039928,0.013837747171445055,0.027566670317608438,0.000869912172171243,0.0076046018200563
0.1922586,0.0034641652483415803,0.041740460602640944,0.041864411602417946,0.0493382859674341,0.013929988404709666,0.027412203972627582,0.0010098742694871943,0.007572404247565197
0.1927241,0.0036546463555601223,0.042357546490044244,0.04163617945094777,0.0491830437551473,0.014022947744715282,0.02726001074076031,0.0011496564257104484,0.007541505619882301
0.1931897,0.003845638506090789,0.042978341747476605,0.04140774781673853,0.049025813763102936,0.014116580965851631,0.027110142009873807,0.0012892147624701423,0.007511921772100796
0.1936552,0.004037055785705189,0.043602778496110724,0.041179121798213245,0.048866625600778237,0.014210844624311117,0.026962649323527828,0.0014285060838709646,0.007483668462164269
0.1941207,0.004228813576597691,0.04423078815192791,0.04095030708378832,0.04870550929213849,0.014305696064758514,0.026817584363597644,0.0015674878798669844,0.007456761365374631
0.1945862,0.004420828566313803,0.044862301439291985,0.040721309947890985,0.04854249527015616,0.014401093426592938,0.026674998932589195,0.0017061183293740657,0.0074312160688761964
0.1950517,0.0046130187560967486,0.04549724840474354,0.040492137246712454,0.04837761437127472,0.01449699564980002,0.026534944935654878,0.001844356303123076,0.007407048066118342
0.1955172,0.004805303468658435,0.046135558431011234,0.04026279641369857,0.048210897829817516,0.01459336248039229,0.02639747436231859,0.0019821613662561834,0.007384272751299166
0.1959828,0.004997603355381156,0.046777160251236634,0.04003329545477932,0.04804237727234181,0.014690154475435842,0.026262639267919035,0.002119493780668627,0.007362905413792628
0.1964483,0.005189840402956497,0.04742198196340912,0.03980364294333881,0.04787208471193781,0.0147873330076616,0.02613049175478064,0.0022563145070984116,0.007342961232561576
0.1969138,0.005381937939468017,0.04806995104500719,0.0395738480149272,0.047700052542472816,0.01488486026965982,0.026001083953121524,0.002392585206966437,0.007324455270559094
0.1973793,0.0055738206399242995,0.04872099436784286,0.03934392036171618,0.04752631353278047,0.014982699277656872,0.025874468001708194,0.0025282682439696077,0.007307402469120525
0.1978448,0.005765414531249066,0.04937503821310565,0.039113870226699717,0.04735090082079512,0.015080813874873752,0.02575069602826643,0.0026633266854294855,0.007291817642348538
0.1983103,0.00595664699673498,0.05003200828660255,0.038883708397641936,0.04717384790763145,0.01517916873446613,0.02562982012965788,0.0027977243033990677,0.007277715471493565
0.1987759,0.006147446779967803,0.050691829734190307,0.03865344620077447,0.046995188651609426,0.015277729362046072,0.025511892351831725,0.0029314255755302694,0.00726511049933194
0.1992414,0.00633774398822757,0.05135442715739606,0.03842309549424558,0.04681495726222425,0.015376462097785901,0.025396964669560585,0.0030643956857046893,0.007254017124544013
0.1997069,0.006527470095373383,0.05201972462922214,0.038192668661324154,0.04663318829406092,0.015475334118104984,0.02528508896596976,0.0031966005244302644,0.0072444495960945045
0.2001724,0.0067165579442184705,0.052687645710130245,0.03796217860336164,0.04644991664065336,0.01557431343694057,0.025176317011869037,0.0033280066890064466,0.007236422007617319
0.2006379,0.006904941748402161,0.0533581134642001,0.03773163873251559,0.04626517752828736,0.01567336890660405,0.02507070044489636,0.0034585814834605867,0.007229948291806988
0.2011034,0.007092557093765481,0.054031050475457074,0.037501062964238795,0.046079006509746764,0.015772470218224307,0.024968290748482776,0.003588292918258256,0.007225042214818879
0.201569,0.007279340939237163,0.054706378864362665,0.037270465709538375,0.04589143945800197,0.015871587901780053,0.024869139230648176,0.003717109709790327,0.007221717370680241
0.2020345,0.007465231617236957,0.05538402030446162,0.03703986186700965,0.045702512559839724,0.015970693325723137,0.024773297002637404,0.003845001279639702,0.007219987175714099
0.2025,0.007650168833603225,0.05606389603917882,0.03680926681465,0.0455122623094332,0.016069758696195032,0.02468081495740645,0.003971937753630684,0.007219864862977986
0.2029655,0.007834093667051957,0.056745926898758604,0.03657869640145812,0.04532072550185113,0.016168757055838843,0.024591743747968603,0.0040978899606640695,0.007221363476719395
0.203431,0.008016948568174403,0.057430033317338786,0.03634816693882468,0.045127939226504765,0.01626766228220952,0.02450613376561089,0.004222829431341165,0.007224495866849842
0.2038966,0.008198677357980693,0.0581161353501513,0.03611769519172075,0.044933940860531034,0.01636644908578563,0.02442403511799153,0.004346728396380057,0.007229274683439339
0.2043621,0.008379225225996854,0.05880415269084083,0.035887298369690526,0.04473876806211031,0.016465093007586733,0.02434549760712943,0.0044695597848275585,0.0072357123712330435
0.2048276,0.008558538727922718,0.05949400468889227,0.0356569941176554,0.04454245876371685,0.01656357041640113,0.024270570707296924,0.004591297222070365,0.007243821164191805
0.2052931,0.0087365657828583,0.0601856103671581,0.03542680050653655,0.04434505116529972,0.016661858505629547,0.02419930354282694,0.004711915027649012,0.007253613080058286
0.2057586,0.00891325567010622,0.06087888843947569,0.03519673602370357,0.04414658372739188,0.016759935289750894,0.02413174486584601,0.004831388212878295,0.007265099914950322
0.2062241,0.00908855902555776,0.061573757328364766,0.03496681956325683,0.04394709516414492,0.016857779600416747,0.024067943033944324,0.004949692478277825,0.0072782932379831895
0.2066897,0.009262427837670109,0.06227013518279481,0.03473707041615147,0.04374662443628686,0.0169553710821816,0.024007945987794203,0.005066804210816431,0.007293204385922484
0.2071552,0.009434815443042359,0.0629679398960118,0.03450750826017105,0.04354521074400081,0.017052690187876075,0.02395180122872812,0.005182700480974084,0.007309844457869294
0.2076207,0.009605676521597715,0.06366708912341343,0.03427815314975913,0.043342893519722904,0.01714971817363054,0.023899555796287622,0.005297359039625052,0.007328224309979423
0.2080862,0.009774967091379367,0.06436750030046215,0.03404902550571699,0.04313971242085869,0.017246437093556635,0.023851256245754116,0.005410758314746053,0.00734835455021836
0.2085517,0.00994264450296742,0.0650690906606247,0.03382014610477599,0.04293570732241801,0.017342829794094548,0.023806948625672668,0.005522877407953134,0.0073702455331537175
0.2090172,0.01010866743352434,0.06577177725332696,0.033591536069052574,0.0427309183095686,0.01743887990803401,0.023766678455379785,0.005633696090871084,0.0073939073547868205
0.2094828,0.010272995880476296,0.06647547696191253,0.03336321685539432,0.042525385670109335,0.017534571848217214,0.02373049070254622,0.005743194801339177,0.007419349847425141
0.2099483,0.010435591154837892,0.0671801065215929,0.03313521024462489,0.04231914988686448,0.017629890800932045,0.02369842976074558,0.005851354639457082,0.007446582574597211
0.2104138,0.010596415874187727,0.06788558253737696,0.03290753833069581,0.042112251630000645,0.01772482271900389,0.023670539427059666,0.005958157363474774,0.0074756148260116785
0.2108793,0.010755433955302249,0.06859182150196746,0.032680223509752464,0.04190473174926845,0.01781935431459436,0.023646862879731154,0.006063585385530314,0.007506455612562084
0.2113448,0.01091261060645532,0.0692987398136119,0.0324532884691215,0.041696631266171104,0.017913473051715135,0.023627442655874385,0.006167621767239382,0.007539113661378945
0.2118103,0.011067912319390897,0.07000625379389545,0.032226756176226896,0.04148799136606186,0.01800716713846498,0.023612320629254707,0.006270250215140442,0.0075735974109306615
0.2122759,0.011221306860976128,0.070714279705464,0.03200064986744129,0.04127885339017246,0.01810042551899792,0.02360153798814682,0.006371455075999422,0.007609915006174742
0.2127414,0.01137276326454211,0.07142273376966503,0.031774993036879404,0.04106925882757406,0.018193237865230385,0.023595135213282402,0.00647122133197777,0.0076480742937607765
0.2132069,0.011522251820919566,0.07213153218409474,0.03154980942514,0.04085924930707253,0.01828559456829502,0.023593152055897154,0.006569534595667693,0.007688082817286563
0.2136724,0.011669744069176622,0.072840591140039,0.031325123008002796,0.04064886658903948,0.01837748672974875,0.02359562751588722,0.006666381104998347,0.007729947812608748
0.2141379,0.0118152127870658,0.07354982683979613,0.031100957985086657,0.04043815255718059,0.018468906152542434,0.023602599820084783,0.0067617477180167505,0.007773676203209273
0.2146034,0.011958631981187393,0.07425915551386934,0.030877338768475284,0.040227149210242216,0.018559845331759476,0.023614106400662405,0.006855621907547179,0.007819274595618875
0.215069,0.012099976876876343,0.0749684934380171,0.0306542899713165,0.04001589865365754,0.01865029744513053,0.02363018387367549,0.006947991755732741,0.00786674927489883
0.2155345,0.012239223907819714,0.07567775695014999,0.030431836396401204,0.03980444309113319,0.018740256343331565,0.02365086801775222,0.007038845948462923,0.007916106200182073
0.216,0.012376350705411883,0.07638686246706379,0.030210003024728028,0.03959282481617699,0.01882971654007253,0.023676193752939934,0.007128173769690819,0.007967351000274727
0.2164655,0.012511336087854407,0.07709572650099968,0.029988815004059633,0.03938108620356727,0.018918673201984062,0.02370619511971695,0.007215965095643772,0.00802048896931907
0.216931,0.012644160049007579,0.07780426567602264,0.029768297637476515,0.03916926970076412,0.019007122138309743,0.02374090525817864,0.007302210388931174,0.00807552506251889
0.2173966,0.012774803747000445,0.07851239674421101,0.029548476371934196,0.03895741781926255,0.01909505979041174,0.023780356387406578,0.007386900692553131,0.00813246389192818
0.2178621,0.012903249492606093,0.07922003660164957,0.029329376786829568,0.0387455731258874,0.01918248322109761,0.023824579785029595,0.007470027623813795,0.008191309722304146
0.2183276,0.013029480737388823,0.07992710230421905,0.029111024582582145,0.038533778234029786,0.019269390103776256,0.023873605766985658,0.007551583368143123,0.008252066467025528
0.2187931,0.013153482061629836,0.08063351108317501,0.028893445569235895,0.038322075794824495,0.019355778711451055,0.02392746366749345,0.007631560672830912,0.008314737684077289
0.2192586,0.013275239162037917,0.08133918036050906,0.028676665655087287,0.038110508488268253,0.0194416479055581,0.023986181819242496,0.007709952840676882,0.00837932657210276
0.2197241,0.013394738839251605,0.08204402776408587,0.02846071083534513,0.03789911901427847,0.019526997124657528,0.02404978753381067,0.007786753723560598,0.008445835966524389
0.2201897,0.013511968985139244,0.08274797114254968,0.028245607180827734,0.037687950083692585,0.019611826372985756,0.024118307082317846,0.007861957715934977,0.008514268335734165
0.2206552,0.013626918569903244,0.08345092857999474,0.028031380826702926,0.03747704440920819,0.0196961362088764,0.024191765676324212,0.00793555974824704,0.008584625777354898
0.2211207,0.013739577628994814,0.08415281841039492,0.02781805796127621,0.037266444696264056,0.01977992773305757,0.024270187448981864,0.008007555280289558,0.008656910014573404
0.2215862,0.013849937249845415,0.08485355923178793,0.027605664814832422,0.03705619363386245,0.019863202576833213,0.024353595436448328,0.008077940294487176,0.008731122392546743
0.2220517,0.013957989558421206,0.08555306992021024,0.027394227648536017,0.03684633388533278,0.01994596289015605,0.024442011559570646,0.008146711289120591,0.00880726387488268
0.2225172,0.014063727705606694,0.08625126964337901,0.027183772743395226,0.036636908079036794,0.020028211329599758,0.024535456605849007,0.008213865271492267,0.008885335040195678
0.2229828,0.014167145853424011,0.08694807787411808,0.026974326389294968,0.03642795879901565,0.02010995104623793,0.024633950211688814,0.00827939975103717,0.008965336078739838
0.2234483,0.014268239161094194,0.08764341440352445,0.026765914874103472,0.036219528575579064,0.020191185673437355,0.02473751084495044,0.008343312732381987,0.009047266789120344
0.2239138,0.014367003770946959,0.08833719935387167,0.026558564472857496,0.03601165987583672,0.02027191931457308,0.02484615578780575,0.008405602708356247,0.009131126575085089
0.2243793,0.014463436794185516,0.08902935319124619,0.0263523014370308,0.035804395094172006,0.02035215653067272,0.024959901119910376,0.008466268652958757,0.009216914442398262
0.2248448,0.014557536296513041,0.08971979673791222,0.026147151983890532,0.03559777654265797,0.020431902327997326,0.025078761701900727,0.008525310014282772,0.00930462899579774
0.2253103,0.014649301283627415,0.09040845118439982,0.02594314228594619,0.03539184644141511,0.020511162145566062,0.025202751159224504,0.008582726707403239,0.009394268436038175
0.2257759,0.014738731686590918,0.09109523810131039,0.025740298460495557,0.03518664690891055,0.020589941842631906,0.02533188186631339,0.008638519107229478,0.00948583055702162
0.2262414,0.014825828347081493,0.09178007945083409,0.025538646559272096,0.03498221995219816,0.02066824768611547,0.02546616493110634,0.008692688041326588,0.009579312743017526
0.2267069,0.014910593002532222,0.09246289759797272,0.02533821255819812,0.034778607457098855,0.020746086338004,0.025605610179931734,0.008745234782708838,0.009674711965973923
0.2271724,0.0149930282711656,0.09314361532146154,0.025139022347248012,0.03457585117832053,0.020823464842722475,0.025750226142756485,0.008796161042608223,0.009772024782921607
0.2276379,0.01507313763692916,0.09382215582438393,0.024941101720425754,0.03437399272951707,0.020900390614483722,0.025900020038809972,0.008845468963221305,0.009871247333473063
0.2281034,0.015150925434338972,0.09449844274447218,0.024744476365860784,0.03417307357328578,0.020976871424624257,0.026054997762590536,0.008893161110437394,0.009972375337417886
0.228569,0.015226396833237508,0.09517240016408769,0.024549171856026352,0.033973135011102544,0.021052915388932596,0.026215163870262004,0.00893924046655103,0.010075404092416348
0.2290345,0.01529955782347231,0.09584395261987334,0.024355213638084246,0.03377421817319449,0.02112853095497655,0.026380521566447695,0.0089837104229617,0.0101803284717928
0.2295,0.015370415199501795,0.0965130251120717,0.024162627024359777,0.03357636400834982,0.021203726889435944,0.026551072691429003,0.009026574772863602,0.010287142922430518
0.2299655,0.015438976544934577,0.09717954311350264,0.023971437182950882,0.03337961327366495,0.0212785122654471,0.02672681770875563,0.009067837703928255,0.010395841462769582
0.230431,0.015505250217008455,0.09784343257819467,0.023781669128475017,0.033184006524228954,0.02135289644996518,0.02690775569327442,0.009107503790982635,0.010506417680909336
0.2308966,0.015569245331015346,0.09850461994966518,0.023593347712957465,0.03298958410274574,0.02142688909115054,0.027093884319583577,0.009145577988685512,0.01061886473281695
0.2313621,0.01563097174467832,0.09916303216884567,0.023406497616864537,0.032796386129093996,0.02150050010578495,0.027285199850919224,0.00918206562420458,0.010733175340643523
0.2318276,0.015690440042486965,0.09981859668164861,0.023221143340285126,0.032604452489825415,0.02157373966672344,0.027481697128480954,0.009216972389896941,0.010849341791149105
0.2322931,0.015747661519997333,0.10047124144617477,0.023037309194263916,0.03241382282760142,0.021646618190387455,0.027683369561203097,0.009250304335995515,0.010967355934237937
0.2327586,0.015802648168102732,0.10112089493956043,0.022855019292289346,0.032224536530569156,0.021719146324304852,0.02789020911597819,0.009282067863303843,0.011087209181605159
0.2332241,0.015855412657281676,0.10176748616446582,0.022674297541939475,0.03203663272167768,0.02179133493470213,0.028102206308338956,0.009312269715901853,0.011208892505496212
0.2336897,0.01590596832182927,0.10241094465520625,0.022495167636688674,0.031850150247935916,0.021863195094154297,0.028319350193604906,0.00934091697386509,0.011332396437580168
0.2341552,0.01595432914407823,0.10305120048352849,0.022317653047877885,0.03166512766961459,0.02193473806929752,0.028541628358499545,0.009368017045999953,0.011457711067938168
0.2346207,0.01600050973861571,0.10368818426403398,0.022141777016851008,0.031481603249394995,0.02200597530860976,0.028769026913243935,0.00939357766259747,0.011584826044168306
0.2350862,0.016044525336501945,0.10432182715925074,0.02196756254725984,0.031299614941468185,0.022076918430264388,0.029001530484132215,0.009417606868208145,0.01171373057060822
0.2355517,0.016086391769496656,0.10495206088435546,0.02179503239753981,0.03111920038058849,0.022147579210061715,0.029239122206594553,0.009440113014440421,0.011844413407676722
0.2360172,0.016126125454299034,0.10557881771154708,0.021624209073558578,0.03094039687108552,0.022217969569443174,0.02948178371875275,0.009461104752785261,0.011976862871335809
0.2364828,0.016163743376807073,0.1062020304740733,0.021455114821439428,0.030763241375839016,0.022288101563592694,0.02972949515547361,0.009480591027469338,0.012111066832674412
0.2369483,0.016199263076401852,0.10682163256991117,0.021287771620561127,0.030587770505221136,0.022357987369629947,0.029982235142925,0.009498581068339297,0.012247012717615137
0.2374138,0.016232702630262306,0.10743755796510332,0.021122201176735852,0.030414020506011025,0.02242763927489986,0.030239980793639407,0.009515084383779501,0.012384687506745264
0.2378793,0.016264080637715863,0.10804974119675162,0.020958424915566428,0.03024202725028698,0.02249706966536288,0.030502707702089623,0.009530110753665656,0.012524077735273144
0.2383448,0.0162934162046303,0.10865811737567053,0.02079646397598416,0.030071826224301778,0.02256629101409052,0.030770389940781122,0.009543670222356606,0.012665169493111124
0.2388103,0.016320728927851944,0.10926262218870342,0.020636339203968245,0.02990345251734708,0.022635315869870706,0.03104300005686551,0.009555773091726569,0.01280794842508601
0.2392759,0.016346038879695286,0.10986319190070622,0.020478071146447625,0.029736940810613326,0.02270415684592762,0.031320509069279315,0.009566429914239971,0.012952399731278067
0.2397414,0.016369366592488974,0.11045976335620433,0.02032168004538598,0.029572325366051783,0.022772826608760597,0.03160288646641205,0.009575651486071006,0.013098508167489385
0.2402069,0.01639073304318304,0.11105227398072981,0.020167185832050478,0.02940964001524555,0.02284133786710688,0.031890100204307374,0.009583448840269975,0.013246258045842502
0.2406724,0.016410159638022025,0.11164066178184763,0.020014608121464664,0.02924891814829654,0.022909703361032683,0.03218211670540095,0.009589833239978399,0.013395633235510025
0.2411379,0.016427668197288636,0.11222486534988085,0.019863966207045856,0.02909019270273533,0.022977935851157247,0.032478900857798386,0.009594816171694876,0.013546617163575917
0.2416034,0.016443280940122405,0.11280482385834673,0.01971527905542722,0.028933496152460766,0.02304604810801422,0.03278041601509645,0.009598409338593605,0.013699192816029078
0.242069,0.01645702046941765,0.11338047706411632,0.019568565301464603,0.028778860496716244,0.023114052901554747,0.03308662399675061,0.009600624653897504,0.013853342738889756
0.2425345,0.0164689097568049,0.1139517653073112,0.019423843243428062,0.028626317249109575,0.02318196299079659,0.03339748508899183,0.009601474234307817,0.014009049039469255
0.243,0.016478972127719912,0.11451862951095089,0.019281130838377906,0.028475897426683168,0.023249791113623398,0.03371295804629531,0.00960097039349208,0.014166293387763358
0.2434655,0.01648723124656419,0.11508101118036496,0.01914044569772482,0.028327631539041324,0.023317549976738176,0.03403300009340363,0.009599125635632302,0.0143250570179798
0.243931,0.016493711101960812,0.11563885240238322,0.019001805082973593,0.028181549577541355,0.023385252245774833,0.03435756692790692,0.009595952649035192,0.014485320730200105
0.2443966,0.016498435992109272,0.11619209584431654,0.01886522590164968,0.028037681004555174,0.02345291053557146,0.03468661272338226,0.009591464299806191,0.014647064892176067
0.2448621,0.01650143051024293,0.11674068475274112,0.018730724703407878,0.027896054742808006,0.02352053740060882,0.035020090133094636,0.009585673625589064,0.014810269441261131
0.2453276,0.016502719530192556,0.11728456295209846,0.018598317676322033,0.02775669916480074,0.023588145325617385,0.03535795029426117,0.009578593829372734,0.014974913886476909
0.2457931,0.016502328192059358,0.1178236748431232,0.018468020643354743,0.027619642082322416,0.023655746716355907,0.03570014283288077,0.009570238273367063,0.015140977310715129
0.2462586,0.016500281888000866,0.11835796540111024,0.01833984905900581,0.0274849107360593,0.023723353890564496,0.03604661586913093,0.009560620472949217,0.015308438373075299
0.2467241,0.016496606248133018,0.11888738017403261,0.018213818006138104,0.02735253178530688,0.023790979069094855,0.03639731602333358,0.009549754090682205,0.015477275311338405
0.2471897,0.01649132712655174,0.11941186528052086,0.018089942192979314,0.027222531297791206,0.023858634367220133,0.036752188422491734,0.009537652930407226,0.015647465944576944
0.2476552,0.016484470587477318,0.11993136740771491,0.017968235950297968,0.02709493473960583,0.02392633178612674,0.03711117670739869,0.00952433093141131,0.015818987675901612
0.2481207,0.016476062891524746,0.12044583380899859,0.017848713228751964,0.02696976696527063,0.02399408320459011,0.0374742230403213,0.009509802162671815,0.01599181749534494
0.2485862,0.016466130482103256,0.12095521230162706,0.017731387596407758,0.026847052207918602,0.024061900370836487,0.037841268113258754,0.009494080817179161,0.016165931982882138
0.2490517,0.01645469997194807,0.12145945126425758,0.017616272236428202,0.026726814069616772,0.024129794894592323,0.03821225115677792,0.00947718120633922,0.016341307311589337
0.2495172,0.016441798129787404,0.12195849963439441,0.017503379944927108,0.026609075511827035,0.024197778239323023,0.03858710994942632,0.009459117754456655,0.016517919250939435
0.2499828,0.016427451867147638,0.12245230690575955,0.01739272312898856,0.026493858846012908,0.024265861714662478,0.03896578082772356,0.009439904993300477,0.01669574317023567
0.2504483,0.01641168822529943,0.12294082312560166,0.017284313804849204,0.026381185724397946,0.02433405646903479,0.039348198696732,0.009419557556752984,0.016874754042182978
0.2509138,0.01639453436234754,0.12342399889195536,0.017178163596241827,0.026271077130881688,0.02440237348246941,0.03973429704120728,0.009398090175543179,0.017054926446597275
0.2513793,0.016376017540466976,0.12390178535086327,0.017074283732898834,0.026163553372118956,0.024470823559610853,0.04012400793732937,0.009375517672065719,0.017236234574252544
0.2518448,0.016356165113287895,0.12437413419357256,0.016972685049214165,0.026058634068768294,0.024539417322923984,0.04051726206501444,0.009351854955286325,0.017418652230865844
0.2523103,0.016335004513431624,0.12484099765371777,0.01687337798306229,0.02595633814691525,0.024608165206095687,0.04091398872080811,0.009327117015734588,0.017602152841220096
0.2527759,0.01631256324019997,0.12530232850450038,0.016776372574772984,0.025856683829675983,0.024677077447633644,0.041314115831360125,0.009301318920585038,0.017786709453424702
0.2532414,0.01628886884741995,0.12575808005587608,0.016681678466260563,0.02575968862898657,0.024746164084662597,0.04171756996748038,0.009274475808827313,0.017972294743313973
0.2537069,0.016263948931445928,0.1262082061517589,0.016589304900306186,0.025665369337583267,0.024815434946918527,0.04212427635877604,0.009246602886526163,0.01815888101898336
0.2541724,0.01623783111932108,0.12665266116725102,0.016499260719991908,0.025573742021178614,0.024884899650940883,0.04253415890886894,0.009217715422172052,0.0183464402254634
0.2546379,0.016210543057100027,0.12709140000590613,0.016411554368285026,0.02548482201083826,0.024954567594462983,0.04294714021119233,0.009187828742122988,0.01853494394953128
0.2551034,0.016182112398334354,0.12752437809703285,0.01632619388777129,0.02539862389556312,0.025024447951000586,0.04336314156536565,0.009156958226138179,0.018724363424659933
0.255569,0.016152566792722665,0.12795155139304407,0.016243186920535422,0.02531516151508135,0.025094549664638685,0.043782082994145745,0.009125119303004053,0.018914669536104736
0.2560345,0.0161219338749267,0.12837287636685793,0.016162540708187324,0.02523444795285449,0.025164881445016326,0.044203883260952606,0.009092327446253094,0.019105832826127996
0.2565,0.016090241253554887,0.12878831000935537,0.016084262092032228,0.025156495529301902,0.025235451762509412,0.04462845988796739,0.009058598169975896,0.019297823499361478
0.2569655,0.01605751650031475,0.12919780982689869,0.01600835751338293,0.02508131579524758,0.02530626884361136,0.04505572917480025,0.009023947024726756,0.019490611428307394
0.257431,0.0160237871393354,0.1296013338389164,0.015934833014012197,0.02500891952559326,0.025377340666511317,0.04548560621772544,0.008988389593523115,0.019684166158978247
0.2578966,0.01598908063666153,0.12999884057555883,0.01586369423674319,0.024939316713221783,0.025448674956869692,0.04591800492948053,0.008951941487939024,0.019878456916675866
0.2583621,0.015953424389920173,0.13039028907542927,0.015794946426175734,0.024872516563134425,0.02552027918379067,0.04635283805962681,0.008914618344292798,0.020073452611909865
0.2588276,0.015916845718161664,0.13077563888339547,0.015728594429546116,0.02480852748682612,0.025592160555991245,0.04679001721546712,0.00887643581992893,0.02026912184645572
0.2592931,0.01587937185187616,0.13115485004848632,0.015664642697717855,0.024747357096902314,0.025664326018166345,0.047229452883517445,0.008837409589594296,0.02046543291955255
0.2597586,0.01584102992318715,0.13152788312187813,0.015603095286300998,0.024689012201941144,0.025736782247549408,0.04767105445152802,0.00879755534190866,0.020662353834240647
0.2602241,0.01580184695622338,0.1318946991549754,0.015543955856897202,0.02463349880160459,0.025809535650668063,0.04811473023104929,0.008756888775929405,0.02085985230383866
0.2606897,0.015761849857670433,0.1322552596975909,0.015487227678467943,0.02458082208200197,0.02588259236029478,0.04856038748053788,0.008715425597810385,0.02105789575856039
0.2611552,0.015721065407503423,0.13260952679623073,0.015432913628823016,0.02453098641130914,0.025955958232592842,0.04900793242899709,0.008673181517554775,0.02125645135227094
0.2616207,0.015679520249901994,0.13295746299249114,0.015381016196226518,0.02448399533564655,0.026029638844458552,0.049457270300146385,0.008630172245861668,0.02145548596938197
0.2620862,0.015637240884348973,0.13329903132157375,0.015331537481117319,0.024439851575219152,0.02610363949106092,0.049908305337113504,0.008586413491066152,0.02165496623188557
0.2625517,0.015594253656913954,0.13363419531092696,0.01528447919794102,0.02439855702072104,0.026177965183580554,0.050360940827642954,0.008541920956172556,0.021854858506526176
0.2630172,0.015550584751723112,0.1339629189790204,0.015239842677090254,0.024360112730007655,0.026252620647149647,0.05081507912981389,0.008496710335980462,0.02205512891210984
0.2634828,0.015506260182616572,0.13428516683425967,0.015197628866950027,0.024324518925038136,0.026327610318994752,0.05127062169826023,0.00845079731430309,0.02225574332695002
0.2639483,0.015461305784994562,0.1346009038740483,0.015157838336044772,0.02429177498909049,0.026402938346784068,0.05172746911088565,0.008404197561277606,0.022456667396448953
0.2644138,0.015415747207853605,0.1349100955840045,0.01512047127528363,0.024261879464252043,0.026478608587180746,0.05218552109606557,0.008356926730766913,0.022657866540813518
0.2648793,0.01536960990601381,0.13521270793734075,0.015085527500300358,0.024234830049187733,0.02655462460460341,0.052644676560328174,0.008309000457852427,0.022859305962904506
0.2653448,0.015322919132538311,0.13550870739441495,0.015053006453884254,0.02421062359718861,0.026630989670195004,0.05310483361650616,0.00826043435641735,0.023060950656217903
0.2658103,0.015275699931345706,0.13579806090246152,0.015022907208498252,0.024189256114503104,0.02670770676100088,0.05356588961235062,0.008211244016819877,0.02326276541299671
0.2662759,0.015227977130016277,0.13608073589551142,0.014995228468880368,0.024170722758953413,0.026784778559356816,0.054027741159598,0.008161445003655773,0.02346471483247175
0.2667414,0.015179775332792625,0.13635670029450983,0.014969968574724522,0.024155017838839263,0.02686220745248756,0.05449028416348104,0.008111052853609729,0.02366676332922964
0.2672069,0.015131118913775192,0.13662592250763905,0.014947125503436715,0.02414213481213122,0.026939995532316505,0.054953413852673896,0.008060083073394808,0.02386887514170599
0.2676724,0.015082032010313114,0.13688837143085472,0.01492669687296252,0.024132066285955593,0.027018144595486907,0.05541702480966146,0.008008551137779344,0.02407101434080168
0.2681379,0.015032538516590662,0.13714401644864363,0.014908679944681811,0.024124804016372844,0.027096656143595178,0.055881011001522325,0.007956472487700487,0.024273144838620045
0.2686034,0.014982662077409501,0.1373928274350107,0.014893071626366772,0.024120338908451264,0.027175531383636584,0.056345265811114584,0.007903862528463632,0.024475230397322294
0.269069,0.014932426082166866,0.13763477475470362,0.014879868475199239,0.024118661016637566,0.02725477122866378,0.05680968206865321,0.007850736628026876,0.024677234638098643
0.2695345,0.014881853659029772,0.13786982926468214,0.014869066700843602,0.02411975954542603,0.027334376298658317,0.05727415208366735,0.0077971101153696066,0.024879121050252206
0.27,0.014830967669305273,0.1380979623158392,0.014860662168571568,0.02412362285032773,0.02741434692161516,0.0577385676773256,0.007742998278944328,0.025080853000392627
0.2704655,0.014779790702006771,0.1383191457549811,0.014854650402435209,0.024130238439141385,0.027494683134840023,0.05820282021511656,0.007688416365210792,0.025282393741736225
0.270931,0.014728345068616384,0.13853335192707306,0.01485102658848472,0.02413959297352733,0.02757538468645923,0.0586668006398718,0.007633379577251521,0.025483706423509292
0.2713966,0.01467665279804338,0.13874055367775698,0.014849785578027365,0.024151672270885993,0.02765645103714144,0.05913039950511788,0.007577903073467769,0.025684754100450884
0.2718621,0.014624735631778742,0.1389407243561476,0.014850921890923994,0.02416646130654233,0.027737881362030547,0.059593507008743704,0.007522001966355009,0.02588549974241145
0.2723276,0.01457261501924588,0.13913383781791244,0.014854429718919598,0.02418394421623755,0.027819674552888744,0.060056013026969494,0.00746569132135703,0.026085906244043305
0.2727931,0.014520312113347597,0.13931986842864097,0.014860302929004233,0.02420410429892947,0.027901829220448673,0.06051780714860341,0.007408986155797719,0.026285936434578876
0.2732586,0.014467847766209437,0.1394987910675076,0.014868535066800734,0.024226924019902625,0.027984343696973286,0.06097877870957232,0.007351901437889636,0.026485553087692505
0.2737241,0.014415242525119474,0.13967058113123254,0.014879119359975601,0.024252385014189262,0.028067216039022017,0.061438816827713,0.007294452085818449,0.02668471893144149
0.2741897,0.014362516628664643,0.13983521453834447,0.01489204872166949,0.024280468090302015,0.028150444030421738,0.06189781043781012,0.00723665296690233,0.02688339665828206
0.2746552,0.014309690003063704,0.13999266773374833,0.014907315753943655,0.02431115323427909,0.028234025185440836,0.06235564832686729,0.007178518896825414,0.02708154893515624
0.2751207,0.014256782258696785,0.14014291769360132,0.014924912751238766,0.024344419614042462,0.028317956752164697,0.06281221916959732,0.007120064638944359,0.027279138413645765
0.2755862,0.014203812686831546,0.14028594193049979,0.014944831703842506,0.02438024558406941,0.02840223571607075,0.06326741156411736,0.007061304903667063,0.027476127740189753
0.2760517,0.014150800256545753,0.1404217184989798,0.014967064301362435,0.02441860869037767,0.028486858803801092,0.06372111406783464,0.007002254347902534,0.027672479566363175
0.2765172,0.014097763611846073,0.1405502260013335,0.014991601936200619,0.024459485675824347,0.02857182248713047,0.06417321523350802,0.006942927574580885,0.027868156559213382
0.2769828,0.014044721068982727,0.1406714435937425,0.015018435707026507,0.02450285248571861,0.02865712298712733,0.06462360364547017,0.006883339132242355,0.028063121411652094
0.2774483,0.013991690613959593,0.14078535099273012,0.015047556422244602,0.02454868427374822,0.028742756278505362,0.06507216795599455,0.006823503514694257,0.02825733685290014
0.2779138,0.013938689900239153,0.14089192848193213,0.015078954603453336,0.024596955408219868,0.028828718094162938,0.0655187969217916,0.0067634351607346625,0.028450765658982025
0.2783793,0.013885736246641644,0.14099115691918615,0.015112620488891547,0.0246476394786131,0.028915003929907607,0.0659633794406169,0.006703148453941608,0.02864337066326726
0.2788448,0.013832846635437613,0.14108301774393842,0.015148544036868862,0.024700709302447596,0.02900160904936293,0.06640580458797422,0.006642657722526568,0.028835114767055223
0.2793103,0.01378003771063304,0.14116749298496714,0.015186714929176238,0.024756136932463327,0.029088528489054747,0.0668459616538961,0.006581977239250889,0.029025960950200203
0.2797759,0.013727325776445956,0.14124456526842125,0.015227122574472837,0.024813893664112924,0.029175757063674194,0.06728374017978364,0.006521121221403894,0.029215872281773126
0.2802414,0.013674726795973492,0.141314217826173,0.015269756111645319,0.024873950043365418,0.029263289371514872,0.06771902999528712,0.0064601038308412725,0.029404811930756468
0.2807069,0.013622256390048075,0.1413764345044831,0.015314604413135546,0.024936275874820397,0.02935111980008157,0.06815172125520873,0.006398939174082416,0.029592743176768875
0.2811724,0.01356992983628146,0.14143119977297583,0.015361656088232556,0.025000840230131424,0.029439242531867926,0.06858170447640839,0.006337641302465268,0.02977962942081594
0.2816379,0.013517762068295093,0.14147849873392224,0.015410899486324608,0.025067611456737318,0.02952765155030049,0.06900887057469329,0.006276224212357286,0.029965434196063463
0.2821034,0.013465767675135226,0.14151831713182744,0.015462322700107028,0.02513655718689989,0.029616340645846416,0.06943311090167187,0.006214701845421056,0.030150121178629377
0.282569,0.01341396090087115,0.14155064136331919,0.015515913568741744,0.025207644347046382,0.029705303422282107,0.06985431728155245,0.006153088088933105,0.030333654198390368
0.2830345,0.013362355644374716,0.14157545848733297,0.01557165968096452,0.025280839167414755,0.029794533303120256,0.07027238204786675,0.006091396776154389,0.030515997249798886
0.2835,0.013310965459279333,0.14159275623558834,0.015629548378136366,0.02535610719199968,0.02988402353819283,0.07068719808009799,0.0060296416867509205,0.03069711450270609
0.2839655,0.013259803554116456,0.14160252302335033,0.015689566757236078,0.025433413288796974,0.029973767210387785,0.07109865884019353,0.0059678365472630125,0.03087697031318598
0.284431,0.01320888279262761,0.14160474796046882,0.015751701673791623,0.025512721660343945,0.03006375724253744,0.07150665840894109,0.005905995031621544,0.031055529234355693
0.2848966,0.01315821569424983,0.14159942086268706,0.015815939744748764,0.025593995854553023,0.030153986404456372,0.07191109152218746,0.005844130761709668,0.031232756027186774
0.2853621,0.01310781443477245,0.1415865322632097,0.015882267351276073,0.02567719877583591,0.030244447320126745,0.0723118536068787,0.005782257307968355,0.031408615671301925
0.2858276,0.013057690847163001,0.1415660734245193,0.015950670641505918,0.025762292696515414,0.030335132475028875,0.07270884081690011,0.005720388190044117,0.031583073375751385
0.2862931,0.01300785642256,0.14153803635042939,0.01602113553321136,0.025849239268521933,0.030426034223614562,0.07310195006869448,0.005658536877477275,0.0317560945897631
0.2867586,0.012958322311430242,0.1415024137983615,0.016093647716419145,0.02593799953537167,0.03051714479692072,0.07349107907663696,0.005596716790429073,0.03192764501346042
0.2872241,0.012909099324888228,0.14145919929183312,0.01616819265595919,0.02602853394442326,0.030608456310320633,0.07387612638814499,0.005534941300445911,0.03209769060854091
0.2876897,0.012860197936175256,0.14140838713314294,0.016244755593951374,0.026120802359409456,0.030699960771409955,0.07425699141850153,0.005473223731258958,0.03226619760890963
0.2881552,0.01281162828229564,0.14134997241624123,0.01632332155223094,0.02621476407324033,0.030791650088024605,0.07463357448537011,0.0054115773596173375,0.032433132531260095
0.2886207,0.012763400165807471,0.1412839510397726,0.01640387533471426,0.026310377821074264,0.030883516076387445,0.07500577684298003,0.005350015416153069,0.03259846218559601
0.2890862,0.012715523056765241,0.14121031972027948,0.016486401529707123,0.026407601793652723,0.03097555046938034,0.07537350071596059,0.005288551086275907,0.03276215368568653
0.2895517,0.012668006094811664,0.14112907600555427,0.016570884512157855,0.026506393650894813,0.031067744924938245,0.0757366493328034,0.005227197511096216,0.032924174459447994
0.2900172,0.01262085809141589,0.1410402182881278,0.016657308445857808,0.02660671053574737,0.03116009103456143,0.07609512695893174,0.005165967788374015,0.033084492259244896
0.2904828,0.012574087532255262,0.14094374581888144,0.01674565728559167,0.026708509088286078,0.03125258033194195,0.07644883892935703,0.0051048749734922605,0.033243075172102864
0.2909483,0.012527702579737739,0.14083965872076942,0.01683591477924002,0.026811745460063208,0.031345204301700166,0.07679769168090214,0.005043932080452438,0.03339989162982647
0.2914138,0.012481711075661931,0.14072795800263563,0.016928064469836513,0.026916375328697263,0.031437954388226996,0.07714159278397241,0.004983152082890523,0.033554910419015024
0.2918793,0.012436120544011697,0.14060864557311,0.017022089697582007,0.027022353912699665,0.03153082200462728,0.07748045097385564,0.004922547915111328,0.03370810069096947
0.2923448,0.012390938193882102,0.14048172425456693,0.01711797360181794,0.02712963598653347,0.031623798541759576,0.07781417618153319,0.004862132473139292,0.03385943197148373
0.2928103,0.012346170922533402,0.14034719779712804,0.017215699122961132,0.027238175895898935,0.03171687537736755,0.078142679563985,0.0048019186157837335,0.034008874170514285
0.2932759,0.01230182531856967,0.14020507089269083,0.017315249004402164,0.027347927573240657,0.03181004388529785,0.07846587353397201,0.004741919165716632,0.03415639759172185
0.2937414,0.012257907665238554,0.14005534918896342,0.017416605794369645,0.02745884455347059,0.031903295444799556,0.07878367178928025,0.004682146910561012,0.034301972941879456
0.2942069,0.012214423943848566,0.13989803930348663,0.017519751847762544,0.02757087998990126,0.03199662144990014,0.0790959893414116,0.004622614603988037,0.03444557134014155
0.2946724,0.012171379837300158,0.13973314883762256,0.017624669327952976,0.027683986670383163,0.032090013318852806,0.0794027425437061,0.004563334966820976,0.03458716432716914
0.2951379,0.012128780733726773,0.1395606863904908,0.01773134020856182,0.02779811703364011,0.03218346250365006,0.07970384911888159,0.004504320688144233,0.03472672387410647
0.2956034,0.012086631730242041,0.13938066157283244,0.01783974627520965,0.027913223185796202,0.03227696049959812,0.07999922818597556,0.004445584426415648,0.03486422239140489
0.296069,0.01204493763678912,0.13919308502078276,0.017949869127245544,0.0280292569170878,0.032370498854946625,0.0802888002866747,0.004387138810580298,0.03499963273749017
0.2965345,0.012003702980088222,0.13899796840953352,0.01806169017945637,0.02814616971875364,0.03246406918056791,0.0805724874110168,0.004328996441184023,0.03513292822726973
0.297,0.01196293200767831,0.13879532446686638,0.01817519066375923,0.028263912800096044,0.03255766315967997,0.08085021302244944,0.004271169891484911,0.03526408264047665
0.2974655,0.011922628692048989,0.13858516698653886,0.018290351630879595,0.02838243710570591,0.03265127255760699,0.08112190208222957,0.004213671708560935,0.0353930702298475
0.297931,0.01188279673485862,0.13836751084150428,0.018407153952017873,0.028501693332843914,0.03274488923157128,0.08138748107314776,0.004156514414411947,0.035519865729131274
0.2983966,0.011843439571234803,0.13814237199694646,0.018525578320506806,0.0286216319489703,0.03283850514051043,0.08164687802256067,0.004099710507054192,0.035644444360926876
0.2988621,0.011804560374153417,0.13790976752310957,0.018645605253462337,0.02874220320941538,0.032932112354913105,0.08190002252471584,0.00404327246160552,0.03576678184434664
0.2993276,0.011766162058892558,0.13766971560790298,0.018767215093430375,0.028863357175182673,0.033025703066667265,0.082146845762354,0.003987212731359431,0.03588685440250328
0.2997931,0.011728247287557904,0.13742223556925923,0.01889038801003181,0.028985043730876653,0.033119269598914335,0.08238728052757537,0.003931543748846153,0.03600463876981756
0.3002586,0.011690818473676142,0.13716734786722526,0.019015104001608052,0.02910721260274679,0.033212804415903026,0.08262126124195882,0.0038762779268789196,0.03612011219914354
0.3007241,0.011653877786853381,0.13690507411576475,0.019141342896869206,0.02922981337683983,0.03330630013283648,0.08284872397592513,0.003821427659583687,0.036233252468708385
0.3011897,0.011617427157495601,0.136635437094251,0.01926908435654689,0.029352795517252086,0.03339974952570636,0.08306960646733813,0.0037670053234105305,0.036344037888863236
0.3016552,0.011581468281588422,0.13635846075862879,0.019398307875053637,0.029476108384473506,0.03349314554110759,0.0832838481393399,0.003713023278125031,0.0364524473086414
0.3021207,0.011546002625533593,0.13607417025222374,0.019528992782150516,0.029599701253815308,0.033586481306027205,0.08349139011741845,0.0036594938677779543,0.0365584601221201
0.3025862,0.011511031431039737,0.13578259191617734,0.019661118244624683,0.029723523333912705,0.03367975013760106,0.08369217524570847,0.0036064294216515986,0.03666205627458178
0.3030517,0.011476555720064938,0.13548375329948592,0.01979466326797822,0.02984752378529429,0.033772945552832084,0.08388614810252709,0.003553842255181184,0.03676321626847111
0.3035172,0.011442576299808849,0.13517768316862158,0.01992960669812969,0.02997165173900935,0.033866061278264074,0.08407325501514848,0.003501744670849693,0.03686192116914365
0.3039828,0.011409093767752005,0.13486441151671344,0.02006592722312961,0.030095856315304335,0.03395909125960493,0.08425344407382263,0.003450148959054593,0.036958152610402355
0.3044483,0.01137610851674012,0.13454396957226777,0.020203603374890987,0.030220086642339564,0.03405202967129339,0.08442666514504453,0.003399067398944888,0.03705189279981835
0.3049138,0.011343620740111164,0.13421638980740477,0.020342613530935853,0.030344291874937035,0.034144870926003025,0.08459286988408059,0.0033485122592269803,0.03714312452383254
0.3053793,0.011311630436863026,0.13388170594558957,0.020482935916158698,0.030468421213350215,0.034237609684076936,0.08475201174675963,0.0032984957989378445,0.03723183115263479
0.3058448,0.011280137416859614,0.13353995296883447,0.0206245486046075,0.030592423922046228,0.034330240862886705,0.08490404600053618,0.003249030268184081,0.03731799664481797
0.3063103,0.011249141306073223,0.13319116712434842,0.020767429521283028,0.03071624934849095,0.034422759646108574,0.08504892973483376,0.003200127908845414,0.03740160555180407
0.3067759,0.011218641551861001,0.13283538593060934,0.02091155644395697,0.030839846941927207,0.034515161492909896,0.08518662187067545,0.003151800955241232,0.03748264302204005
0.3072414,0.011188637428273201,0.13247264818283583,0.02105690700500946,0.030963166272136064,0.03460744214703847,0.08531708316960922,0.0031040616347587625,0.037561094804961385
0.3077069,0.011159128041390933,0.13210299395783393,0.021203458693286638,0.03108615704817116,0.03469959764580716,0.08544027624193473,0.0030569221684414605,0.037636947254721435
0.3081724,0.011130112334691043,0.1317264646181971,0.02135118885597872,0.03120876913705586,0.0347916243289662,0.08555616555423827,0.003010394771536187,0.037710187333685134
0.3086379,0.011101589094435713,0.1313431028158381,0.021500074700519275,0.0313309525824329,0.034883518847454796,0.08566471743624136,0.002964491653997758,0.03778080261568559
0.3091034,0.011073556955084383,0.13095295249483457,0.021650093296506256,0.031452657623156494,0.03497527817202404,0.08576590008696859,0.0029192250209494567,0.0378487812890424
0.309569,0.011046014404725656,0.13055605889357152,0.021801221577645344,0.03157383471181671,0.03506689960172239,0.08585968358023932,0.0028746070730981026,0.03791411215934076
0.3100345,0.011018959790526844,0.1301524685461676,0.02195343634371624,0.03169443453318654,0.03515838077223503,0.08594603986948769,0.0028306500071022707,0.03797678465197052
0.3105,0.01099239132419892,0.12974222928317253,0.022106714262562336,0.03181440802258178,0.03524971966406827,0.08602494279191467,0.0027873660158922522,0.03803678881442442
0.3109655,0.010966307087474666,0.12932539023152467,0.02226103187210427,0.03193370638412439,0.03534091461057024,0.08609636807197527,0.0027447672889403503,0.03809411531835516
0.311431,0.010940705037597958,0.1289020018137585,0.02241636558237779,0.03205228110889942,0.03543196430577886,0.08616029332420386,0.002702866012480112,0.038148755461390675
0.3118966,0.01091558301282213,0.1284721157464512,0.022572691677596443,0.032170083992995785,0.03552286781208873,0.08621669805537989,0.002661674369673096,0.03820070116870746
0.3123621,0.010890938737915457,0.12803578503789836,0.022729986318239453,0.032287067155420936,0.03561362456772854,0.08626556366603573,0.002621204540721792,0.03824994499436158
0.3128276,0.010866769829671828,0.12759306398500858,0.022888225543165327,0.03240318305587924,0.03570423439404088,0.08630687345130798,0.0025814687029273157,0.03829648012237729
0.3132931,0.01084307380242471,0.12714400816940968,0.023047385271751653,0.032518384512403964,0.035794697502556885,0.08634061260113303,0.002542479030690543,0.03834030036759319
0.3137586,0.010819848073562604,0.12668867445275991,0.023207441306061363,0.032632624718832756,0.035885014501858416,0.08636676819978764,0.002504247695455369,0.038381400176265956
0.3142241,0.0107970899690442,0.1262271209712609,0.023368369333035845,0.032745857262116554,0.035975186404220594,0.0863853292247753,0.002466786865592859,0.03841977462643179
0.3146897,0.010774796728911497,0.12575940712937028,0.02353014492671511,0.032858036139451825,0.036065214632028074,0.08639628654505886,0.002430108706225133,0.03845541942802601
0.3151552,0.010752965512799247,0.1252855935927146,0.02369274355048516,0.03296911577522629,0.03615510102395862,0.08639963291864035,0.0023942253789879147,0.03848833092276121
0.3156207,0.010731593405439147,0.124805742280204,0.02385614055935276,0.03307905103776849,0.03624484784092791,0.08639536298948923,0.002359149041730797,0.03851850608376484
0.3160862,0.010710677422157186,0.12431991635535115,0.024020311202247804,0.033187797255891695,0.036334457771789536,0.08638347328382014,0.002324891848154373,0.03854594251497692
0.3165517,0.010690214514362665,0.1238281802167984,0.02418523062435352,0.03329531023522322,0.03642393393878452,0.08636396220572186,0.0022914659473835123,0.03857063845030892
0.3170172,0.010670201575027393,0.12333059948805708,0.024350873869464988,0.03340154627431022,0.03651327990273463,0.08633683003213943,0.0022588834834761603,0.0385925927525649
0.3174828,0.01065063544415361,0.12282724100646454,0.0245172158823765,0.03350646218049376,0.03660249966797381,0.08630207890721182,0.002227156594867147,0.03861180491212597
0.3179483,0.010631512914229153,0.12231817281136417,0.024684231511298626,0.03361001528554281,0.036691597687011863,0.08625971283596764,0.002196297413746567,0.03862827504539906
0.3184138,0.010612830735668353,0.12180346413151537,0.024851895510306088,0.033712163461040466,0.0367805788649244,0.08620973767738219,0.002166318065372361,0.03864200389303094
0.3188793,0.010594585622237087,0.12128318537174083,0.025020182541817797,0.03381286513351464,0.03686944856346286,0.08615216113679938,0.0021372306673167613,0.038652992817887984
0.3193448,0.01057677425646037,0.12075740809882037,0.025189067179110743,0.03391207929930611,0.0369582126048783,0.08608699275772284,0.0021090473286462736,0.038661243802802246
0.3198103,0.010559393295010778,0.12022620502664103,0.02535852390886954,0.03400976553916691,0.03704687727545235,0.08601424391298162,0.002081780149034883,0.038666759448083794
0.3202759,0.010542439374075972,0.11968965000061456,0.025528527133773703,0.03410588403258239,0.03713544932872886,0.0859339277952776,0.0020554412178101426,0.038669542968799375
