Time,Rectus Femoris right,Rectus Femoris left,Hamstrings right,Hamstrings left,TibilaisÂ Anterior right,TibilaisÂ Anterior left,Gastrocnemius right,Gastrocnemius left
0.0,-0.0007173176996191256,0.0009458435359148239,-0.007521582066622786,-0.006158221907920832,0.0012883651959539083,-0.0019285555010252198,0.0006831803084417295,-0.008333893952192098
0.0004655,-0.0006601388837372631,0.0010030787673479087,-0.007309893456539355,-0.005629440034590955,0.0013333670348663364,-0.0016908876159669832,0.0006536513948359634,-0.007659755811418872
0.000931,-0.0006033078951531493,0.0010609468288936066,-0.007094313069597496,-0.00510150623252571,0.0013787629805119312,-0.0014520788751919862,0.0006240865042179548,-0.0069893890764681785
0.0013966,-0.000546831205594792,0.0011194489390301122,-0.006874810429874982,-0.0045744960539751385,0.0014245523984574237,-0.0012121488887956683,0.0005945001542923821,-0.006322892638263863
0.0018621,-0.0004907151248118215,0.0011785862595674456,-0.006651355319858693,-0.004048484895937902,0.0014707346340954016,-0.0009711174798083817,0.0005649071567999801,-0.0056603643171783576
0.0023276,-0.0004349657968137433,0.0012383598952008252,-0.006423917789457151,-0.003523547976680293,0.001517309013583848,-0.0007290046800421461,0.00053532261804142,-0.005001900828409882
0.0027931,-0.0003795891961605742,0.0012987708930558715,-0.0061924681650915485,-0.002999760312322693,0.0015642748447910549,-0.0004858307259029434,0.0005057619393244588,-0.004347597747853449
0.0032586,-0.00032459112430857737,0.0013598202422248672,-0.005956977058864957,-0.002477196693507963,0.001611631418244328,-0.00024161605417092884,0.00047624081733303416,-0.0036975494784894304
0.0037241,-0.00026997720601376596,0.0014215088732933163,-0.005717415377809312,-0.0019559316621652304,0.0016593780080810805,3.6187022491400702e-06,0.00044677524441702775,-0.0030518492173131754
0.0041897,-0.00021575288579580456,0.0014838376578560609,-0.005473754333209577,-0.0014360394883815284,0.0017075138730011476,0.00024985271860500206,0.00041738150880146204,-0.0024105889228290002
0.0046552,-0.00016192342446488573,0.0015468074080222357,-0.005225965450004356,-0.0009175941473929352,0.0017560382572193835,0.0004970649825993121,0.0003880761947139245,-0.0017738592831315527
0.0051207,-0.00010849389571410486,0.0016104188759083807,-0.00497402057626209,-0.00040066929670628447,0.0018049503914178422,0.0007452342987152255,0.00035887618242902935,-0.001141749684597334
0.0055862,-5.5469182779794515e-05,0.001674672753119103,-0.00471789189273184,0.00011466174663785523,0.0018542494936970185,0.0009943392925630611,0.0003297986482287392,-0.0005143481812088925
0.0060517,-2.8539751722149815e-06,0.0017395696702147735,-0.004457551922467513,0.0006283260286504415,0.0019039347705257254,0.0012443584152460547,0.0003008610642773825,0.00010825853546599754
0.0065172,4.9347234521070987e-05,0.0018051101961658786,-0.004192973540524274,0.001140250980817099,0.00195400541768928,0.0014952699477433235,0.0002720811984102166,0.0007259851656181332
0.0069828,0.00010113015375688312,0.0018712948377937611,-0.003924129983725729,0.0016503644423489343,0.0020044606212357013,0.0017470520053082944,0.00024347711383440683,0.0013387478298420017
0.0074483,0.0001524906930809869,0.0019381240391976064,-0.0036509948605003575,0.002158594682251054,0.002055299558419672,0.0019996825418809837,0.0002150671687413096,0.0019464640970611466
0.0079138,0.00020342496909343382,0.0020055981811676134,-0.003373542160785526,0.0026648704211991504,0.002106521398644005,0.0022531393545126696,0.00018687001582896813,0.002549053011713495
0.0083793,0.000253929307332663,0.0020737175805843485,-0.0030917462659972718,0.003169120853214943,0.0021581253043983692,0.002507400087801644,0.00015890460173374266,0.003146435120177282
0.0088448,0.0003040002450764379,0.0021424824898043354,-0.0028055819590639096,0.0036712756671316597,0.0022101104321950206,0.002762442238338888,0.0001311901663700175,0.003738532496419158
0.0093103,0.0003536345340577852,0.0022118930960319696,-0.002515024434521338,0.0041712650678410726,0.00226247593350128,0.0030182431591626543,0.00010374624217695082,0.004325268766846904
0.0097759,0.0004028291430941988,0.0022819495206778803,-0.0022200493086677506,0.004669019797313781,0.0023152209556685037,0.0032747800642210605,7.659265327126446e-05,0.0049065691343498355
0.0102414,0.00045158126062846553,0.0023526518187039166,-0.0019206326297753322,0.005164471155384571,0.002368344642857271,0.0035320300328418796,4.974951450510519e-05,0.00548236040151045
0.0107069,0.0004998882971795691,0.0024239999779549597,-0.0016167508883563261,0.005657551020294739,0.00242184613695851,0.003789970014208779,2.3237230428043313e-05,0.006052570992971327
0.0111724,0.0005477478877022257,0.0024959939184777988,-0.0013083810274806679,0.006148191868983355,0.0024757245785102687,0.0040485768318432955,-2.9235058476945367e-06,0.006617130976941827
0.0116379,0.0005951578938537004,0.0025686334918273435,-0.0009955004531421556,0.006636326797119529,0.0025299791076098203,0.004307827188091867,-2.871171387963846e-05,0.007175972085829797
0.0121034,0.000642116406166657,0.0026419184803604715,-0.0006780870446699037,0.0071218895388678385,0.002584608864820807,0.004567697668617273,-5.4106127225996516e-05,0.0077290277359843285
0.012569,0.0006886217461268829,0.0027158485965178164,-0.0003561191651816701,0.007604814486379119,0.00263961299207511,0.004828164746893953,-7.908519487593165e-05,0.00827623304653655
0.0130345,0.0007346724681548318,0.0027904234820938134,-2.957567207551983e-05,0.008085036708998907,0.0026949906335691576,0.005089204788706773,-0.00010362708278002505,0.008817524857326633
0.0135,0.0007802673614900155,0.0028656427074953473,0.0003015640724437844,0.00856249197218582,0.0027507409366543997,0.00535079405665305,-0.00012770967548173605,0.009352841745906563
0.0139655,0.0008254054519773698,0.00294150577098936,0.0006373201908073331,0.009037116756132179,0.002806863052721675,0.005612908714647854,-0.0001513105778506477,0.00988212404360984
0.014431,0.0008700860037547894,0.0030180120979398086,0.0009777122794972742,0.009508848274079159,0.0028633561380792144,0.0058755248324328276,-0.0001744071169182654,0.010405313850681023
0.0148966,0.0009143085208410864,0.0030951610400343794,0.0013227593984384224,0.009977624490318743,0.0029202193548240217,0.006138618390089012,-0.00019697634381711342,0.01092235505045968
0.0153621,0.0009580727486236679,0.0031729518745013873,0.0016724800603700517,0.010443384137874732,0.0029774518717063944,0.006402165282554226,-0.0002189950358238416,0.011433193322614797
0.0158276,0.0010013786752452708,0.0032513838033172747,0.0020268922202016596,0.010906066735855063,0.0030350528649873624,0.006666141324145642,-0.00024043969850701268,0.01193777615542683
0.0162931,0.0010442265328891454,0.003330455952405123,0.002386013264356499,0.01136561260646771,0.003093021519288845,0.006930522253088157,-0.00026128656798018584,0.012436052857115283
0.0167586,0.0010866167989621429,0.0034101673708245893,0.0027498600001066723,0.011821962891692475,0.0031513570284363475,0.007195283736049149,-0.0002815116132608515,0.01292797456621031
0.0172241,0.00112855019717523,0.0034905170299536566,0.0031184486449035947,0.012275059569601114,0.003210058596294056,0.00746040137268015,-0.0003010905387357074,0.013413494260967511
0.0176897,0.0011700276985210356,0.003571503822662606,0.003491794815707668,0.012724845470318463,0.0032691254375921976,0.0077258507001659,-0.00031999878673269694,0.013892566767825904
0.0181552,0.0012110505221480951,0.003653126562480616,0.003869913518321032,0.013171264291617564,0.0033285567787465693,0.007991607197781237,-0.00033821154020015825,0.014365148768910188
0.0186207,0.0012516201361315374,0.003735383982755406,0.00425281913672733,0.013614260614142181,0.0033883518586701553,0.00825764629145619,-0.0003557037254933585,0.01483119880857973
0.0190862,0.0012917382581400074,0.003818274735806366,0.00464052542244247,0.014053779916250593,0.0034485099295767678,0.008523943358349634,-0.00037245001526861946,0.015290677299027944
0.0195517,0.0013314068559986804,0.0039017973920716263,0.005033045483880447,0.01448976858847505,0.0035090302577766666,0.008790473731431783,-0.00038842483148518524,0.015743546524937275
0.0200172,0.001370628148148273,0.0039859504392495415,0.005430391775738314,0.014922173947591948,0.0035699121244641137,0.009057212704075779,-0.00040360234851494,0.0161897706471965
0.0204828,0.0014094046040000168,0.004070732281435106,0.005832576088404487,0.015350944250298213,0.0036311548264968286,0.009324135534658553,-0.0004179564963600562,0.01662931570568874
0.0209483,0.001447738944186621,0.004156141238251829,0.006239609537394557,0.01577602870649001,0.0036927576771673028,0.009591217451171101,-0.00043146096397863015,0.01706214962116021
0.0214138,0.0014856341407093172,0.004242175543979653,0.006651502552818851,0.016197377492140397,0.003754720006965937,0.009858433655838252,-0.0004440892027183424,0.017488242196181426
0.0218793,0.001523093416981147,0.004328833346679496,0.007068264868885984,0.01661494176177297,0.003817041164335934,0.01012575932974789,-0.00045581442985816634,0.01790756511521397
0.0223448,0.0015601202477667079,0.004416112707315079,0.0074899055134466505,0.017028673660528924,0.003879720516419874,0.010393169637489647,-0.00046660963225813294,0.018320091943797027
0.0228103,0.0015967183590186458,0.004504011598872692,0.007916432797581875,0.017438526335825304,0.003942757449797872,0.010660639731802934,-0.0004764475701171469,0.018725798126868764
0.0232759,0.0016328917276112354,0.0045925279054796,0.008347854305239977,0.017844453948602294,0.004006151371217195,0.010928144758234249,-0.0004853007808388391,0.01912466098623795
0.0237414,0.0016686445809714593,0.00468165942152181,0.008784176882926495,0.018246411684157623,0.004069901708313177,0.011195659859803612,-0.0004931415830054257,0.019516659717221437
0.0242069,0.0017039813966080708,0.004771403850761961,0.009225406629451415,0.01864435576256629,0.00413400791032125,0.011463160181680088,-0.0004999420804595268,0.019901775384463066
0.0246724,0.0017389069015391985,0.004861758805458108,0.009671548885738165,0.019038243448684048,0.004198469448779874,0.011730620875866276,-0.0005056741664938802,0.020279990916949552
0.0251379,0.0017734260716191286,0.0049527218054841796,0.010122608224698968,0.019428033061733692,0.004263285818224116,0.011998017105891743,-0.000510309528148866,0.020651291102238713
0.0256034,0.0018075441307649869,0.005044290277452936,0.010578588441181386,0.019813683984473744,0.004328456536869613,0.012265324051515324,-0.0005138196506177409,0.021015662579915367
0.026069,0.0018412665500841183,0.005136461553842236,0.011039492541991104,0.02019515667195003,0.004393981147286615,0.01253251691343621,-0.0005161758217594622,0.021373093834290167
0.0265345,0.0018745990469030377,0.00522923287212544,0.011505322735996255,0.020572412659831254,0.004459859217063782,0.012799570918013745,-0.0005173491367189534,0.0217235751863566
0.027,0.001907547583698873,0.005322601373906793,0.01197608042431879,0.020945414572330383,0.004526090339461373,0.013066461321995725,-0.0005173105026546302,0.022067098785021284
0.0274655,0.0019401183669342712,0.00541656410406263,0.0124517661906186,0.021314126129714235,0.004592674134053488,0.013333163417255184,-0.000516030643572964,0.022403658597622778
0.027931,0.0019723178457967555,0.00551111800988923,0.012932379791476215,0.02167851215540397,0.0046596102473589526,0.01359965253553559,-0.0005134801052698045,0.02273325039975399
0.0283966,0.0020041527108435385,0.005606259940258212,0.013417920146879902,0.02203853858266952,0.004726898353460444,0.013865904053204701,-0.0005096292603781267,0.02305587176440349
0.0288621,0.002035629892552799,0.0057019866447803385,0.013908385330823033,0.02239417246092118,0.004794538154611412,0.014131893396017553,-0.0005044483135218035,0.023371522050430964
0.0293276,0.0020667565597824434,0.005798294772978693,0.014403772562017535,0.022745381961601713,0.004862529381830334,0.014397596043889346,-0.0004979073065749367,0.023680202390392396
0.0297931,0.0020975401181373755,0.005895180873472227,0.014904078194729314,0.023092136383682352,0.004930871795481821,0.014662987535679113,-0.0004899761240262291,0.023981915677730514
0.0302586,0.002127988208246346,0.005992641393170747,0.015409297709741466,0.02343440615876608,0.004999565185844103,0.014928043473985289,-0.0004806244984478325,0.024276666553346062
0.0307241,0.0021581087039494653,0.0060906726764824535,0.015919425705451257,0.023772162855801512,0.005068609373662428,0.015192739529954242,-0.00046982201606807336,0.0245644613915656
0.0311897,0.0021879097103975256,0.006189270964535192,0.016434455889106695,0.024105379185410444,0.005138004210687912,0.015457051448102884,-0.0004575381224474312,0.024845308285521443
0.0316552,0.002217399562064293,0.00628843239441264,0.016954381068188664,0.024434029003832125,0.005207749580201377,0.015720955051156348,-0.00044374212825710666,0.025119217031959358
0.0321207,0.002246586820672965,0.00638815299840666,0.01747919314194441,0.024758087316487022,0.005277845397521696,0.015984426244901696,-0.00042840321515946625,0.02538619911548957
0.0325862,0.0022754802730379988,0.00648842870328713,0.018008883093078246,0.025077530281162677,0.0053482916104981345,0.016247441023058477,-0.0004114904417895899,0.025646267692296755
0.0330517,0.002304088928823517,0.0065892553295905576,0.01854344097960515,0.025392335210824128,0.005419088199986141,0.016509975472166833,-0.0003929727498370792,0.025899437573324535
0.0335172,0.0023324220182194917,0.006690628590928828,0.01908285592687297,0.02570248057605122,0.005490235180306012,0.016772005776493754,-0.0003728189702272262,0.02614572520695014
0.0339828,0.002360488989536904,0.006792544093319444,0.01962711611975887,0.02600794600710488,0.0055617325996838,0.0170335082229579,-0.0003509978294005882,0.026385148661164867
0.0344483,0.002388299506723046,0.006894997334538588,0.020176208795045555,0.026308712295624447,0.0056335805406738555,0.017294459206073347,-0.00032747795568995595,0.026617727605276035
0.0349138,0.0024158634467981396,0.006997983703498355,0.020730120233982956,0.026604761395957983,0.005705779120562344,0.017554835232912406,-0.0003022278857936352,0.026843483291146025
0.0353793,0.0024431908972144243,0.00710149847964949,0.021288835755040907,0.02689607642612726,0.005778328491751084,0.01781461292808766,-0.0002752160713438743,0.027062438533984108
0.0358448,0.0024702921531388616,0.007205536832410904,0.021852339706858473,0.02718264166842911,0.005851228842121084,0.01807376903875316,-0.00024641088556916695,0.02727461769270674
0.0363103,0.002497177714660606,0.0073100938206272755,0.022420615461395496,0.027464442569674667,0.005924480395375124,0.018332280439624656,-0.00021578063004905985,0.027480046649881948
0.0367759,0.002523858283924388,0.0074151643920559755,0.022993645407292,0.027741465741067842,0.005998083411358826,0.01859012413801856,-0.00018329354156000263,0.027678752791273426
0.0372414,0.0025503447621909613,0.007520743382884569,0.023571410943440972,0.028013698957724376,0.006072038186359589,0.018847277278909398,-0.00014891779901070464,0.02787076498499992
0.0377069,0.00257664824682578,0.007626825517280109,0.02415389247277997,0.028281131157832522,0.006146345053382903,0.019103717150005178,-0.00011262153046540517,0.02805611356032544
0.0381724,0.0026027800282170614,0.007733405406971408,0.024741069396306957,0.02854375244145649,0.00622100438240553,0.019359421186840094,-7.43728202534242e-05,0.02823483028609567
0.0386379,0.002628751586624404,0.007840477550865465,0.02533292010732557,0.028801554068983635,0.006296016580605099,0.019614366977883883,-3.413971616333319e-05,0.028406948348836024
0.0391034,0.002654574588959103,0.007948036334699135,0.02592942198592493,0.02905452845921627,0.006371382092565697,0.019868532269666936,8.10976327993054e-06,0.02857250233052658
0.039569,0.002680260885497316,0.008056076030727095,0.02653055139369888,0.029302669187108953,0.006447101400459016,0.02012189497192028,5.2407621456693196e-05,0.028731528186069118
0.0400345,0.002705822506527199,0.008164590797447099,0.02713628366870946,0.029545970981152057,0.0065231750242007005,0.020374433162729345,9.878587621461316e-05,0.02888406322046131
0.0405,0.0027312716589311245,0.008273574679363474,0.027746593120699232,0.029784429720402603,0.006599603521581481,0.020626125093700178,0.00014727655235289672,0.029030146065693124
0.0409655,0.0027566207227040706,0.008383021606789713,0.028361453026556866,0.03001804243116331,0.006676387488372713,0.020876949195136902,0.00019791167403038605,0.029169816657380283
0.041431,0.002781882247409269,0.008492925395691022,0.028980835626040313,0.03024680728331118,0.006753527558405906,0.021126884081228762,0.00025072325709926956,0.02930311621114952
0.0418966,0.002807068948572189,0.00860327974756752,0.029604712117761663,0.030470723586277025,0.006831024403625851,0.021375908555245154,0.0003057433013661954,0.029430087198790145
0.0423621,0.0028321937040139225,0.008714078249378816,0.030233052655437635,0.030689791784677834,0.006908878734116889,0.021624001614736744,0.000363003782782605,0.029550773324186368
0.0428276,0.0028572695501250457,0.00882531437351058,0.030865826344409406,0.030904013453603985,0.006987091298101934,0.02187114245674067,0.0004225366455661406,0.029665219499044545
0.0432931,0.0028823096780810123,0.008936981477783656,0.03150300123843525,0.03111339129356363,0.007065662881913853,0.02211731048298762,0.0004843737942550144,0.02977347181842947
0.0437586,0.002907327430000139,0.009049072805506288,0.032144544336759236,0.03131792912508682,0.00714459430993882,0.02236248530510845,0.0005485470856972564,0.02987557753612357
0.0442241,0.002932336295045237,0.009161581485569855,0.03279042158145897,0.03151763188299208,0.0072238864445312405,0.022606646749837766,0.0006150883209767771,0.029971585039822637
0.0446897,0.0029573499054699436,0.00927450053258861,0.033440597855075214,0.03171250561031822,0.007303540185899898,0.022849774864211768,0.0006840292372782063,0.03006154382618165
0.0451552,0.0029823820326108194,0.009387822847083732,0.034095036978525735,0.0319025574519243,0.007383556471964928,0.023091849920757582,0.0007554014996924786,0.03014550447572401
0.0456207,0.0030074465828263067,0.009501541215712016,0.03475370170930572,0.03208779564776074,0.007463936278185252,0.023332852422671108,0.0008292366929651606,0.03022351862762715
0.0460862,0.00303255759338365,0.00961564831153944,0.03541655373997677,0.03226822952581444,0.0075446806173560515,0.023572763108980453,0.0009055663131895207,0.030295638954397443
0.0465517,0.003057729228294899,0.009730136694359813,0.03608355369694611,0.032443869494730666,0.007625790539375876,0.023811562959691935,0.000984421759446357,0.03036191913644682
0.0470172,0.003082975774103151,0.009844998811058735,0.036754661139537674,0.03261472703611463,0.007707267130982937,0.02404923320091573,0.0010658343253926075,0.030422413836583527
0.0474828,0.0031083116356201927,0.009960226996022946,0.03742983455935628,0.03278081469651564,0.007789111515460136,0.024285755309968265,0.0011498351908007793,0.030477178674429017
0.0479483,0.003133751331616734,0.01007581347159523,0.038109031379945986,0.032942146079096984,0.00787132485230835,0.02452111102044859,0.0012364554130512627,0.03052627020077272
0.0484138,0.0031593094904664113,0.010191750348574896,0.03879220795674346,0.03309873583499498,0.007953908336887446,0.02475528232728615,0.0013257259185796158,0.030569745871876223
0.0488793,0.003185000845744759,0.010308029626763849,0.03947931957732695,0.033250599654371174,0.008036863200024532,0.02498825149175752,0.0014176774942809551,0.030607664023738258
0.0493448,0.0032108402317843053,0.010424643195558192,0.04017032046196134,0.03339775425716193,0.00812019070758885,0.02522000104646974,0.0015123407788736204,0.030640083846331535
0.0498103,0.0032368425791869703,0.010541582834585329,0.040865163764439306,0.0335402173835303,0.008203892160032762,0.02545051380030806,0.0016097462542243363,0.030667065357822373
0.0502759,0.003263022910294884,0.010658840214386428,0.04156380157321868,0.03367800778402519,0.008287968891898229,0.02567977284334583,0.0017099242366371333,0.030688669378783895
0.0507414,0.0032893963346207642,0.010776406897144172,0.04226618491285569,0.03381114520945345,0.008372422271288142,0.025907761551714276,0.001812904868108338,0.030704957506413527
0.0512069,0.0033159780442389417,0.010894274337455623,0.042972263745733666,0.03393965040047066,0.00845725369930191,0.02613446359242974,0.001918718107549981,0.030715992088765347
0.0516724,0.003342783309138125,0.011012433883150074,0.043681986974086574,0.034063545076896615,0.008542464609434608,0.026359862928175812,0.0020273937219839997,0.030721836199007774
0.0521379,0.0033698274725369516,0.01113087677615168,0.044395302442316785,0.03418285192676208,0.008628056466939074,0.026583943822037784,0.002138961277709635,0.030722553609716947
0.0526034,0.003397125946163398,0.011249594153386602,0.04511215693960628,0.034297594595093295,0.008714030768150248,0.026806690842186794,0.0022534501314464554,0.030718208767215954
0.053069,0.003424694205499111,0.011368577047734372,0.04583249620282035,0.034407797672441155,0.008800389039771093,0.02702808886651116,0.002370889421455452,0.030708866765969987
0.0535345,0.0034525477849897484,0.011487816389023105,0.046556264919702925,0.03451348668316183,0.008887132838119437,0.027248123087192506,0.0024913080586406755,0.030694593323047088
0.054,0.0034807022732224586,0.011607303005068103,0.04728340673236283,0.03461468807345599,0.008974263748335022,0.027466779015224582,0.002614734717633945,0.030675454752654152
0.0544655,0.00350917330807166,0.011727027622753291,0.04801386424105004,0.034711429199173596,0.009061783383546131,0.027684042484872884,0.0027411978278651513,0.030651517940757433
0.054931,0.0035379765718143294,0.011846980869154911,0.04874757900822126,0.034803738313390904,0.009149693383995135,0.027899899658073442,0.0028707255646207427,0.030622850319796793
0.0553966,0.003567127786216042,0.01196715327270682,0.04948449156289432,0.03489164455376645,0.009237995416122382,0.028114337028769185,0.0030033458400930213,0.030589519843502572
0.0558621,0.003596642707589058,0.012087535264406743,0.05022454140529065,0.03497517792968234,0.009326691171607943,0.02832734142718237,0.0031390862944229462,0.0305515949618238
0.0563276,0.0036265371218237637,0.012208117179062852,0.05096766701176556,0.03505436930917722,0.00941578236637077,0.02853890002402152,0.003277974286739205,0.030509144595976125
0.0567931,0.003656826839394823,0.012328889256580025,0.0517138058400255,0.03512925040567698,0.009505270739524957,0.028749000334621144,0.0034200368861963754,0.030462238113617753
0.0572586,0.003687527690343379,0.012449841643285203,0.05246289433463187,0.035199853764529415,0.00959515805229281,0.028957630223012423,0.003565300863015018,0.030410945304161278
0.0577241,0.003718655519236695,0.01257096439329129,0.053214867932790386,0.035266212749348796,0.009685446086874501,0.029164777905923072,0.0037137926795265813,0.030355336354229177
0.0581897,0.003750226180106598,0.012692247469899096,0.053969661070425196,0.03532836152817642,0.009776136645274026,0.029370431956704357,0.0038655384812259813,0.03029548182326063
0.0586552,0.0037822555313681387,0.01281368074703682,0.05472720718853662,0.035386335059463175,0.009867231548081234,0.02957458130918334,0.004020564087834726,0.03023145261927689
0.0591207,0.003814759430719841,0.012935254010736684,0.05548743873984127,0.035440169077880244,0.009958732633209594,0.02977721526143827,0.004178894984377445,0.030163319974812468
0.0595862,0.0038477537300269505,0.013056956960648233,0.05625028719569317,0.03548990007996405,0.010050641754589317,0.029978323479494823,0.004340556312274684,0.030091155423019086
0.0600517,0.0038812542701890684,0.013178779211587987,0.057015683053284236,0.03553556530960152,0.010142960780815377,0.03017789600094088,0.004505572860454849,0.030015030773949177
0.0605172,0.003915276875993551,0.013300710295125015,0.05778355584312272,0.035577202743361964,0.010235691593749895,0.030375923238457173,0.004673969056488177,0.02993501809102539
0.0609828,0.003949837350956056,0.01342273966120214,0.058553834136787525,0.035614851075681464,0.010328836087078323,0.030572395983261065,0.004845768957745648,0.029851189667702508
0.0614483,0.003984951472149592,0.013544856679792444,0.05932644555495638,0.03564854970390632,0.010422396164818805,0.03076730540846051,0.005020996242585741,0.029763618004327766
0.0619138,0.004020634985023403,0.013667050642590743,0.06010131677570539,0.03567833871320136,0.010516373739784118,0.030960643072315087,0.005199674201571968,0.02967237578520539
0.0623793,0.004056903598213048,0.013789310764739724,0.06087837354307751,0.035704258861329455,0.010610770731995647,0.03115240092140091,0.005381825728724145,0.029577535855870935
0.0628448,0.004093772978342974,0.013911626186590417,0.061657540675917256,0.03572635156330795,0.010705589067048918,0.03134257129367605,0.005567473312806419,0.029479171200580696
0.0633103,0.004131258744822916,0.014033985975496705,0.06243874207696961,0.03574465887594812,0.010800830674430334,0.03153114692144295,0.005756639028655084,0.029377354920021307
0.0637759,0.00416937646463943,0.01415637912764356,0.06322190074224142,0.035759223482283234,0.01089649748578486,0.031718120934204286,0.005949344528549316,0.02927216020924431
0.0642414,0.00420814164714389,0.014278794569908677,0.06400693877062417,0.03577008867589094,0.010992591433134524,0.031903486861408405,0.006145611033627945,0.02916366033583033
0.0647069,0.004247569738838278,0.014401221161757119,0.06479377737377795,0.03577729834511528,0.011089114447047672,0.03208723863508061,0.006345459325355458,0.029051928618287197
0.0651724,0.004287676118160133,0.014523647697168579,0.06558233688627715,0.035780896957193886,0.011186068454758906,0.03226937059233612,0.006548909737040386,0.02893703840468625
0.0656379,0.004328476090268019,0.014646062906596712,0.06637253677601934,0.035780929542295226,0.011283455378239675,0.032449877477770575,0.006755982145409237,0.02881906305154073
0.0661034,0.004369984881828884,0.014768455458960026,0.06716429565489955,0.035777441677471176,0.011381277132219396,0.03262875444572372,0.006966695962239128,0.02869807590292985
0.066569,0.0044122176358087125,0.014890813963663603,0.06795753128975301,0.035770479470529644,0.011479535622157007,0.03280599706241201,0.00718107012605219,0.028574150269872135
0.0670345,0.004455189406267876,0.015013126972650859,0.06875216061356998,0.035760089543832085,0.01157823274216272,0.03298160130792569,0.007399123093874807,0.02844735940995114
0.0675,0.0044989151531626085,0.015135382982484473,0.06954809973698638,0.03574631901802064,0.011677370372869714,0.03315556357808611,0.007620872833064671,0.028317776507196565
0.0679655,0.0045434097371540826,0.015257570436455557,0.07034526396005442,0.035729215495679464,0.011776950379255633,0.03332788068615915,0.007846336813208584,0.028185474652223385
0.068431,0.004588687914426571,0.015379677726720076,0.071143567784297,0.035708827044934874,0.011876974608413785,0.03349854986442106,0.0080755319980939,0.02805052682263154
0.0688966,0.004634764331516212,0.015501693196461495,0.07194292492504954,0.03568520218299879,0.01197744488727415,0.03366756876557318,0.00830847483775642,0.027913005863668364
0.0693621,0.004681653520151931,0.015623605142078648,0.0727432483240928,0.035658389859659835,0.01207836302027452,0.03383493546400213,0.008545181260607597,0.027772984469155788
0.0698276,0.0047293698921101095,0.01574540181539784,0.07354445016257923,0.03562843944072651,0.012179730786982304,0.03400064845688226,0.008785666665643796,0.027630535162683965
0.0702931,0.004777927734084601,0.01586707142590826,0.07434644187425556,0.035595400691426485,0.012281549939667803,0.034164706665117034,0.009029945914740463,0.02748573027907292
0.0707586,0.004827341202573749,0.01598860214301989,0.0751491341589835,0.035559323759766066,0.012383822200829937,0.03432710943411603,0.009278033325033967,0.02733864194610355
0.0712241,0.004877624318786064,0.01610998209834317,0.07595243699655974,0.035520259159853546,0.01248654926067542,0.03448785653440446,0.009529942661393932,0.027189342066519094
0.0716897,0.004928790963566195,0.016231199387989947,0.07675625966083624,0.03547825775519009,0.012589732774552576,0.03464694816206244,0.009785687128988809,0.027037902300298275
0.0721552,0.004980854872342863,0.01635224207489537,0.07756051073414101,0.0354333707419314,0.012693374360340976,0.034804384938991684,0.010045279365947402,0.026884394047201148
0.0726207,0.005033829630100346,0.01647309819116052,0.07836509812199921,0.035385649632123484,0.01279747559579821,0.03496016791300821,0.01030873143611901,0.026728888429588846
0.0730862,0.005087728666375141,0.016593755740415835,0.07916992906815432,0.03533514623691583,0.012902038015865352,0.0351142985577601,0.010576054821934761,0.026571456275518573
0.0735517,0.005142565250279332,0.016714202700205443,0.07997491016988831,0.03528191264975515,0.013007063109932895,0.03526677877247017,0.010847260417372646,0.026412168102115163
0.0740172,0.005198352485552232,0.016834427024392654,0.08077994739364046,0.03522600122956302,0.01311255231906916,0.03541761088150364,0.011122358521028837,0.02625109409922074
0.0744828,0.005255103305641825,0.0169544166455869,0.0815849460909238,0.035167464583900986,0.013218507033213311,0.03556679763376109,0.011401358829297817,0.026088304113323777
0.0749483,0.005312830468817526,0.017074159477592502,0.08238981101453888,0.03510635555212649,0.013324928588335248,0.03571434220189744,0.011684270429663898,0.025923867631769085
0.0754138,0.005371546553315811,0.017193643417879687,0.08319444633508426,0.03504272718854339,0.013431818263564582,0.03586024818136787,0.01197110179410683,0.025757853767249837
0.0758793,0.0054312639525202575,0.017312856350078305,0.08399875565776371,0.03497663274555088,0.013539177278290996,0.036004519589301634,0.012261860772624198,0.025590331242582802
0.0763448,0.00549199487017754,0.01743178614649467,0.08480264203948966,0.03490812565679468,0.013647006789238287,0.03614716086320508,0.012556554586873348,0.025421368375767608
0.0768103,0.005553751315650955,0.01755042067065191,0.08560600800628321,0.034837259520324675,0.01375530788751442,0.036288176859495036,0.012855189823935515,0.025251033065330712
0.0772759,0.005616545099213008,0.017668747779854194,0.08640875557097104,0.03476408808176317,0.013864081595639921,0.03642757285186361,0.013157772430204905,0.025079392775954615
0.0777414,0.005680387827378607,0.017786755327775024,0.08721078625117955,0.03468866521748816,0.013973328864557023,0.0365653545294756,0.013464307705405272,0.024906514524392583
0.0782069,0.005745290898280381,0.017904431167069693,0.08801200108762669,0.03461104491783618,0.01408305057062185,0.036701527994999567,0.013774800296736589,0.0247324648656691
0.0786724,0.00581126549708762,0.01802176315201193,0.08881230066271206,0.03453128127032959,0.014193247512582007,0.036836099762474234,0.01408925419315426,0.024557309879566232
0.0791379,0.005878322591470281,0.018138739141154533,0.08961158511940562,0.03444942844293315,0.014303920408541906,0.0369690767550113,0.014407672719783314,0.024381115157396063
0.0796034,0.0059464729271094564,0.01825534700001384,0.09040975418043538,0.03436554066734525,0.014415069892918122,0.0371004663023365,0.014730058532469854,0.024203945789059298
0.080069,0.0060157270232556815,0.01837157460377766,0.09120670716777415,0.034279672222328944,0.014526696513387082,0.03723027613817064,0.015056413612472012,0.024025866350390026
0.0805345,0.0060860951683363905,0.018487409840036276,0.09200234302242498,0.03419187741708839,0.014638800727827436,0.037358514397452754,0.01538673926129265,0.02384694089078659
0.081,0.006157587415613803,0.01860284061153609,0.09279656032450527,0.034102210574695965,0.014751382901259543,0.037485189613407924,0.015721036095655932,0.023667232921128368
0.0814655,0.006230213578894495,0.01871785483895543,0.09358925731362867,0.034010726015575594,0.014864443302784533,0.037610310714462525,0.01605930404262997,0.023486805401978193
0.081931,0.006303983228291851,0.018832440463701954,0.09438033190958388,0.03391747804104738,0.014977982102525685,0.03773388702100995,0.01640154233489777,0.02330572073207008
0.0823966,0.006378905686042597,0.018946585450731183,0.09516968173330866,0.03382252091693862,0.015091999368574782,0.03785592824202998,0.016747749506178692,0.023124040737081946
0.0828621,0.006454990022378552,0.019060277791385503,0.09595720412815743,0.033725908857266236,0.015206495063946173,0.03797644447156509,0.017097923386802643,0.022941826658693168
0.0833276,0.006532245051454732,0.01917350550625313,0.09674279618146052,0.03362769600799569,0.015321469043541197,0.0380954461850572,0.017452061099439285,0.022759139143926962
0.0837931,0.0066106793273349364,0.019286256648046392,0.09752635474637307,0.03352793643088134,0.015436921051125513,0.03821294423554847,0.017810159054984332,0.022576038234777787
0.0842586,0.0066903011400359065,0.019398519304498783,0.09830777646401295,0.03342668408739344,0.015552850716321766,0.03832894984974972,0.01817221294860509,0.02239258335812418
0.0847241,0.006771118511631126,0.019510281601280186,0.099086957785887,0.03332399282273708,0.015669257551619884,0.03844347462398011,0.01853821775594723,0.02220883331592752
0.0851897,0.006853139192415294,0.019621531704929727,0.09986379499660614,0.0332199163499684,0.015786140949407237,0.038556530519981765,0.01890816772950478,0.02202484627571737
0.0856552,0.006936370657130466,0.019732257825805802,0.10063818423689055,0.03311450823421378,0.01590350017902081,0.03866812986061352,0.01928205639515525,0.021840679761364105
0.0861207,0.007020820101254835,0.019842448221052765,0.10141002152686625,0.03300782187699755,0.016021334383823554,0.03877828532542796,0.01965987654886176,0.02165639064413957
0.0865862,0.007106494437355094,0.019952091197583875,0.10217920278965427,0.03289991050068399,0.01613964257830721,0.038887009946136204,0.020041620253543904,0.021472035134066352
0.0870517,0.007193400291503304,0.020061175115080064,0.10294562387525391,0.032790827133039484,0.01625842364522387,0.03899431710196494,0.02042727883611908,0.021287668771556356
0.0875172,0.007281543999759207,0.020169688389004223,0.10370918058472056,0.03268062459192066,0.01637767633274887,0.03910022051491015,0.020816842884715758,0.021103346419339156
0.0879828,0.0073709316047189406,0.0202776194936306,0.10446976869463837,0.032569355470094395,0.016497399251677702,0.03920473424489202,0.021210302246060072,0.02091912225468055
0.0884483,0.007461568852131119,0.020384956965088973,0.10522728398188731,0.032457072120195656,0.016617590872659543,0.0393078726848152,0.021607646023036955,0.020735049761891586
0.0889138,0.007553461187581258,0.020491689404423318,0.10598162224870335,0.03234382663982896,0.016738249523470233,0.039409650555538356,0.02200886257242686,0.020551181725128233
0.0893793,0.00764661375324548,0.02059780548066455,0.10673267934802949,0.03222967085681958,0.016859373386327342,0.03951008290075698,0.022413939502818968,0.02036757022148167
0.0898448,0.007741031384714468,0.020703293933916993,0.10748035120915517,0.03211465631462026,0.016980960495250056,0.03960918508180268,0.022822863672701553,0.020184266614359046
0.0903103,0.007836718607888532,0.02080814357845811,0.10822453386364028,0.031998834257879236,0.017103008733466613,0.039706972772362334,0.023235621188730064,0.020001321547154408
0.0907759,0.007933679635944624,0.02091234330585097,0.10896512347152047,0.03188225561817551,0.017225515830872312,0.03980346195311987,0.02365219740417322,0.01981878493720937
0.0912414,0.008031918366376093,0.02101588208806892,0.10970201634778903,0.03176497099992694,0.017348479361541148,0.03989866890632334,0.02407257691753736,0.019636705970062913
0.0917069,0.008131438378105907,0.021118748980631773,0.1104351089891519,0.03164703066647689,0.01747189674129445,0.039992610210279424,0.024496743571369016,0.01945513309398958
0.0921724,0.008232242928674,0.021220933125752756,0.11116429810105163,0.03152848452636476,0.017595765225330007,0.040085302733777604,0.02492468045123549,0.019274114014825254
0.0926379,0.008334334951499383,0.02132242375549534,0.11188948062495685,0.031409382119786,0.017720081905915328,0.04017676363044581,0.025356369884883222,0.019093695691079396
0.0931034,0.008437717053217565,0.021423210194938966,0.11261055376591347,0.03128977260524645,0.017844843710148803,0.040267010333038915,0.025791793441573417,0.01891392432933266
0.093569,0.008542391511093799,0.021523281865352503,0.11332741502035462,0.031169704746416303,0.017970047397792625,0.0403560605476615,0.02623093193159441,0.018734845379918527
0.0940345,0.008648360270512676,0.02162262828737416,0.11403996220416657,0.031049226899188275,0.018095689559181314,0.040443932247925835,0.02667376540595015,0.018556503532887438
0.0945,0.008755624942544518,0.02172123908419645,0.11474809348100753,0.03092838699894453,0.01822176661320981,0.04053064366904569,0.027120273156224003,0.018378942714251875
0.0949655,0.008864186801589057,0.021819103984754583,0.11545170739087698,0.030807232548036727,0.018348274805404952,0.04061621330186641,0.027570433714617235,0.018202206082510546
0.095431,0.008974046783096866,0.021916212826916536,0.11615070287893209,0.030685810603483167,0.018475210206084277,0.04070065988683121,0.028024224854161037,0.018026336025449795
0.0958966,0.009085205481369051,0.022012555560672994,0.11684497932454811,0.030564167764886876,0.01860256870860584,0.040784002407883505,0.028481623589101116,0.017851374157220126
0.0963621,0.00919766314743571,0.02210812225132509,0.11753443657061852,0.03044235016257816,0.01873034602771276,0.04086626008630479,0.028942606175453717,0.0176773613156856
0.0968276,0.009311419687013647,0.022202903082667712,0.11821897495308996,0.030320403445984932,0.018858537697976026,0.040947452374487624,0.029407148111731767,0.017504337560043808
0.0972931,0.009426474658543873,0.022296888360165985,0.11889849533072618,0.030198372772233886,0.018987139072339,0.041027598949643106,0.02987522413983988,0.017332342168713856
0.0977586,0.009542827271309328,0.022390068514122445,0.11957289911509372,0.030076302794985403,0.019116145320766973,0.041106719707442625,0.03034680824613683,0.017161413637489818
0.0982241,0.009660476383633345,0.022482434102832148,0.1202420883007618,0.029954237653504932,0.019245551429004984,0.0411848347555937,0.030821873662663885,0.016991589677956845
0.0986897,0.009779420501159267,0.022573975815723003,0.12090596549570704,0.02983222096197338,0.01937535219744701,0.04126196440735017,0.031300392868537426,0.01682290721616715
0.0991552,0.009899657775211613,0.022664684476478514,0.12156443395191355,0.029710295799039062,0.019505542240119498,0.04133812917495737,0.031782337591504124,0.01665540239157296
0.0996207,0.010021186001239163,0.02275455104614011,0.12221739759615745,0.029588504697613545,0.0196361159837821,0.04141334976303325,0.03226767880965697,0.016489110556213462
0.1000862,0.010144002617340246,0.02284356662618628,0.12286476106096433,0.029466889634913652,0.019767067667148364,0.041487647061886936,0.032756386753310364,0.016324066274152903
0.1005517,0.010268104702870543,0.02293172246158591,0.12350642971572733,0.029345492022751843,0.019898391340228996,0.04156104214077627,0.03324843090703237,0.01616030332116698
0.1010172,0.01039348897713362,0.023019009943823266,0.12414230969797273,0.029224352698077095,0.020030080863800166,0.04163355624110638,0.03374378001183211,0.015997854684674743
0.1014828,0.010520151798154423,0.023105420613892227,0.12477230794475944,0.02910351191376821,0.020162129908999186,0.041705210769571135,0.03424240206750063,0.015836752563913283
0.1019483,0.010648089161535881,0.023190946165257565,0.12539633222419763,0.02898300932968149,0.0202945319570498,0.041776027291239505,0.03474426433510325,0.015677028370352585
0.1024138,0.010777296699398756,0.02327557844678131,0.1260142911670717,0.028862884003954682,0.020427280299119093,0.04184602752258913,0.03524933333962215,0.015518712728348028
0.1028793,0.010907769679404837,0.023359309465612377,0.1266260942985519,0.028743174384568974,0.0205603680363079,0.04191523332448992,0.03575757487274775,0.015361835476028042
0.1033448,0.011039503003863582,0.023442131390037955,0.1272316520699802,0.028623918301170982,0.02069378807977649,0.04198366669514108,0.036268953995817595,0.015206425666414555
0.1038103,0.011172491208922384,0.0235240365522953,0.1278308758907148,0.028505152957156516,0.020827533151007046,0.04205134976296547,0.0367834350429015,0.015052511568773786
0.1042759,0.011306728463840716,0.02360501745134288,0.12842367816001943,0.02838691492201797,0.020961595782204363,0.042118304779465536,0.037300981624031504,0.01490012067019499
0.1047414,0.011442208570348477,0.023685066755589762,0.1290099722989833,0.02826924012395716,0.02109596831683598,0.042184554112045386,0.03782155662857516,0.0147492796773946
0.1052069,0.011578924962089005,0.023764177305582408,0.12958967278245692,0.028152163842765428,0.021230642910312857,0.04225012023680371,0.03834512222875078,0.014600014518743182
0.1056724,0.011716870704147241,0.02384234211664796,0.13016269517098925,0.028035720702972826,0.02136561153081142,0.04231502573130271,0.038871639883283446,0.014452350346512582
0.1061379,0.011856038492663616,0.023919554381493176,0.13072895614275074,0.027919944667268187,0.021500865960237665,0.04237929326731816,0.039401070341201175,0.014306311539340465
0.1066034,0.011996420654534237,0.023995807472758163,0.1312883735254259,0.02780486903019187,0.02163639779533392,0.042442945603575866,0.039933373645770674,0.014161921704909451
0.107069,0.012138009147198005,0.024071094945523838,0.1318408663280579,0.027690526412102793,0.02177219844892845,0.042506005578479944,0.040468509138572924,0.014019203682837888
0.1075345,0.012280795558511198,0.024145410539771976,0.1323863547728272,0.027576948753421447,0.02190825915132814,0.04256849610283834,0.04100643546371889,0.013878179547779214
0.108,0.012424771106710072,0.02421874818279666,0.1329247603267455,0.027464167309150203,0.022044570951854227,0.042630440152591056,0.04154711057220606,0.013738870612726802
0.1084655,0.012569926640461979,0.024291101991565544,0.1334560057332443,0.027352212643672113,0.022181124720520765,0.042691860761546414,0.04209049172641639,0.01360129743252102
0.108931,0.012716252639005395,0.024362466275029294,0.13398001504363904,0.027241114625829264,0.02231791114985544,0.0427527810141307,0.0426365355047569,0.013465479807555173
0.1093966,0.012863739212379226,0.024432835536377442,0.1344967136484483,0.02713090242428146,0.022454920756862135,0.04281322403815599,0.0431851978064438,0.013331436787676863
0.1098621,0.013012376101741737,0.024502204475238647,0.13500602830854716,0.02702160450314587,0.022592143885124424,0.042873212997611126,0.0437364338564318,0.013199186676281281
0.1103276,0.013162152679779309,0.024570567989823214,0.13550788718613427,0.026913248617917985,0.02272957070704905,0.04293277108548038,0.04429019821049014,0.01306874703459278
0.1107931,0.013313057951205355,0.02463792117900575,0.13600221987549138,0.026805861811674127,0.022867191226248237,0.04299192151659407,0.04484644476042732,0.012940134686131168
0.1112586,0.013465080553349596,0.02470425934434564,0.13648895743351358,0.026699470411555713,0.023004995280059577,0.04305068752051523,0.04540512673946623,0.012813365721359096
0.1117241,0.013618208756837898,0.02476957799204306,0.13696803240998784,0.026594100025535174,0.02314297254220199,0.0431090923344664,0.045966196727771816,0.012688455502506945
0.1121897,0.013772430466362935,0.024833872834828127,0.13743937887759758,0.026489775539463474,0.023281112525566167,0.04316715919630035,0.046529606658133174,0.01256541866857162
0.1126552,0.01392773322154579,0.02489713979378086,0.13790293246162882,0.026386521114398907,0.02341940458513768,0.0432249113375185,0.04709530782180212,0.012444269140485655
0.1131207,0.014084104197888674,0.02495937500007959,0.1383586303693535,0.02628436018421695,0.023557837921050956,0.04328237197634069,0.047663250874490165,0.012325020126453033
0.1135862,0.014241530207818867,0.025020574796675688,0.1388064114190647,0.026183315453500694,0.023696401581771984,0.04333956431082979,0.04823338584252593,0.012207684127448024
0.1140517,0.014399997701823927,0.025080735739892224,0.13924621606873744,0.026083408895711438,0.023835084467407657,0.04339651151207481,0.048805662129175004,0.012092272942873324
0.1145172,0.014559492769678127,0.02513985460094475,0.13967798644428886,0.025984661751638827,0.02397387533313945,0.04345323671743566,0.049380028521124185,0.011978797676373651
0.1149828,0.01472000114175996,0.02519792836738226,0.14010166636741123,0.025887094528129973,0.024112762792779054,0.04350976302385271,0.04995643319513222,0.011867268741800923
0.1154483,0.014881508190460458,0.025254954244446792,0.14051720138295096,0.025790726997096752,0.024251735322443502,0.04356611348122419,0.05053482372484891,0.011757695869327005
0.1159138,0.015043998931681981,0.02531092965635031,0.14092453878580652,0.0256955781948005,0.024390781264347114,0.04362231108585405,0.051115147087804486,0.011650088111699958
0.1163793,0.015207458026426916,0.025365852247467846,0.14132362764731743,0.025601666421413233,0.02452988883070767,0.04367837877397286,0.05169734967257047,0.01154445385063967
0.1168448,0.015371869782475693,0.025419719883445997,0.141714418841116,0.025509009240854457,0.024669046107764013,0.04373433941533363,0.05228137728609353,0.011440800803368652
0.1173103,0.015537218156153365,0.025472530652226374,0.142096865068413,0.025417623480902398,0.024808241059902144,0.043790215806884344,0.052867175161203143,0.011339136029273786
0.1177759,0.01570348675418389,0.025524282864983656,0.14247092088268712,0.02532752523357863,0.024947461533886914,0.04384603066651861,0.053454687964293535,0.011239465936694715
0.1182414,0.015870658835631265,0.025574975056978252,0.1428365427137488,0.025238729855804734,0.025086695263196318,0.04390180662690532,0.054043859803180244,0.011141796289834568
0.1187069,0.01603871731392652,0.025624605988323654,0.1431936888911478,0.025151251970329656,0.025225929872455248,0.04395756622939812,0.05463463423513107,0.011046132215788654
0.1191724,0.01620764475897973,0.02567317464466889,0.143542319666896,0.025065105466926283,0.025365152881965503,0.044013331918024735,0.055226954275070704,0.010952478211686744
0.1196379,0.01637742339937617,0.02572068023779649,0.14388239723747578,0.024980303503855633,0.02550435171232883,0.044069126033556186,0.055820762403958134,0.010860838151944444
0.1201034,0.016548035124655896,0.025767122206136472,0.14421388576510755,0.02489685850959696,0.02564351368915959,0.044124970807655386,0.056416000577335146,0.01077121529561911
0.120569,0.016719461487676158,0.02581250021519687,0.1445367513982495,0.024814782184841903,0.025782626047883644,0.044180888357104334,0.05701261023404405,0.010683612293865727
0.1210345,0.01689168370705614,0.025856814157911218,0.14485096229130473,0.024734085504750702,0.02592167593861992,0.044236900678108704,0.05761053230511221,0.010598031197488063
0.1215,0.017064682669703773,0.025900064154903348,0.14515648862351263,0.02465477872146837,0.02606065043114101,0.044293029640678376,0.05820970722280048,0.010514473464580358
0.1219655,0.017238438933424402,0.025942250554669526,0.14545330261700368,0.024576871366898498,0.02619953651990914,0.0443492969830821,0.05881007492981253,0.010432939968254777
0.122431,0.017412932729611374,0.025983373933678007,0.14574137855399796,0.02450037225573222,0.026338321129183773,0.0444057243063741,0.05941157488866125,0.01035343100444979
0.1228966,0.017588143966018613,0.02602343509638577,0.14602069279313096,0.024425289488729674,0.02647699111819715,0.04446233306899011,0.06001414609118811,0.01027594629981464
0.1233621,0.017764052229615513,0.026062435075172176,0.14629122378489096,0.0243516304562511,0.026615533286394145,0.04451914458140995,0.06061772706823097,0.010200485019665058
0.1238276,0.017940636789524463,0.026100375130189285,0.1465529520861548,0.024279401842034466,0.02675393437873309,0.044576180000883536,0.06122225589943531,0.01012704577600534
0.1242931,0.018117876600041417,0.026137256749128444,0.1468058603738107,0.024208609627216455,0.026892181091044385,0.04463346032621679,0.061827670223203325,0.010055626635611988
0.1247586,0.018295750303739998,0.026173081646902945,0.14704993345745754,0.024139259094593312,0.027030260075443905,0.044691006392613655,0.062433907246775056,0.009986225128174132
0.1252241,0.01847423623465949,0.0262078517652464,0.14728515829117156,0.024071354833117987,0.027168157945798282,0.0447488388665699,0.06304090375643491,0.009918838254485971
0.1256897,0.01865331242157711,0.026241569272226758,0.14751152398433182,0.024004900742629825,0.027305861283239072,0.04480697824081452,0.06364859612783695,0.00985346249468663
0.1261552,0.018832956591364837,0.026274236561675896,0.147729021811496,0.023939900038812714,0.027443356641722774,0.04486544482929411,0.06425692033644169,0.009790093816542847
0.1266207,0.019013146172431047,0.026305856252534995,0.1479376452213186,0.023876355258377634,0.027580630553633724,0.04492425876219534,0.06486581196805682,0.00972872768377003
0.1270862,0.01919385829824728,0.026336431188116054,0.14813738984450459,0.02381426826446517,0.027717669535426682,0.04498343998100092,0.06547520622947468,0.009669359064387364
0.1275517,0.01937506981096061,0.026365964435280224,0.14832825350079312,0.02375364025226358,0.027854460093305947,0.04504300823357416,0.06608503795919919,0.009611982439102721
0.1280172,0.019556757265092272,0.026394459283533803,0.14851023620496798,0.02369447175483792,0.02799098872893773,0.04510298306926778,0.06669524163825562,0.009556591809723203
0.1284828,0.019738896931323392,0.026421919244043007,0.14868334017189203,0.023636762649165633,0.02812724194519257,0.045163383834052315,0.06730575140107645,0.009503180707587263
0.1289483,0.01992146480036891,0.0264483480485689,0.14884756982056552,0.023580512162374098,0.028263206251914787,0.04522422966566004,0.06791650104645694,0.00945174220201435
0.1294138,0.020104436586940905,0.026473749648324107,0.1490029317772088,0.023525718878175648,0.02839886817171616,0.045285539488740666,0.0685274240485741,0.009402268908768044
0.1298793,0.02028778773380266,0.02649812821275319,0.14914943487737115,0.023472380743495596,0.028534214245791476,0.045347332010025346,0.06913845356806321,0.009354752998528589
0.1303448,0.020471493415914695,0.026521488128238742,0.14928709016706865,0.023420495075288938,0.02866923103975382,0.04540962571349588,0.06974952246314656,0.00930918620537084
0.1308103,0.020655528544674135,0.02654383399673548,0.14941591090295492,0.023370058567541346,0.028803905149487604,0.04547243885555639,0.0703605633008102,0.009265559835243633
0.1312759,0.020839867772248524,0.026565170634334858,0.1495359125515302,0.023321067298450193,0.028938223207017492,0.04553578946020504,0.07097150836802549,0.009223864774446755
0.1317414,0.021024485496005215,0.02658550306976274,0.14964711278739581,0.02327351673778133,0.02907217188639152,0.04559969531420396,0.07158228968301321,0.009184091498101954
0.1322069,0.02120935586303739,0.026604836542812878,0.14974953149056375,0.023227401754397383,0.02920573790957674,0.04566417396224608,0.07219283900654841,0.009146230078614564
0.1326724,0.02139445277478762,0.026623176502718914,0.1498431907428332,0.023182716623953326,0.02933890805236604,0.045729242702118776,0.07280308785330464,0.009110270194122696
0.1331379,0.021579749891769744,0.026640528606467553,0.14992811482324897,0.023139455036755064,0.02947166915029477,0.04579491857986469,0.07341296750323596,0.009076201136931148
0.1336034,0.02176522063838973,0.02665689871705553,0.15000433020265855,0.023097610105776753,0.029604008104565975,0.04586121838494023,0.07402240901299507,0.009044011821927444
0.134069,0.021950838207865996,0.026672292901692835,0.15007186553738563,0.023057174374832495,0.029735911887982972,0.04592815864537276,0.07463134322738567,0.009013690794977542
0.1345345,0.022136575567249593,0.026686717429954487,0.15013075166203949,0.023018139826898175,0.02986736755088825,0.04599575562291726,0.07523970079084687,0.008985226241298867
0.135,0.02232240546254444,0.026700178771882858,0.1501810215814779,0.022980497892579017,0.029998362227107844,0.04606402530821352,0.07584741215896788,0.008958605993808362
0.1354655,0.02250830042392784,0.026712683596042515,0.15022271046194205,0.02294423945871832,0.030128883139900246,0.046132983415945586,0.07645440761003136,0.008933817541443274
0.135931,0.022694232771071438,0.026724238767529288,0.15025585562138125,0.02290935487714289,0.030258917607909008,0.04620264538000564,0.07706061725658442,0.008910848037452552
0.1363966,0.022880174618562565,0.026734851345935094,0.15028049651898523,0.02287583397354048,0.030388453051118116,0.04627302634866521,0.07766597105703739,0.008889684307656758
0.1368621,0.02306609788142609,0.02674452858327008,0.15029667474394182,0.022843666056464366,0.030517476996809016,0.04634414117975743,0.0782703988272912,0.008870312858674567
0.1373276,0.023251974280746546,0.026753277921843364,0.15030443400343857,0.022812839926460084,0.030645977085518052,0.046416004435874236,0.07887383025239479,0.008852719886114037
0.1377931,0.023437775349390556,0.026761106992103503,0.15030382010992635,0.022783343885309268,0.03077394107699309,0.04648863037958287,0.07947619489823435,0.008836891282726992
0.1382586,0.023623472437829328,0.026768023610439833,0.1502948809676637,0.02275516574538536,0.030901356856147918,0.04656203296866602,0.08007742222325624,0.008822812646524916
0.1387241,0.023809036720061027,0.02677403577694547,0.15027766655856026,0.022728292839116,0.03102821243901292,0.04663622585139049,0.08067744159022558,0.00881046928885479
0.1391897,0.023994439199632928,0.026779151673142716,0.1502522289273381,0.02270271202854697,0.031154495978680426,0.04671122236180932,0.08127618227802279,0.008799846242433376
0.1396552,0.0241796507157632,0.026783379659671373,0.1502186221660295,0.022678409715002495,0.03128019577124314,0.04678703551510248,0.08187357349348115,0.008790928269338368
0.1401207,0.02436464194956218,0.02678672827394037,0.15017690239783105,0.022655371848836845,0.031405300261723765,0.04686367800296121,0.08246954438326869,0.008783699868954878
0.1405862,0.024549383430353,0.0267892062277429,0.15012712776033454,0.022633583939272287,0.031529798049993965,0.04694116218902116,0.08306402404581825,0.008778145285875671
0.1410517,0.024733845542091275,0.02679082240483523,0.15006935838815455,0.022613031064318386,0.03165367789668067,0.047019500104349486,0.08365694154331031,0.008774248517753597
0.1415172,0.024917998529883422,0.026791585858479353,0.15000365639497454,0.022593697880767732,0.031776928729057505,0.04709870344299088,0.08424822591371338,0.008771993323104608
0.1419828,0.0251018125066033,0.026791505808949536,0.14993008585503226,0.02257556863426318,0.03189953964691908,0.047178783557578007,0.08483780618288715,0.008771363229059805
0.1424483,0.025285257459606768,0.02679059164100294,0.14984871278406517,0.02255862716943175,0.03202149992843573,0.0472597514550115,0.08542561137675389,0.008772341539064862
0.1429138,0.025468303257543963,0.026788852901314556,0.14975960511973604,0.02254285694008025,0.032142799035986096,0.04734161779221493,0.08601157053354355,0.00877491134052519
0.1433793,0.02565091965726903,0.026786299295876767,0.14966283270155842,0.02252824101944773,0.032263426621964617,0.0474243928719703,0.08659561271611821,0.008779055512395228
0.1438448,0.025833076310847358,0.026782940687364035,0.14955846725034022,0.022514762110509855,0.03238337253456119,0.04750808663883965,0.08717766702438137,0.00878475673271022
0.1443103,0.026014742772660266,0.026778787092463327,0.14944658234716288,0.02250240255633024,0.03250262682350963,0.04759270867517779,0.08775766260777716,0.008791997486058809
0.1447759,0.026195888506607232,0.026773848679171038,0.14932725341191272,0.022491144350453775,0.03262117974580174,0.04767826819724126,0.08833552867788391,0.008800760070994807
0.1452414,0.026376482893405735,0.02676813576405754,0.1492005576813803,0.022480969147337007,0.03273902177136331,0.04776477405139819,0.0889111945211066,0.008811026607386465
0.1457069,0.026556495237988628,0.026761658809500495,0.1490665741869424,0.022471858272810574,0.0328561435886883,0.047852234710443343,0.08948458951147188,0.008822779043701552
0.1461724,0.026735894776998913,0.02675442842088837,0.14892538373184103,0.022463792734568756,0.032972536110427234,0.047940658270022266,0.09005564312352861,0.008835999164226503
0.1466379,0.026914650686381623,0.02674645534379577,0.1487770688680716,0.02245675323268123,0.0330881904789255,0.04803005244516805,0.09062428494535639,0.008850668596217913
0.1471034,0.02709273208907224,0.02673775046113226,0.14862171387289258,0.02245072017012204,0.03320309807170709,0.048120424566954124,0.09119044469168434,0.008866768816984583
0.147569,0.02727010806278098,0.02672832479026661,0.14845940472496663,0.022445673663310864,0.033317250506899015,0.04821178157926568,0.09175405221712135,0.008884281160898325
0.1480345,0.027446747647871948,0.026718189480128322,0.14829022908014275,0.022441593552661742,0.033430639648591394,0.04830413003569226,0.09231503752949892,0.008903186826331708
0.1485,0.027622619855335977,0.026707355808288438,0.14811427624688725,0.02243845941313428,0.03354325761212798,0.04839747609654367,0.09287333080332785,0.008923466882520907
0.1489655,0.027797693674855788,0.02669583517802154,0.14793163716137012,0.022436250564782503,0.03365509676932158,0.04849182552599063,0.09342886239336935,0.008945102276351842
0.149431,0.02797193808296192,0.0266836391153508,0.14774240436221286,0.02243494608329647,0.033766149753588603,0.04858718368933143,0.09398156284832147,0.00896807383906775
0.1498966,0.028145322051277507,0.026670779266077894,0.147546671964902,0.02243452481053172,0.033876409464996655,0.04868355555038533,0.09453136292462143,0.008992362292896322
0.1503621,0.028317814554850065,0.026657267392799357,0.14734453563587285,0.0224349653650215,0.03398586907521883,0.04878094566901303,0.09507819360036411,0.009017948257594551
0.1508276,0.02848938458056815,0.026643115371910855,0.14713609256626736,0.022436246152466855,0.03409452203238829,0.048879358198764294,0.09562198608933631,0.009044812256909337
0.1512931,0.02866000113566077,0.02662833519060053,0.14692144144536995,0.02243834537619927,0.03420236206584646,0.048978796884652016,0.09616267185516546,0.009072934724951931
0.1517586,0.02882963325627736,0.026612938943832445,0.14670068243372641,0.022441241047610895,0.03430938319077812,0.04907926506105207,0.0967001826255813,0.009102296012484195
0.1522241,0.028998250016146043,0.02659693883132088,0.1464739171359521,0.02244491099654712,0.03441557971272633,0.04918076564972758,0.09723445040678792,0.009132876393114626
0.1526897,0.02916582053530801,0.02658034715449603,0.14624124857323512,0.02244933288165668,0.03452094623198049,0.049283301157975835,0.09776540749794302,0.009164656069402003
0.1531552,0.02933231398892569,0.026563176313461338,0.14600278115554288,0.022454484200694225,0.03462547764783046,0.04938687367689589,0.09829298650574131,0.00919761517886451
0.1536207,0.029497699616162377,0.02654543880394252,0.14575862065353995,0.022460342300770646,0.034729169162680124,0.049491484879774186,0.09881712035909876,0.009231733799892129
0.1540862,0.029661946729130872,0.026527147214228254,0.1455088741702257,0.02246688438854645,0.03483201628601361,0.0495971360205854,0.09933774232393498,0.009266991957560155
0.1545517,0.029825024721908622,0.026508314222101977,0.14525365011230013,0.022474087540363806,0.034934014838207704,0.04970382793260534,0.09985478601805164,0.009303369629341614
0.1550172,0.029986903079616652,0.026488952591764228,0.14499305816126531,0.02248192871231294,0.03503516095418401,0.049811561027132176,0.10036818542610497,0.009340846750716525
0.1554828,0.030147551387559476,0.026469075170744732,0.1447272092442708,0.02249038475022886,0.0351354510868941,0.04992033529231237,0.10087787491467079,0.00937940322067595
0.1559483,0.030306939340423146,0.026448694886803147,0.14445621550471036,0.022499432399614574,0.03523488201063103,0.050030150292067324,0.10138378924739981,0.009419018907118923
0.1564138,0.030465036751528698,0.026427824744817252,0.1441801902725787,0.022509048315487164,0.03533345082416072,0.05014100516511654,0.10188586360026046,0.009459673652140432
0.1568793,0.03062181356213839,0.026406477823657126,0.14389924803459736,0.02251920907214331,0.03543115495366644,0.05025289862409324,0.10238403357686623,0.00950134727720873
0.1573448,0.03077723985081222,0.02638466727304378,0.14361350440411869,0.022529891172841113,0.03552799215549967,0.05036582895474837,0.10287823522388381,0.009544019588230385
0.1578103,0.03093128584281247,0.02636240631039053,0.1433230760908179,0.022541071059395196,0.03562396051873051,0.05047979401523894,0.10336840504651763,0.009587670380501529
0.1582759,0.031083921919553982,0.026339708217625414,0.14302808087018215,0.022552725121682344,0.03571905846749048,0.05059479123549676,0.10385448002406726,0.009632279443543822
0.1587414,0.03123511862809789,0.026316586337992776,0.14272863755280454,0.022564829707054982,0.03581328476310055,0.050710817616673724,0.10433639762555266,0.009677826565823732
0.1592069,0.03138484669068638,0.02629305407283224,0.14242486595349088,0.022577361129659995,0.03590663850597688,0.05082786973065954,0.10481409582540373,0.009724291539353848
0.1596724,0.0315330770143159,0.026269124878333147,0.14211688686018684,0.022590295679660314,0.03599911913730665,0.0509459437196686,0.10528751311921064,0.009771654164175171
0.1601379,0.03167978070034633,0.02624481226226261,0.1418048220027338,0.022603609632356886,0.03609072644048623,0.05106503529589237,0.1057565885395328,0.009819894252719666
0.1606034,0.03182492905414334,0.026220129780665322,0.14148879402146353,0.022617279257208436,0.03618146054231424,0.05118513974121419,0.10622126167176435,0.009868991634052566
0.161069,0.031968493594751526,0.02619509103453327,0.14116892643564266,0.022631280826746435,0.03627132191393173,0.05130625190698443,0.10668147267005376,0.00991892615799437
0.1615345,0.03211044606459544,0.02616970966644376,0.1408453436117804,0.022645590625382545,0.03636031137150201,0.051428366213853875,0.10713716227327591,0.009969677699122666
0.162,0.03225075843920599,0.02614399935716434,0.14051817073181244,0.022660184958105702,0.036448430076622684,0.051551476651663784,0.10758827182105352,0.010021226160654139
0.1624655,0.032389402936969125,0.02611797382222339,0.14018753376117615,0.022675040159065997,0.036535679536462425,0.051675576779391275,0.10803474326982569,0.010073551478207288
0.162931,0.03252635202889388,0.026091646808445865,0.13985355941679029,0.02269013260004259,0.03662206160361463,0.05180065972514945,0.10847651920896109,0.010126633623446424
0.1633966,0.03266157844839638,0.026065032090454097,0.1395163751349534,0.022705438698792896,0.03670757847566036,0.051926718186242504,0.10891354287691303,0.01018045260760778
0.1638621,0.032795055201096344,0.026038143467134067,0.13917610903917385,0.022720934927280338,0.036792232694432464,0.05205374442927725,0.10934575817741467,0.01023498848490877
0.1643276,0.032926755574622525,0.02601099475806814,0.13883288990794518,0.02273659781977815,0.03687602714497312,0.05218173029033367,0.10977310969571197,0.010290221355841784
0.1647931,0.03305665314842308,0.0259835997999356,0.13848684714248066,0.022752403980846738,0.03695896505417708,0.052310667175198,0.11019554271483188,0.010346131370354223
0.1652586,0.03318472180357682,0.025955972442882815,0.13813811073442003,0.022768330093182073,0.03704104998911341,0.05244054605966248,0.110613003231883,0.010402698730916825
0.1657241,0.03331093573260101,0.02592812654686485,0.13778681123352216,0.02278435292533278,0.03712228585501923,0.052571357489895824,0.11102543797438512,0.010459903695482569
0.1661897,0.03343526944925106,0.02590007597796073,0.13743307971535612,0.022800449339283498,0.03720267689295962,0.052703091582888675,0.11143279441662371,0.010517726580338685
0.1666552,0.03355769779830715,0.02587183460466431,0.1370770477490031,0.022816596297902187,0.03728222767714813,0.05283573802697807,0.11183502079602446,0.01057614776285443
0.1671207,0.03367819596534281,0.025843416294152922,0.13671884736477996,0.022832770872249112,0.03736094311192239,0.05296928608245512,0.11223206612954206,0.010635147684127289
0.1675862,0.033796739486469975,0.025814834908535568,0.13635861102199587,0.022848950248745163,0.03743882842836958,0.05310372458225972,0.11262388023005702,0.010694706851530358
0.1680517,0.03391330425805513,0.025786104301082493,0.13599647157675163,0.022865111736197333,0.03751588918059657,0.05323904193276615,0.11301041372277291,0.01075480584116359
0.1685172,0.034027866546400616,0.02575723831243773,0.13563256224979106,0.02288123277267912,0.03759213124163992,0.05337522611466336,0.11339161806160641,0.010815425300211505
0.1689828,0.03414040299738528,0.025728250766816074,0.13526701659441315,0.022897290932263753,0.03766756079901168,0.05351226468393301,0.11376744554556106,0.01087654594921009
0.1694483,0.034250890646058685,0.025699155468185745,0.13489996846445274,0.022913263931608058,0.037742184349877375,0.05365014477292849,0.1141378493350753,0.010938148584225432
0.1699138,0.03435930692618303,0.025669966196438094,0.13453155198233635,0.02292912963638497,0.03781600869586367,0.05378885309155747,0.11450278346833477,0.011000214078946833
0.1703793,0.034465629679717176,0.025640696703545605,0.13416190150721888,0.022944866067562755,0.037889040937494824,0.05392837592857096,0.11486220287753811,0.011062723386697098
0.1708448,0.034569837166237474,0.025611360709709464,0.13379115160320573,0.02296045140752921,0.03796128846825908,0.05406869915296163,0.11521606340510442,0.01112565754236279
0.1713103,0.03467190807229029,0.025581971899498103,0.13341943700766443,0.022975864006059152,0.038032758968308815,0.054209808215474435,0.11556432181980993,0.011188997664247252
0.1717759,0.034771821520671334,0.02555254391797817,0.13304689259962824,0.022991082386123917,0.03810346039780087,0.054351688150232946,0.11590693583284042,0.011252724955849159
0.1722414,0.03486955707962704,0.025523090366839578,0.13267365336829487,0.023006085249541876,0.0381734009898852,0.05449432357648463,0.11624386411374543,0.011316820707569362
0.1727069,0.03496509477197369,0.025493624800516347,0.1322998543816226,0.02302085148246925,0.03824258924335133,0.054637698700468584,0.11657506630627883,0.011381266298348685
0.1731724,0.03505841508412973,0.025464160722305066,0.1319256307550268,0.023035360160731003,0.038311033914942574,0.054781797317409724,0.11690050304410995,0.011446043197239306
0.1736379,0.0351494989750569,0.025434711580482963,0.13155111762018015,0.023049590554991676,0.038378744011348304,0.05492660281364312,0.11722013596638861,0.01151113296491226
0.1741034,0.035238327885105745,0.02540529076442765,0.1311764500939193,0.023063522135766467,0.03844572878088529,0.05507209816887312,0.11753392773314614,0.011576517255103572
0.174569,0.03532488374476107,0.025375911600740632,0.13080176324726137,0.023077134578272762,0.038511997704879286,0.055218265958571634,0.11784184204051477,0.01164217781600146
0.1750345,0.035409148983282325,0.025346587349376812,0.13042719207453238,0.023090407767122408,0.03857756048875879,0.055365088356520126,0.11814384363574618,0.011708096491577063
0.1755,0.035491106537234356,0.025317331199782345,0.1300528714626092,0.02310332180085505,0.038642427052873435,0.055512547137499466,0.11843989833201003,0.011774255222861019
0.1759655,0.03557073985890349,0.025288156267043078,0.12967893616027643,0.02311585699631278,0.0387066075230498,0.055660623680131735,0.11872997302295318,0.011840636049168216
0.176431,0.03564803292459421,0.025259075588046066,0.12930552074769971,0.023127993892856333,0.038770112220897754,0.05580929896987752,0.11901403569700007,0.01190722110927298
0.1768966,0.035722970242801674,0.025230102117656653,0.12893275960601555,0.023139713256423177,0.03883295165388112,0.055958553602191916,0.11929205545137643,0.011973992642536865
0.1773621,0.035795536862255145,0.0252012487249136,0.12856078688703831,0.02315099608342809,0.03889513650516656,0.056108367785841856,0.11956400250583912,0.012040932989991163
0.1778276,0.03586571837982761,0.02517252818924484,0.1281897364830847,0.023161823604507147,0.03895667762326501,0.056258721346387125,0.11982984821609638,0.012108024595376177
0.1782931,0.03593350094830657,0.025143953196706384,0.12781974199691573,0.023172177288106385,0.03901758601148036,0.05640959372982686,0.12008956508690319,0.012175250006139164
0.1787586,0.035998871284020836,0.02511553633624678,0.12745093671179597,0.023182038843916734,0.03907787281717989,0.056560964006413035,0.12034312678481791,0.01224259187439283
0.1792241,0.03606181667431822,0.025087290095999533,0.12708345356167033,0.023191390226157134,0.03913754932090155,0.056712810874631925,0.12059050815060741,0.012310032957836082
0.1796897,0.03612232498488885,0.02505922685960564,0.12671742510145748,0.023200213636708034,0.03919662692531268,0.05686511266535438,0.12083168521129002,0.012377556120638747
0.1801552,0.036180384666928654,0.025031358902568294,0.12635298347745957,0.023208491528097636,0.0392551171440353,0.05701784734615543,0.12106663519180888,0.01244514433429184
0.1806207,0.03623598476413796,0.025003698388641502,0.12599026039788833,0.023216206606343357,0.03931303159035246,0.05717099252580338,0.12129533652633084,0.012512780678424866
0.1810862,0.03628911491954957,0.024976257366254254,0.12562938710350693,0.023223341833651226,0.03937038196581019,0.05732452545891847,0.12151776886916861,0.012580448341591612
0.1815517,0.03633976538218113,0.024949047764971678,0.1252704943383887,0.023229880430975864,0.039427180048729145,0.0574784230508006,0.12173391310532573,0.012648130622025763
0.1820172,0.036387927013506335,0.024922081391994404,0.12491371232079279,0.02323580588044383,0.039483437682639795,0.0576326618624256,0.12194375136066479,0.012715810928367554
0.1824828,0.03643359129374009,0.024895369928697224,0.12455917071415923,0.023241101927643212,0.03953916676465487,0.05778721811560889,0.12214726701169913,0.012783472780362619
0.1829483,0.03647675032793325,0.024868924927207853,0.1242069985982243,0.023245752583782336,0.03959437923379217,0.05794206769833548,0.1223444446950082,0.012851099809534066
0.1834138,0.03651739685187331,0.024842757807026588,0.12385732444025936,0.023249742127720727,0.03964908705926091,0.058097186170254556,0.12253527031627609,0.012918675759828722
0.1838793,0.03655552423778784,0.024816879851687408,0.1235102760664352,0.02325305510787538,0.0397033022287242,0.05825254876833719,0.12271973105895263,0.01298618448823839
0.1843448,0.03659112649984857,0.024791302205460882,0.12316598063331514,0.02325567634400559,0.03975703673655035,0.05840813041269526,0.12289781539253637,0.013053609965396904
0.1848103,0.03662419829947417,0.024766035870099363,0.12282456459947873,0.023257590928879652,0.03981030257206505,0.05856390571255969,0.12306951308047967,0.013120936276153622
0.1852759,0.03665473495043019,0.02474109170162475,0.12248615369727774,0.023258784229826756,0.03986311170781689,0.05871984897241587,0.12323481518771597,0.01318814762012399
0.1857414,0.036682732423724704,0.02471648040715933,0.1221508729047259,0.02325924189017745,0.039915476087868364,0.058875934198293865,0.12339371408781026,0.013255228312217582
0.1862069,0.036708187352298506,0.024692212541799954,0.12181884641752228,0.02325894983059589,0.03996740761612462,0.059032135104210806,0.12354620346973505,0.013322162783144145
0.1866724,0.036731097035508295,0.024668298505536257,0.1214901976212078,0.023257894250307203,0.040018918144712236,0.05918842511876238,0.12369227834427343,0.013388935579897896
0.1871379,0.03675145944340159,0.024644748540213274,0.1211650490634536,0.023256061628222895,0.04007001946242033,0.05934477739186037,0.12383193505005245,0.013455531366220385
0.1876034,0.036769273220781766,0.02462157272653919,0.12084352242647936,0.023253438723967346,0.04012072328321606,0.05950116480161295,0.12396517125920961,0.013521934923042085
0.188069,0.036784537691061575,0.024598780981138775,0.12052573849959937,0.02325001257880806,0.04017104123484647,0.05965755996134398,0.12409198598269518,0.01358813114890287
0.1885345,0.036797252859903234,0.024576383053653096,0.12021181715189375,0.02324577051649238,0.04022098484753856,0.05981393522674762,0.12421237957521344,0.013654105060351503
0.189,0.03680741941864295,0.02455438852388595,0.11990187730500236,0.023240700143993025,0.04027056554280919,0.059970262703174036,0.12432635373980501,0.01371984179232424
0.1894655,0.03681503874749735,0.024532806798997307,0.11959603690603908,0.023234789352164872,0.04031979462239664,0.0601265142530423,0.12443391153207248,0.01378532659850263
0.189931,0.03682011291854915,0.02451164711074396,0.11929441290062397,0.023228026316315115,0.04036868325732541,0.06028266150337636,0.12453505736405074,0.013850544851650578
0.1903966,0.036822644698508905,0.024490918512767322,0.11899712120603097,0.023220399496688977,0.04041724247711614,0.060438675853460244,0.1246297970077224,0.013915482043930727
0.1908621,0.03682263755124962,0.02447062987792832,0.1187042766844479,0.02321189763887287,0.04046548315915234,0.060594528482608684,0.12471813759817793,0.013980123787200318
0.1913276,0.03682009564011072,0.02445078989568913,0.11841599311634513,0.023202509774116902,0.040513416018215585,0.06075019035804971,0.1248000876364191,0.014044455813286864
0.1917931,0.03681502382996764,0.02443140706954144,0.11813238317394857,0.02319222521957842,0.040561051596200444,0.06090563224291543,0.12487565699180354,0.014108463974244213
0.1922586,0.03680742768906328,0.024412489714480748,0.11785355839481201,0.023181033578488143,0.040608400252020296,0.06106082470433759,0.12494485690412634,0.014172134242589873
0.1927241,0.036797313490597304,0.024394045954526086,0.11757962915548356,0.023168924740240404,0.040655472151714674,0.06121573812164388,0.12500769998533476,0.014235452711524781
0.1931897,0.036784688214069126,0.02437608372028457,0.11731070464526117,0.02315588888040883,0.04070227725876849,0.06137034269465099,0.12506420022087045,0.014298405595136957
0.1936552,0.0367695595463705,0.02435861074655992,0.1170468928400318,0.023141916460688878,0.040748825324653265,0.06152460845205006,0.1251143729706327,0.014360979228590764
0.1941207,0.03675193588262297,0.024341634570004173,0.11678830047619013,0.023126998228768604,0.04079512587959997,0.061678505259879994,0.1251582349695558,0.014423160068303572
0.1945862,0.0367318263267558,0.024325162526811567,0.11653503302463204,0.02311112521812915,0.04084118822361285,0.061832002830084526,0.1251958043277932,0.01448493469211176
0.1950517,0.03670924069181942,0.024309201750453688,0.11628719466481911,0.023094288747776415,0.04088702141773316,0.06198507072914908,0.12522710053050023,0.014546289799427872
0.1955172,0.03668418950002976,0.024293759169454882,0.11604488825891104,0.023076480421905514,0.040932634275561555,0.06213767838681421,0.1252521444372082,0.014607212211390844
0.1959828,0.03665668398253885,0.02427884150520706,0.11580821532596265,0.023057692129499655,0.04097803535504737,0.06228979510486323,0.12527095828078122,0.01466768887101115
0.1964483,0.036626736078927406,0.024264455269823258,0.11557727601618319,0.023037916043865313,0.04102323295055276,0.062441390065982254,0.12528356566594814,0.014727706843312685
0.1969138,0.03659435843641546,0.02425060676402946,0.11535216908525632,0.02301714462210575,0.041068235085199335,0.0625924323426913,0.12528999156740078,0.014787253315473207
0.1973793,0.03655956440878732,0.024237302075094416,0.11513299186872161,0.02299537060453495,0.04111304950350459,0.06274289090634558,0.12529026232744933,0.014846315596965165
0.1978448,0.03652236805502777,0.024224547074797653,0.11491984025642048,0.02297258701403435,0.04115768366431508,0.06289273463620573,0.12528440565322513,0.01490488111969867
0.1983103,0.03648278413766678,0.024212347417436116,0.1147128086670134,0.022948787155354693,0.04120214473404289,0.06304193232857605,0.12527245061342013,0.0149629374381683
0.1987759,0.036440828120830514,0.024200708537870194,0.11451199002257785,0.022923964614365383,0.04124643958021165,0.06319045270601031,0.12525442763455163,0.015020472229605477
0.1992414,0.03639651616799682,0.024189635649610332,0.11431747572329963,0.02289811325725365,0.041290574765318104,0.06333826442658448,0.1252303684967403,0.015077473294138081
0.1997069,0.0363498651394539,0.02417913374294577,0.11412935562227142,0.022871227229675824,0.04133455654101477,0.06348533609323588,0.1252003063289893,0.015133928554958972
0.2001724,0.036300892589461266,0.024169207583117094,0.11394771800041324,0.022843300955862792,0.041378390842618955,0.06363163626316874,0.12516427560395332,0.01518982605850513
0.2006379,0.03624961676311232,0.024159861708534642,0.11377264954153005,0.02281432913768173,0.04142208328395295,0.06377713345732591,0.12512231213218644,0.015245153974649078
0.2011034,0.03619605659289829,0.02415110042904476,0.11360423530752017,0.02278430675365599,0.04146563915251997,0.06392179616992644,0.12507445305585793,0.015299900596904357
0.201569,0.03614023169497319,0.0241429278242461,0.1134425587137488,0.022753229057945065,0.04150906340502003,0.06406559287806851,0.12502073684192652,0.015354054342646693
0.2020345,0.03608216236511978,0.02413534774185812,0.11328770150459942,0.02272109157928637,0.04155236066320959,0.06420849205139698,0.12496120327476251,0.015407603753352594
0.2025,0.036021869574416485,0.02412836379614385,0.11313974372921658,0.02268789011990068,0.04159553521010825,0.064350462161834,0.1248958934482079,0.015460537494857016
0.2029655,0.0359593749646055,0.02412197936638885,0.11299876371745206,0.022653620754362794,0.04163859098655578,0.06449147169337129,0.12482484975706393,0.015512844357631608
0.203431,0.03589470084316256,0.024116197595438277,0.11286483805602704,0.022618279828438965,0.041681531588122024,0.06463148915192186,0.12474811588799656,0.015564513257085012
0.2038966,0.035827870178069265,0.024111021388293657,0.11273804156492166,0.02258186395789249,0.04172436026237235,0.06477048307522938,0.1246657368098513,0.015615533233886503
0.2043621,0.03575890659228931,0.024106453410771132,0.11261844727400368,0.022544370027258762,0.04176707990649037,0.06490842204283263,0.12457775876337115,0.01566589345431419
0.2048276,0.035687834357950386,0.024102496088222743,0.11250612639990698,0.022505795188590992,0.041809693065259904,0.06504527468608341,0.12448422925031372,0.015715583210628825
0.2052931,0.03561467839023396,0.024099151604322258,0.11240114832317066,0.022466136860177812,0.041852201929407536,0.06518100969821582,0.12438519702196547,0.015764591921474135
0.2057586,0.03553946424097525,0.02409642189991715,0.1123035805656491,0.02242539272523383,0.04189460833430678,0.06531559584446517,0.12428071206705317,0.015812909132304497
0.2062241,0.035462218091975965,0.02409430867194816,0.11221348876820346,0.02238356073056432,0.04193691375904476,0.06544900197223459,0.12417082559905242,0.015860524515840635
0.2066897,0.03538296674803231,0.02409281337243791,0.1121309366686856,0.022340639085205154,0.04197911932585183,0.06558119702130681,0.12405559004289451,0.015907427872553892
0.2071552,0.03530173762968115,0.024091937207550068,0.11205598608022493,0.02229662625903909,0.04202122579989432,0.06571215003409878,0.12393505902107285,0.01595360913117953
0.2076207,0.035218558765667374,0.024091681136720396,0.11198869686983022,0.022251520981389543,0.0420632335894304,0.06584183016595604,0.12380928733915157,0.015999058349259344
0.2080862,0.03513345878513611,0.024092045871861166,0.11192912693731764,0.022205322239593043,0.04210514274632844,0.06597020669548381,0.12367833097068079,0.016043765713713864
0.2085517,0.0350464669095537,0.024093031876640098,0.11187733219457795,0.022158029277551367,0.04214695296694719,0.06609724903491108,0.1235422470415252,0.016087721541444257
0.2090172,0.03495761294436188,0.024094639365835176,0.11183336654519523,0.022109641594264408,0.04218866359337662,0.06622292674048402,0.1234010938136156,0.016130916279963922
0.2094828,0.0348669272703699,0.02409686830476638,0.11179728186443078,0.02206015894234467,0.04223027361503819,0.06634720952288442,0.12325493066813586,0.01617334050805974
0.2099483,0.03477444083488978,0.024099718408805402,0.11176912797958617,0.02200958132651411,0.04227178167064261,0.0664700672576684,0.12310381808815979,0.016214984936482796
0.2104138,0.03468018514261994,0.02410318914296421,0.11174895265075974,0.02195790900208399,0.042313186050503056,0.06659146999572021,0.12294781764075419,0.016255840408668364
0.2108793,0.03458419224628286,0.024107279721563193,0.11173680155201096,0.02190514247341825,0.04235448469920139,0.06671138797371556,0.12278699195856536,0.01629589790148482
0.2113448,0.03448649473702243,0.024111989107979525,0.11173271825294835,0.0218512824923808,0.04239567521860459,0.06682979162458837,0.12262140472090548,0.016335148526011176
0.2118103,0.03438712573456699,0.024117316014476187,0.11173674420075598,0.021796330056767056,0.04243675487122807,0.06694665158799516,0.12245112063435515,0.016373583528342787
0.2122759,0.03428611887716423,0.024123258902111838,0.11174891870267477,0.021740286408720198,0.04247772058394258,0.06706193872077025,0.12227620541289806,0.01641119429042472
0.2127414,0.0341835083112943,0.024129815980731727,0.11176927890895437,0.021683153033132587,0.04251856895202057,0.06717562410736479,0.122096725757602,0.01644797233091213
0.2132069,0.034079328681167836,0.024136985209039518,0.11179785979629232,0.02162493165603295,0.04255929624351784,0.06728767907026269,0.12191274933586102,0.016483909306057008
0.2136724,0.03397361511801581,0.024144764294749828,0.11183469415177698,0.021565624242960026,0.04259989840398594,0.0673980751803657,0.12172434476021245,0.016518997010620425
0.2141379,0.03386640322917836,0.024153150694821105,0.11187981255735072,0.021505232997323417,0.04264037106151033,0.06750678426733986,0.12153158156674256,0.016553227378809515
0.2146034,0.03375772908700005,0.024162141615768233,0.11193324337480971,0.021443760358752447,0.0426807095320692,0.0676137784299153,0.12133453019309481,0.01658659248523829
0.215069,0.03364762921753919,0.02417173401405415,0.11199501273135629,0.02138120900143389,0.042720908825207383,0.06771903004613126,0.12113326195609475,0.016619084545911374
0.2155345,0.033536140589099074,0.024181924596559566,0.11206514450571943,0.021317581832439373,0.04276096365001969,0.06782251178351804,0.120927849029006,0.016650695919229647
0.216,0.03342330060058935,0.02419270982112971,0.11214366031485824,0.021252881990043337,0.04280086842143749,0.06792419660920707,0.12071836441843216,0.016681419107016853
0.2164655,0.03330914706972576,0.024204085897196883,0.11223057950126211,0.021187112842032365,0.04284061726681234,0.0680240577999609,0.12050488194088006,0.01671124675556601
0.216931,0.033193718221076605,0.024216048786477522,0.1123259191208608,0.021120277984006723,0.04288020403279015,0.06812206895211417,0.12028747619899945,0.01674017165670443
0.2173966,0.03307705267396471,0.024228594203742293,0.11242969393155743,0.021052381237674795,0.04291962229246901,0.06821820399141638,0.1200662225575142,0.016768186748876018
0.2178621,0.03295918943023294,0.024241717617657737,0.11254191638239609,0.02098342664914103,0.04295886535283374,0.0683124371827678,0.1198411971188611,0.016795285118239498
0.2183276,0.032840167861881674,0.02425541425169789,0.11266259660337637,0.020913418487187887,0.042997926262460066,0.06840474313983906,0.11961247669855202,0.016821459999781033
0.2187931,0.032720027698586354,0.024269679085124285,0.1127917423959257,0.02084236124155222,0.043036797819480825,0.0684950968345657,0.11938013880027622,0.016846704778439834
0.2192586,0.03259880901510279,0.02428450685403264,0.11292935922404108,0.020770259621196416,0.0430754725798065,0.06858347360650925,0.11914426159075973,0.01687101299024531
0.2197241,0.032476552218568,0.02429989205246453,0.1130754502061109,0.020697118552574577,0.04311394286559239,0.06866984917207697,0.11890492387439909,0.01689437832346448
0.2201897,0.03235329803570388,0.024315828933582282,0.11323001610742735,0.020622943177893937,0.04315220077394437,0.06875419963359318,0.11866220506768578,0.01691679461975837
0.2206552,0.032229087499931044,0.02433231151090535,0.11339305533339995,0.02054773885337183,0.043190238185854615,0.06883650148821556,0.11841618517343747,0.01693825587534616
0.2211207,0.032103961938399754,0.024349333559606366,0.11356456392347955,0.02047151114748835,0.04322804677535908,0.06891673163668975,0.11816694475485173,0.016958756242175847
0.2215862,0.03197796295894472,0.024366888617865238,0.11374453554580297,0.02039426583923493,0.04326561801890778,0.06899486739193596,0.1179145649093963,0.016978290029100132
0.2220517,0.03185113243697041,0.024384969988279846,0.11393296149256776,0.020316008916359193,0.04330294320493897,0.06907088648746079,0.11765912724255001,0.016996851703056214
0.2225172,0.03172351250227331,0.024403570739331963,0.11412983067614642,0.020236746573606315,0.04334001344364815,0.06914476708558771,0.11740071384140749,0.01701443589024797
0.2229828,0.031595145525807375,0.02442268370690746,0.11433512962594912,0.02015648521095736,0.043376819676942444,0.06921648778549945,0.11713940724816013,0.017031037377329035
0.2234483,0.0314660741063987,0.024442301495869883,0.11454884248604351,0.02007523143186508,0.04341335268857076,0.069286027631086,0.11687529043346533,0.017046651112585263
0.2239138,0.03133634105741538,0.024462416481686858,0.11477095101353975,0.019992992041487707,0.04344960311441992,0.06935336611859179,0.11660844676971516,0.017061272207115057
0.2243793,0.031205989393398366,0.02448302081210887,0.11500143457774802,0.019909774044921322,0.043485561452966816,0.06941848320405546,0.11633896000421572,0.017074895936005984
0.2248448,0.0310750623166589,0.0245041064089001,0.11524027016011507,0.01982558464543139,0.0435212180758762,0.06948135931053552,0.11606691423228711,0.017087517739506296
0.2253103,0.030943603203848206,0.024525664969620914,0.11548743235494616,0.019740431242684018,0.04355656323873382,0.06954197533511465,0.11579239387029429,0.017099133224189756
0.2257759,0.03081165559250478,0.02454768796946185,0.11574289337091746,0.019654321430977454,0.04359158709190405,0.06960031265567511,0.11551548362861748,0.017109738164112254
0.2262414,0.030679263167584656,0.02457016666312866,0.11600662303338356,0.019567262997474234,0.04362627969150111,0.06965635313743757,0.1152362684845714,0.017119328501958613
0.2267069,0.030546469747979903,0.024593092086778078,0.11627858878748415,0.019479263920434364,0.04366063101046263,0.0697100791392552,0.1149548336552813,0.017127900350177763
0.2271724,0.03041331927303052,0.02461645506000391,0.11655875570205255,0.01939033236744976,0.04369463094971434,0.0697614735196548,0.11467126457052358,0.01713544999210446
0.2276379,0.030279855789034846,0.024640246187873402,0.11684708647432852,0.01930047669368022,0.04372826934941406,0.06981051964261688,0.11438564684553927,0.017141973883065473
0.2281034,0.030146123435763558,0.024664455863013888,0.1171435414354765,0.0192097054400911,0.043761536000263196,0.06985720138308757,0.11409806625382786,0.017147468651468042
0.228569,0.030012166432982247,0.02468907426775051,0.1174480785569101,0.019118027331692867,0.043794420654873635,0.06990150313221592,0.11380860869992945,0.01715193109986837
0.2290345,0.029878029066987558,0.024714091376296318,0.11776065345742197,0.01902545127578284,0.04382691303917769,0.06994340980231167,0.11351736019220285,0.017155358206017664
0.2295,0.029743755677161775,0.024739496956996673,0.11808121941111856,0.018931986360189328,0.04385900286386862,0.06998290683151945,0.11322440681560736,0.017157747123883287
0.2299655,0.029609390642550682,0.024765280574630694,0.11840972735615819,0.018837641851518486,0.04389067983585876,0.07001998018820622,0.11292983470449545,0.017159095184642613
0.230431,0.02947497836846951,0.024791431592773024,0.11874612590429068,0.018742427193404052,0.04392193366974268,0.07005461637505953,0.11263373001542314,0.017159399897647303
0.2308966,0.029340563273141728,0.024817939176219616,0.11909036135119583,0.018646352004760152,0.043952754099252166,0.07008680243289439,0.1123361788999837,0.017158658951356036
0.2313621,0.029206189774375276,0.02484479229348131,0.11944237768761826,0.018549426078037196,0.04398313088869011,0.07011652594416823,0.1120372674776698,0.01715687021423408
0.2318276,0.029071902276280894,0.02487197971934902,0.11980211661129513,0.018451659377480768,0.04401305384433041,0.0701437750362039,0.11173708180876837,0.017154031735618427
0.2322931,0.028937745156037115,0.024899490037534118,0.12016951753967312,0.018353062037393415,0.044042512825770964,0.07016853838412238,0.11143570786729186,0.01715014174654755
0.2327586,0.02880376275070633,0.024927311643387514,0.12054451762341102,0.018253644360399193,0.04407149775722701,0.07019080521348746,0.11113323151394963,0.017145198660555017
0.2332241,0.028669999344106332,0.024955432746700666,0.12092705176066482,0.018153416815710664,0.04409999863875167,0.07021056530266652,0.11082973846916326,0.01713920107442639
0.2336897,0.028536499153741565,0.02498384137459167,0.12131705261215238,0.018052390037398117,0.04412800555737066,0.07022780898491095,0.11052531428613027,0.017132147768918683
0.2341552,0.028403306317798336,0.025012525374479323,0.12171445061699548,0.017950574822660662,0.04415550869811785,0.07024252715016097,0.11022004432394202,0.01712403770944177
0.2346207,0.02827046488220793,0.025041472417147798,0.1221191740093371,0.017847982130098854,0.0441824983549581,0.07025471124657934,0.10991401372076168,0.017114870046700977
0.2350862,0.028138018787781608,0.025070669999904482,0.12253114883573168,0.01774462307798848,0.04420896494158395,0.0702643532818186,0.10960730736707008,0.017104644117300314
0.2355517,0.028006011857421208,0.025100105449833203,0.12295029897330595,0.01764050894255514,0.04423489900207272,0.07027144582402663,0.10930000987898712,0.01709335944430593
0.2360172,0.027874487783409018,0.02512976592714489,0.12337654614868657,0.01753565115624926,0.044260291221390316,0.07027598200259534,0.10899220557167738,0.017081015737769562
0.2364828,0.02774349011478041,0.02515963842862762,0.12380980995769142,0.01743006130602137,0.04428513243572841,0.07027795550865756,0.10868397843284847,0.01706761289521198
0.2369483,0.02761306224478253,0.025189709791197643,0.1242500078857796,0.017323751131597502,0.04430941364266105,0.07027736059533624,0.10837541209635106,0.017053151002066554
0.2374138,0.027483247398422204,0.025219966695552907,0.12469705532925551,0.01721673252375457,0.044333126011107324,0.0702741920777502,0.10806658981589043,0.0170376303320832
0.2378793,0.02735408862010605,0.025250395669930387,0.12515086561722194,0.017109017522595846,0.04435626089108609,0.07026844533278019,0.1077575944388602,0.017021051347693012
0.2383448,0.02722562876137554,0.02528098309396849,0.1256113500342769,0.017000618315826502,0.044378809823248835,0.07026011629859812,0.10744850838031053,0.017003414700334018
0.2388103,0.027097910468739717,0.02531171520267549,0.1260784178439488,0.016891547237029316,0.04440076454817684,0.07024920147396288,0.10713941359706408,0.01698472123073859
0.2392759,0.026970976171607874,0.025342578090504973,0.1265519763128642,0.016781816763940655,0.04442211701542838,0.0702356979172856,0.10683039156199454,0.016964971969183153
0.2397414,0.026844868070324594,0.025373557715538994,0.12703193073564173,0.016671439516726807,0.04444285939232148,0.07021960324546674,0.10652152323848309,0.0169441681357009
0.2402069,0.026719628124309155,0.025404639903779672,0.12751818446050542,0.016560428256260636,0.04446298407243777,0.07020091563250745,0.10621288905506893,0.016922311140258234
0.2406724,0.02659529804030128,0.025435810353549745,0.1280106389156089,0.016448795882398573,0.04448248368383223,0.07017963380789739,0.1059045688803104,0.0168994025828956
0.2411379,0.026471919260714964,0.025467054640002495,0.12850919363606236,0.01633655543225776,0.04450135109693396,0.07015575705478082,0.10559664199787204,0.01687544425383339
0.2416034,0.02634953295210205,0.025498358219741304,0.129013746291652,0.016223720078493233,0.04451957943212231,0.07012928520790268,0.10528918708185343,0.016850438133543536
0.242069,0.02622817999372701,0.02552970643554905,0.12952419271524174,0.01611030312757487,0.0445371620669628,0.07010021865133603,0.10498228217237457,0.016824386392787393
0.2425345,0.026107900966254278,0.025561084521227344,0.13004042693184625,0.015996318018063997,0.044554092643087295,0.07006855831599217,0.10467600465143188,0.016797291392620615
0.243,0.025988736140549328,0.025592477606545528,0.1305623411883639,0.015881778318889546,0.04457036507270271,0.07003430567691489,0.10437043121903881,0.01676915568436559
0.2434655,0.02587072546659481,0.025623870722299175,0.1310898259839577,0.015766697727623825,0.044585973544713865,0.06999746275036044,0.10406563786966389,0.016739982009552058
0.243931,0.025753908562522597,0.025655248805477756,0.13162277010107204,0.01565109006875812,0.04460091253044664,0.06995803209066448,0.10376169986897893,0.016709773299826324
0.2443966,0.02563832470376288,0.0256865967045408,0.13216106063707392,0.015534969291978399,0.04461517678895915,0.06991601678689803,0.10345869173092939,0.01667853267682946
0.2448621,0.025524012812311314,0.025717899184801902,0.1327045830365067,0.015418349470441581,0.04462876137193,0.06987142045931398,0.10315668719513786,0.016646263452044775
0.2453276,0.02541101144611552,0.025749140933919626,0.13325322112394525,0.015301244799052748,0.04464166162811443,0.06982424725558611,0.10285575920465174,0.016612969126614825
0.2457931,0.025299358788582135,0.025780306567494155,0.13380685713744198,0.01518366959274374,0.04465387320736053,0.0697745018468424,0.1025559798840446,0.016578653391128177
0.2462586,0.02518909263820608,0.0258113806347684,0.13436537176255375,0.015065638284753451,0.04466539206417907,0.06972218942349416,0.10225742051788021,0.016543320125376293
0.2467241,0.025080250398323706,0.02584234762443199,0.1349286441669409,0.014947165424910085,0.04467621446086166,0.06966731569086312,0.10196015152954772,0.01650697339808103
0.2471897,0.0249728690669916,0.025873191970526354,0.1354965520355296,0.014828265677915599,0.044686336970143084,0.06960988686460885,0.10166424246047527,0.016469617466593464
0.2476552,0.02486698522699311,0.02590389805844893,0.13606897160623047,0.014708953821632486,0.044695756477405445,0.06954990966595924,0.10136976194972905,0.01643125677656478
0.2481207,0.02476263503597442,0.02593445023105438,0.13664577770620553,0.014589244745372964,0.044704470182424176,0.06948739131674751,0.10107677771400372,0.016391895961590255
0.2485862,0.024659854216712362,0.02596483279485045,0.13722684378867683,0.014469153448190601,0.044712475600659156,0.069422339534259,0.10078535652801018,0.016351539842827292
0.2490517,0.024558678047515766,0.025995030026286087,0.13781204197026933,0.014348695037174236,0.04471977056409696,0.06935476252589118,0.10049556420526475,0.01631019342858844
0.2495172,0.02445914135276227,0.026025026178129032,0.13840124306888066,0.014227884725744013,0.044726353221652804,0.06928466898363067,0.10020746557928441,0.016267861913910307
0.2499828,0.024361278493572242,0.026054805485930168,0.13899431664206924,0.014106737831949255,0.04473222203914251,0.06921206807835069,0.09992112448519108,0.01622455068009917
0.2504483,0.024265123358621275,0.02608435217457166,0.13959113102595253,0.013985269776767709,0.04473737579883569,0.06913696945393291,0.09963660374172771,0.016180265294254006
0.2509138,0.02417070935509252,0.026113650464895787,0.14019155337460532,0.013863496082405702,0.0447418135986018,0.06905938322121782,0.09935396513368831,0.016135011508767626
0.2513793,0.02407806939976993,0.026142684580411194,0.14079544969994762,0.01374143237059863,0.04474553485066105,0.06897931995178756,0.09907326939476377,0.016088795260806345
0.2518448,0.02398723591027329,0.026171438754073222,0.14140268491211083,0.013619094360911162,0.04474853927995224,0.06889679067158519,0.09879457619080488,0.016041622671768698
0.2523103,0.023898240796435825,0.026199897235134714,0.14201312286027015,0.013496497869036533,0.044750826922129935,0.06881180685437407,0.09851794410350354,0.015993500046723518
0.2527759,0.023811115451825057,0.026228044296063634,0.14262662637392992,0.013373658805094286,0.04475239812120353,0.06872438041504088,0.0982434306144928,0.015944433873827678
0.2532414,0.023725890745407457,0.02625586423952362,0.1432430573046484,0.013250593171925831,0.044753253526830586,0.0686345237027457,0.09797109208986633,0.015894430823723753
0.2537069,0.023642597013357303,0.02628334140541339,0.14386227656818676,0.01312731706338719,0.04475339409127705,0.06854224949392243,0.09770098376511739,0.015843497748917867
0.2541724,0.02356126405101021,0.02631046017796078,0.14448414418706657,0.01300384666263842,0.04475282106605693,0.06844757098513268,0.09743315973049713,0.01579164168313792
0.2546379,0.0234819211049615,0.02633720499286702,0.1451085193335192,0.01288019824042921,0.04475153599826403,0.06835050178577644,0.09716767291679206,0.015738869840672354
0.2551034,0.023404596865309567,0.026363560344496523,0.1457352603728105,0.012756388153380297,0.04474954072660844,0.06825105591066313,0.09690457508152059,0.015685189615689415
0.255569,0.023329319458044184,0.0263895107931074,0.1463642249069237,0.01263243284226035,0.044746837377170626,0.0681492477724471,0.09664391679554789,0.015630608581536864
0.2560345,0.02325611643757988,0.02641504097211761,0.14699526981858377,0.012508348830258132,0.04474342835888561,0.0680450921739317,0.09638574743011859,0.015575134490021923
0.2565,0.023185014779434538,0.02644013559540149,0.14762825131560803,0.01238415272124969,0.044739316358769717,0.06793860430024704,0.09613011514430621,0.015518775270671166
0.2569655,0.02311604087305354,0.026464779464611326,0.14826302497556604,0.01225986119806035,0.04473450433690222,0.06782979971090611,0.09587706687287831,0.015461539029970094
0.257431,0.023049220514780092,0.026488957476518415,0.14889944579073325,0.012135491020721183,0.04472899552117357,0.06771869433174438,0.09562664831457558,0.015403434050582084
0.2578966,0.022984578900972556,0.02651265463036787,0.14953736821332173,0.012011059024719552,0.04472279340181191,0.0676053044467479,0.09537890392080302,0.015344468790546554
0.2583621,0.022922140621269464,0.026535856035241504,0.1501766462009717,0.011886582119243278,0.04471590172569934,0.06748964668977607,0.09513387688473093,0.015284651882456254
0.2588276,0.022861929652003194,0.026558546917422963,0.15081713326248658,0.011762077285417925,0.04470832449048891,0.06737173803618622,0.09489160913080413,0.015223992132613754
0.2592931,0.022803969349762827,0.026580712627759136,0.15145868250379427,0.011637561574536605,0.04470006593853305,0.06725159579436853,0.09465214130465827,0.015162498520167158
0.2597586,0.022748282445106884,0.026602338649011924,0.15210114667411825,0.011513052106281738,0.04469113055063443,0.06712923759720096,0.09441551276344363,0.015100180196225114
0.2602241,0.022694891036426315,0.02662341060319434,0.15274437821234213,0.011388566066938173,0.04468152303962932,0.06700468139343482,0.0941817615665587,0.01503704648295122
0.2606897,0.022643816583958115,0.026643914258884873,0.1533882292935521,0.011264120707597188,0.04467124834381359,0.06687794543902148,0.09395092446679762,0.014973106872637951
0.2611552,0.022595079903949707,0.02666383553851405,0.1540325518757433,0.01113973334235097,0.044660311620221424,0.06674904828839115,0.0937230369019175,0.014908371026760342
0.2616207,0.022548701162974187,0.026683160525617197,0.15467719774667593,0.011015421346477237,0.044648718237766186,0.0666180087856941,0.09349813298663326,0.01484284877500974
0.2620862,0.022504699872396294,0.026701875472047193,0.15532201857086783,0.010891202154613857,0.044636473770253066,0.06648484605601435,0.09327624550504926,0.014776550114308043
0.2625517,0.02246309488298898,0.02671996680514111,0.1559668659367113,0.010767093258923414,0.04462358398927257,0.06634957949656574,0.09305740590353734,0.014709485207803012
0.2630172,0.022423904379700283,0.02673742113483466,0.15661159140370087,0.010643112207247807,0.04461005485698391,0.06621222876787972,0.09284164428407207,0.014641664383845244
0.2634828,0.02238714587657002,0.026754225260718273,0.15725604654975878,0.01051927660125305,0.04459589251879707,0.06607281378499368,0.09262898939803331,0.014573098134947586
0.2639483,0.02235283621179582,0.026770366179028653,0.15790008301864344,0.010395604094564487,0.04458110329596218,0.06593135470864817,0.09241946864048609,0.01450379711672779
0.2644138,0.02232099154294792,0.02678583108956971,0.158543552567426,0.010272112390892658,0.04456569367807469,0.06578787193650083,0.09221310804494724,0.014433772146835349
0.2648793,0.02229162734233191,0.02680060740255651,0.15918630711401813,0.010148819242150015,0.04454967031550456,0.0656423860943643,0.0920099322786474,0.014363034203863449
0.2653448,0.022264758392498776,0.02681468274537609,0.15982819878473353,0.01002574244655868,0.04453304001175756,0.06549491802747527,0.0918099646382961,0.014291594426247011
0.2658103,0.022240398781901337,0.026828044969258814,0.1604690799618645,0.009902899846749443,0.04451580971577662,0.06534548879180109,0.09161322704635765,0.014219464111147707
0.2662759,0.02221856190069623,0.02684068215585394,0.16110880333125402,0.009780309327852234,0.04449798651419095,0.06519411964539047,0.09141974004784416,0.014146654713326809
0.2667414,0.022199260436690495,0.026852582623702846,0.16174722192984245,0.009657988815578345,0.044479577623520575,0.06504083203977418,0.09122952280763184,0.014073177844006668
0.2672069,0.022182506371431685,0.02686373493460357,0.16238418919316708,0.009535956274294793,0.0444605903823437,0.0648856476114215,0.09104259310830586,0.013999045269721564
0.2676724,0.022168310976440547,0.026874127899859854,0.16301955900279183,0.009414229705091239,0.044441032243434264,0.064728588173258,0.09085896734853861,0.01392426891115864
0.2681379,0.022156684809585134,0.026883750586408205,0.1636531857336427,0.009292827143839989,0.04442091076587671,0.06456967570624933,0.09067866054200595,0.013848860841989592
0.2686034,0.022147637711595277,0.026892592322815965,0.16428492430122418,0.009171766659249654,0.04440023360716491,0.06440893235105613,0.09050168631684524,0.013772833287693709
0.269069,0.02214117880271612,0.026900642705143616,0.16491463020869088,0.00905106635091311,0.044379008515292105,0.06424638039976395,0.09032805691565916,0.013696198624372772
0.2695345,0.022137316479499552,0.026907891602664158,0.16554215959374768,0.008930744347350384,0.04435724332083827,0.06408204228769204,0.09015778319606862,0.013618969377558278
0.27,0.022136058411732256,0.026914329163432418,0.16616736927535142,0.008810818804047158,0.04433494592906144,0.06391594058528448,0.08999087463181805,0.013541158221011325
0.2704655,0.02213741153949892,0.026919945819697047,0.16679011680018638,0.008691307901489458,0.044312124311999004,0.06374809799008643,0.08982733931443582,0.013462777975515405
0.270931,0.02214138207037938,0.026924732293147853,0.16741026048888574,0.008572229843195134,0.044288786500584966,0.06357853731880796,0.08966718395545234,0.013383841607662334
0.2713966,0.022147975476778138,0.02692867959999121,0.16802765948197093,0.008453602853742663,0.04426494057678886,0.06340728149947729,0.08951041388917823,0.013304362228631452
0.2718621,0.022157196493384924,0.02693177905584661,0.16864217378548013,0.008335445176797815,0.04424059466578182,0.06323435356368513,0.08935703307604408,0.01322435309296211
0.2723276,0.022169049114765187,0.026934022280457506,0.16925366431625768,0.008217775073138743,0.04421575692813505,0.06305977663892069,0.08920704410650385,0.013143827597319373
0.2727931,0.022183536593079433,0.026935401202209837,0.16986199294687515,0.008100610818680068,0.04419043555205618,0.06288357394099997,0.08906044820550317,0.013062799279252867
0.2732586,0.022200661435930517,0.026935908062451754,0.1704670225501549,0.007983970702496544,0.04416463874566881,0.06270576876658646,0.08891724523751347,0.01298128181594848
0.2737241,0.022220425404338235,0.026935535419608247,0.17106861704326698,0.007867873024846941,0.04413837472934132,0.06252638448580397,0.08877743371213312,0.012899289022972594
0.2741897,0.022242829510840615,0.026934276153084823,0.17166664143136984,0.007752336095198704,0.044111651728070696,0.06234544453494115,0.08864101079025576,0.012816834853008403
0.2746552,0.022267874017721477,0.02693212346695491,0.17226096185076473,0.007637378230253949,0.04408447796392767,0.062162972409246696,0.08850797229080623,0.012733933394583851
0.2751207,0.022295558435363863,0.02692907089342634,0.17285144561153454,0.007523017751977318,0.044056861648569354,0.06197899165581446,0.08837831269804397,0.012650598870790663
0.2755862,0.02232588152072894,0.026925112296083086,0.17343796123963695,0.007409272985626162,0.04402881097582603,0.06179352586655664,0.08825202516943356,0.012566845637993942
0.2760517,0.022358841275959867,0.026920241872899358,0.17402037851842278,0.007296162257783453,0.044000334114369155,0.06160659867126327,0.08812910154408218,0.012482688184531873
0.2765172,0.022394434947110083,0.026914454159024194,0.17459856852955066,0.007183703894393787,0.04397143920046737,0.06141823373074592,0.0880095323517437,0.012398141129404976
0.2769828,0.02243265902299553,0.026907744029335788,0.17517240369327017,0.007071916218802808,0.0439421343308377,0.06122845473006279,0.08789330682238886,0.012313219220954357
0.2774483,0.022473509234170363,0.02690010670076551,0.1757417578080467,0.0069608175498002784,0.04391242755559873,0.061037285371822785,0.0877804128963414,0.012227937335528325
0.2779138,0.022516980552025907,0.026891537734392304,0.1763065060895021,0.006850426199667032,0.043882326871332554,0.06084474936956571,0.0876708372349794,0.012142310476136729
0.2783793,0.022563067188013076,0.026882033037308455,0.17686652520864615,0.006740760472225966,0.043851840214262076,0.0606508704412167,0.08756456523200085,0.012056353771092279
0.2788448,0.02261176259298895,0.026871588864257955,0.17742169332937674,0.006631838660897235,0.043820975453550404,0.060455672302613506,0.08746158102525267,0.011970082472638083
0.2793103,0.022663059456688586,0.026860201819048544,0.17797189014522577,0.006523679046757737,0.04378974038472902,0.06025917866110641,0.08736186750912116,0.011883511955560689
0.2797759,0.022716949707323696,0.026847868855738827,0.1785169969153309,0.006416299896605011,0.04375814272326172,0.060061413209231494,0.08726540634748227,0.01179665771578792
0.2802414,0.022773424511310113,0.02683458727960211,0.17905689649961284,0.006309719461025587,0.043726190098250906,0.05986239961845925,0.08717217798720926,0.011709535368971001
0.2807069,0.02283247427312615,0.026820354747868654,0.1795914733931404,0.00620395597246779,0.04369389004629331,0.05966216153302131,0.08708216167223484,0.011622160649050526
0.2811724,0.022894088635304267,0.026805169270248584,0.18012061375966498,0.006099027643319018,0.04366125000549154,0.05946072256381875,0.08699533545816453,0.011534549406806066
0.2816379,0.022958256478558887,0.02678902920923763,0.18064420546430782,0.00599495266398741,0.043628277309627636,0.0592581062824156,0.0869116762274371,0.011446717608389384
0.2821034,0.023024965922053553,0.026771933280208226,0.18116213810538295,0.005891749200987869,0.04359497918250464,0.05905433621512136,0.08683115970502779,0.011358681333841275
0.282569,0.023094204323811224,0.026753880551288328,0.1816743030453386,0.00578943539503238,0.04356136273246195,0.058849435837166106,0.0867537604746885,0.011270456775592205
0.2830345,0.02316595828127159,0.026734870443030332,0.1821805934407999,0.005688029359124595,0.04352743494706955,0.05864342856697196,0.08667945199571937,0.01118206023694686
0.2835,0.02324021363199958,0.02671490272787237,0.1826809042716971,0.005587549176658649,0.04349320268800625,0.058436337760524065,0.08660820662026499,0.011093508130552794
0.2839655,0.02331695545454928,0.026693977529394335,0.1831751323694639,0.00548801289952222,0.0434586726861268,0.058228186705844905,0.08653999561112768,0.011004816976853338
0.284431,0.023396168069487522,0.026672095321370982,0.1836631764442954,0.005389438546203848,0.043423851536722416,0.058018998617575535,0.08647478916009013,0.01091600340252502
0.2848966,0.023477835040581287,0.026649256926624704,0.1841449371114566,0.0052918440999045,0.04338874569497909,0.057808796631667984,0.08641255640673848,0.010827084138899747
0.2853621,0.02356193917615313,0.026625463515680802,0.1846203169166381,0.005195247506653373,0.04335336147163754,0.05759760380019305,0.08635326545777648,0.01073807602037203
0.2858276,0.02364846253060859,0.026600716605228215,0.185089220360359,0.0050996666734278535,0.04331770502885888,0.057385443086267654,0.08629688340682075,0.010648995982791565
0.2862931,0.02373738640613947,0.026575018056388774,0.18555155392142184,0.005005119466277554,0.04328178237629899,0.0571723373591062,0.0862433763546664,0.010559861061841393
0.2867586,0.02382869135460663,0.026548370072798044,0.18600722607942752,0.004911623708452276,0.04324559936739494,0.056958309389199865,0.08619270943001242,0.010470688391401953
0.2872241,0.02392235717960593,0.026520775198500733,0.18645614733636046,0.004819197178533742,0.043209161695865896,0.056743381843628406,0.08614484681063518,0.010381495201901337
0.2876897,0.024018362938720544,0.02649223631566379,0.18689823023725627,0.004727857608570895,0.04317247489243095,0.05652757728150907,0.08609975174499868,0.010292298818652111
0.2881552,0.024116686945963056,0.026462756642110157,0.1873333893899639,0.00463762268221856,0.04313554432174556,0.056310918149588045,0.08605738657428967,0.010203116660175164
0.2886207,0.024217306774410304,0.02643233972867661,0.18776154148401505,0.0045485100328792275,0.0430983751795583,0.05609342677798016,0.08601771275486553,0.010113966236511125
0.2890862,0.02432019925903397,0.026400989456399238,0.18818260530861228,0.004460537241847681,0.043060972490088924,0.055875125376063615,0.08598069088110276,0.010024865147519957
0.2895517,0.024425340499729695,0.02636871003353036,0.18859650176974818,0.004373721836458195,0.04302334110362868,0.055656036028536485,0.08594628070863353,0.009935831081169395
0.2900172,0.024532705864547522,0.026335505992390935,0.18900315390646624,0.0042880812882339575,0.04298548569436316,0.05543618069164179,0.08591444117795713,0.00984688181181296
0.2904828,0.02464226999312608,0.02630138218606271,0.18940248690627462,0.004203633011038384,0.04294741075841769,0.05521558118956789,0.0858851304384133,0.009758035198458314
0.2909483,0.02475400680033303,0.02626634378492422,0.18979442811972302,0.004120394359227944,0.04290912061212489,0.05499425921103038,0.0858583058725031,0.009669309183026682
0.2914138,0.024867889480113953,0.026230396273034938,0.1901789070741534,0.004038382625806136,0.042870619390513925,0.05477223630604122,0.0858339241205433,0.009580721788604156
0.2918793,0.024983890509551902,0.0261935454443717,0.19055585548663356,0.003957615040578213,0.04283191104602022,0.054549533882870836,0.08581194110563929,0.009492291117685583
0.2923448,0.02510198165313959,0.02615579739892143,0.19092520727608225,0.0038781087683062467,0.042792999347414394,0.054326173205207974,0.08579231205896107,0.009404035350411715
0.2928103,0.025222133967265973,0.02611715853863413,0.19128689857459377,0.003799880906864136,0.04275388787894864,0.05410217538952208,0.08577499154530616,0.009315972742800242
0.2932759,0.025344317804918946,0.026077635563240154,0.19164086773796724,0.0037229484853921226,0.042714580039718814,0.05387756140263244,0.0857599334889329,0.009228121624971282
0.2937414,0.025468502820605587,0.02603723546593572,0.19198705535544644,0.003647328462450392,0.04267507904323976,0.053652352059487984,0.08574709119964681,0.009140500399367809
0.2942069,0.025594657975491333,0.025995965528940724,0.19232540425867303,0.0035730377241713594,0.04263538791723156,0.05342656802116104,0.08573641739912173,0.009053127538971478
0.2946724,0.025722751542759128,0.025953833318932893,0.1926558595298555,0.0035000930824102233,0.042595509503613696,0.0532002297930581,0.08572786424743782,0.008966021585514272
0.2951379,0.02585275111318951,0.025910846682362244,0.1929783685091559,0.003428511272893393,0.0425554464587041,0.052973357723350156,0.0857213833698173,0.008879201147686385
0.2956034,0.02598462360096235,0.025867013740649827,0.193292880801294,0.00335830895336442,0.04251520125361983,0.05274597200162482,0.08571692588353871,0.008792684899340698
0.296069,0.02611833524968074,0.02582234288527476,0.19359934828136893,0.0032895027017270546,0.04247477617487588,0.0525180926577621,0.08571444242501008,0.008706491577694242
0.2965345,0.026253851638617372,0.02577684277275374,0.19389772509989767,0.003222109014185106,0.04243417332517811,0.052289739561035414,0.08571388317698075,0.008620639981527015
0.297,0.02639113768918346,0.02573052231951759,0.19418796768706933,0.0031561443033787818,0.042393394624406326,0.0520609324194392,0.08571519789587166,0.008535148969378474
0.2974655,0.02653015767162007,0.02568339069668978,0.1944700347562141,0.003091624896517208,0.042352441810783174,0.05183169077924395,0.0857183359392035,0.00845003745774199
0.297931,0.02667087521191155,0.025635457324772203,0.19474388730648487,0.00302856703350684,0.04231131644222438,0.051602034024779364,0.08572324629310246,0.008365324419257535
0.2983966,0.0268132532989206,0.025586731868243954,0.19500948862474973,0.002966986865075477,0.04227001989786531,0.05137198137844606,0.08572987759986452,0.00828102888090283
0.2988621,0.02695725429174442,0.02553722423007861,0.195266804286693,0.0029069004508915797,0.042228553379759004,0.05114155190095558,0.08573817818555915,0.008197169922183086
0.2993276,0.027102839927291497,0.02548694454618582,0.19551580215712203,0.0028483237576785664,0.04218691791474008,0.05091076449179845,0.08574809608765567,0.008113766673319494
0.2997931,0.027249971328078305,0.025435903179782574,0.19575645238947667,0.0027912726573237558,0.04214511435644907,0.05067963788993944,0.08575957908265504,0.008030838313436485
0.3002586,0.027398609010245444,0.025384110715699487,0.1959887274245374,0.0027357629249816114,0.04210314338751156,0.05044819067473868,0.08577257471371126,0.007948404068747798
0.3007241,0.0275487128917926,0.02533157795462734,0.1962126019883281,0.002681810237170935,0.04206100552186626,0.050216441267097345,0.08578703031822618,0.007866483210741265
0.3011897,0.027700242301031738,0.025278315907308807,0.1964280530892088,0.0026294301698656292,0.04201870110723624,0.04998440793082588,0.0858028930554016,0.007785095054362245
0.3016552,0.027853155985258015,0.025224335788680278,0.196635060014154,0.0025786381965786694,0.041976230327737396,0.04975210877423265,0.08582010993373282,0.007704258956195549
0.3021207,0.028007412119637955,0.025169649011968512,0.19683360432421065,0.0025294496864389274,0.04193359320661791,0.049519561751930605,0.08583862783842765,0.007623994312645644
0.3025862,0.02816296831631441,0.025114267182746584,0.19702366984913078,0.0024818799022605057,0.04189078960912244,0.04928678466685908,0.08585839355873573,0.007544320558114914
0.3030517,0.028319781633727826,0.025058202092953553,0.1972052426811737,0.0024359439986042612,0.041847819245474586,0.04905379517251776,0.08587935381517398,0.007465257163179732
0.3035172,0.02847780858615324,0.025001465714882043,0.19737831116807272,0.002391657019831207,0.04180468167397126,0.048820610775409216,0.08590145528663444,0.007386823632764014
0.3039828,0.028637005153452293,0.024944070195137707,0.19754286590516115,0.0023490338981474856,0.04176137630418234,0.04858724883768611,0.08592464463736123,0.0073090395043098975
0.3044483,0.028797326791039336,0.024886027848574334,0.19769889972665355,0.002308089451640614,0.04171790240024934,0.04835372657999878,0.08594886854378359,0.007231924345945177
0.3049138,0.028958728440060415,0.024827351152208167,0.1978464076960778,0.0022688383823067197,0.041674259084276286,0.048120061084538444,0.08597407372119252,0.007155497754647025
0.3053793,0.02912116453778377,0.024768052739114855,0.19798538709585478,0.0022312952740685,0.04163044533980639,0.047886269298271104,0.08600020695024847,0.007079779354401503
0.3058448,0.029284589028200195,0.024708145392312194,0.19811583741602246,0.0021954745907836735,0.04158646001537749,0.0476523680363567,0.08602721510330774,0.007004788794358325
0.3063103,0.029448955372831303,0.02464764203863169,0.19823776034210247,0.0021613906742437394,0.04154230182814915,0.04741837398574784,0.08605504517055516,0.006930545746980268
0.3067759,0.029614216561743553,0.02458655574258175,0.19835115974210735,0.002129057742162895,0.04149796936759422,0.04718430370896206,0.086083644285931,0.006857069906186638
0.3072414,0.029780325124765656,0.024524899700205348,0.19845604165268774,0.0020984898861570052,0.041453461099247184,0.046950173648021495,0.08611295975283927,0.006784380985490177
0.3077069,0.02994723314290669,0.024462687232934707,0.19855241426441989,0.0020697010697125514,0.041408775368501564,0.04671600012855348,0.0861429390696245,0.006712498716126797
0.3081724,0.03011489225997213,0.02439993178144559,0.1986402879062335,0.0020427051261455173,0.041363910404448485,0.04648179936404629,0.08617352995480328,0.00664144284517757
0.3086379,0.030283253694374904,0.024336646899513585,0.1987196750289811,0.002017515756550185,0.041318864323748344,0.04624758746025413,0.0862046803720365,0.006571233133682448
0.3091034,0.030452268251138233,0.024272846247874857,0.19879059018815137,0.0019941465277378374,0.0412736351345274,0.046013380419746154,0.08623633855482828,0.006501889354745109
0.309569,0.030621886334087377,0.0242085435880936,0.19885305002572695,0.001972610870165382,0.04122822074029131,0.045779194146594177,0.0862684530309358,0.006433431291628384
0.3100345,0.030792057958227058,0.02414375277643851,0.19890707325118823,0.0019529220758539127,0.04118261894384794,0.04554504445119418,0.08630097264647552,0.006365878735839645
0.3105,0.030962732762301697,0.02407848775777047,0.19895268062166463,0.0019350932962972393,0.041136827451232524,0.045310947055216294,0.08633384658970931,0.0062992514852055195
0.3109655,0.03113386002153572,0.02401276255944371,0.19898989492123317,0.0019191375403604227,0.04109084387562871,0.045076917596678,0.08636702441449519,0.006233569341935287
0.311431,0.03130538866055152,0.023946591285222547,0.1990187409393644,0.0019050676721683718,0.041044665741279684,0.044842971635135044,0.08640045606338684,0.006168852110672281
0.3118966,0.03147726726646302,0.02387998810921583,0.1990392454485161,0.001892896408984562,0.0409982904873835,0.04460912465698444,0.0864340918903666,0.006105119596532601
0.3123621,0.03164944410214314,0.023812967269831228,0.1990514371808773,0.0018826363190799643,0.04095171547196708,0.04437539208087396,0.08646788268319716,0.006042391603130469
0.3128276,0.03182186711966375,0.02374554306375133,0.19905534680426695,0.0018742998195923001,0.04090493797573349,0.04414178926321244,0.08650177968537703,0.005980687930589576
0.3132931,0.03199448397390698,0.023677729839933576,0.19905100689719532,0.0018678991743757774,0.04085795520587759,0.04390833150377512,0.08653573461768564,0.005920028373539815
0.3137586,0.03216724203634677,0.023609541993635796,0.19903845192310077,0.0018634464918415251,0.040810764299865424,0.043675034051398526,0.08656969969930385,0.00586043271909878
0.3142241,0.03234008840899955,0.023540993960469284,0.19901771820377853,0.0018609537227890012,0.04076336232917313,0.043441912109759166,0.08660362766849729,0.0058019207448374785
0.3146897,0.03251296993854296,0.02347210021048091,0.1989888438920228,0.0018604326582287347,0.040715746302981484,0.04320898084323046,0.08663747180285025,0.005744512216729665
0.3151552,0.032685833230601403,0.023402875242265895,0.19895186894350694,0.0018618949271968243,0.04066791317182287,0.04297625538281223,0.08667118593903954,0.005688226887084199
0.3156207,0.03285862466419768,0.023333333577112512,0.1989068350879274,0.0018653519945616925,0.04061985983117764,0.04274375083212687,0.08670472449213772,0.005633084492459893
0.3160862,0.033031290406369776,0.02326348975317995,0.19885378579943797,0.001870815158823652,0.04057158312501763,0.04251148227347602,0.08673804247443605,0.005579104751562274
0.3165517,0.03320377642695235,0.0231933583197104,0.1987927662664014,0.0018782955499079062,0.0405230798492947,0.04227946477395165,0.086771095513779,0.0055263073631217135
0.3170172,0.03337602851352272,0.02312295383127613,0.19872382336048416,0.0018878041269516658,0.04047434675537295,0.04204771339159517,0.08680383987140361,0.0054747120037523305
0.3174828,0.0335479922865112,0.023052290842062194,0.19864700560512003,0.001899351676086136,0.0404253805534036,0.041816243181598226,0.08683623245927918,0.005424338325791046
0.3179483,0.03371961321447578,0.0229813839001854,0.19856236314336767,0.0019129488082141825,0.04037617791564224,0.041585069202538356,0.08686823085694492,0.005375205955116147
0.3184138,0.03389083662954097,0.022910247542049816,0.198469947705188,0.0019286059567845421,0.04032673547970898,0.04135420652264303,0.08689979332784475,0.0053273344889446595
0.3188793,0.03406160774300089,0.02283889628673903,0.19836981257416667,0.0019463333755634703,0.04027704985179233,0.04112367022607486,0.0869308788351593,0.005280743493607826
0.3193448,0.03423187166108606,0.02276734463044525,0.19826201255370762,0.0019661411364047315,0.040227117609798434,0.04089347541923101,0.08696144705713614,0.005235452502303925
