Time,Rectus Femoris right,Rectus Femoris left,Hamstrings right,Hamstrings left,TibilaisÂ Anterior right,TibilaisÂ Anterior left,Gastrocnemius right,Gastrocnemius left
0.0,-2.3151125580233736e-06,-0.00019669903008195193,-0.002673333129491898,-0.001399390694506528,0.0011265966426532504,0.0009845847038445772,0.000245348226991169,-0.00022272821230887762
0.0004655,1.8230308320631643e-05,-0.0001644021704178128,-0.0025797277116737043,-0.0013282600015867706,0.0011574963944898913,0.001181869339497462,0.0004348512078135293,-0.0002013802199689884
0.000931,3.876199096364257e-05,-0.00013204308148611236,-0.0024859846508018283,-0.001257108645388917,0.0011882168828287283,0.0013788058184070453,0.0006242894719074771,-0.00018003487919135446
0.0013966,5.927743084110426e-05,-9.962506515163292e-05,-0.002392111713578613,-0.0011859450638822243,0.001218753130156963,0.0015753646286310416,0.0008136380353561532,-0.00015869489805970464
0.0018621,7.97741298377856e-05,-6.715142852046997e-05,-0.0022981166267407567,-0.0011147776876984992,0.0012491002045940827,0.001771516315750512,0.0010028719187098853,-0.00013736298306200152
0.0023276,0.00010024959700907872,-3.46254829526245e-05,-0.0022040070741815012,-0.0010436149375103434,0.0012792532216962544,0.001967231492449405,0.0011919661542511228,-0.00011604183827040388
0.0027931,0.00012070134933256335,-2.050543077233975e-06,-0.0021097906941111417,-0.0009724652214209945,0.0013092073462448123,0.0021624808480767144,0.001380895793244608,-9.473416452316856e-05
0.0032586,0.00014112691245475435,3.057007418879891e-05,-0.0020154750762590577,-0.0009013369323679581,0.001338957794017685,0.0023572351581843355,0.0015696359131681706,-7.344265860901809e-05
0.0037241,0.0001615238214326032,6.323305061804189e-05,-0.0019210677591202604,-0.0008302384455424398,0.0013684998335426316,0.002551465294033749,0.0017581616249196476,-5.217001245449313e-05
0.0041897,0.00018188962146932483,9.593506764491766e-05,-0.0018265762272492078,-0.0007591781158263731,0.001397828787831183,0.0027451422320648017,0.0019464480799955524,-3.091891231479956e-05
0.0046552,0.00020222186864412374,0.00012867280733254576,-0.001732007908603369,-0.0006881642752485997,0.0014269400360921972,0.002938237063320087,0.002134470477637228,-9.692037968648055e-06
0.0051207,0.0002225181306353959,0.00016144295333337712,-0.0016373701719387492,-0.0006172052304615475,0.0014558290154239831,0.0031307210028188276,0.0023222040719402875,1.1507938082432953e-05
0.0055862,0.00024277598743698467,0.0001942421918429873,-0.0015426703242593753,-0.0005463092602395921,0.0014844912224839597,0.003322565398874662,0.0025096241789232276,3.267835140985158e-05
0.0060517,0.0002629930320670726,0.00022706721254643053,-0.0014479156083225667,-0.0004754846130001821,0.0015129222151348458,0.003513741742352247,0.002696706183551162,5.381654644833876e-05
0.0065172,0.00028316687126929375,0.00025991470955659797,-0.001353113200201699,-0.0004047395043487489,0.0015411176140663993,0.0037042216758580377,0.002883425546710723,7.491987728055647e-05
0.0069828,0.0003032951262056546,0.00029278138234407067,-0.0012582702069080407,-0.00033408211464838034,0.0015690731043917247,0.0038939770028608716,0.0030697578121322796,9.598570841554097e-05
0.0074483,0.00032337543314086057,0.00032566393665800356,-0.0011633936640731578,-0.0002635205866152049,0.0015967844372171765,0.004082979696738159,0.003255678613255743,0.00011701141556061522
0.0079138,0.0003434054441176542,0.00035855908543762236,-0.0010684905336932628,-0.00019306302294038832,0.0016242474311848958,0.004271201909743596,0.003441163680036343,0.00013799438638642243
0.0083793,0.00036338282762279114,0.0003914635497139514,-0.0009735677019368022,-0.00012271748393959456,0.0016514579739870215,0.004458615981892395,0.0036261888456868645,0.00015893202128475114
0.0088448,0.000383305269243297,0.00042437405950142005,-0.0008786319770164732,-5.2491985230702194e-05,0.0016784120238506589,0.004645194449760184,0.003810730053352923,0.00017982173411884377
0.0093103,0.0004031704723126732,0.00045728735467901474,-0.0007836900871267956,1.760550455949422e-05,0.0017051056109927203,0.004830910055191869,0.003994763362717979,0.0002006609529659062
0.0097759,0.00042297615854673925,0.0004902001858606528,-0.0006887486784482848,8.75670660589145e-05,0.0017315348390437883,0.005015735753916922,0.004178264956534984,0.00022144712085156383
0.0102414,0.0004427200686688235,0.0005231093152544614,-0.0005938143132191968,0.00015738483138351146,0.0017576958864401837,0.00519964472406768,0.004361211147081746,0.00024217769647603298
0.0107069,0.0004623999630240358,0.0005560115175106435,-0.0004988934678757277,0.00022705098633966312,0.0017835850077834296,0.005382610374597354,0.004543578382537367,0.00026285015493179506
0.0111724,0.00048201362218237777,0.0005889035805576106,-0.0004039925312614615,0.00029655777259504965,0.0018091985351663164,0.005564606353594582,0.004725343253277251,0.0002834619884125699
0.0116379,0.0005015588475304748,0.0006217823064260622,-0.0003091178029067799,0.0003658974898174551,0.0018345328794647981,0.0057456065564914,0.004906482498084351,0.0003040107069133906
0.0121034,0.0005210334618517393,0.000654644512060689,-0.0002142754913788858,0.00043506249778096386,0.001859584531594953,0.00592558513416161,0.005086973010274411,0.00032449383892158517
0.012569,0.0005404353098948007,0.0006874870301191818,-0.00011947171270305641,0.0005040452184390533,0.0018843500637342767,0.006104516500906485,0.005266791843733079,0.0003449089320984741
0.0130345,0.0005597622589300526,0.000720306709758238,-2.4712488855711584e-05,0.0005728381379641125,0.0019088261305066007,0.00628237534232477,0.005445916218862817,0.00036525355395159576
0.0135,0.0005790121992941827,0.0007531004174062726,6.99962536701266e-05,0.0006414338087529401,0.0019330094701299704,0.006459136623063876,0.005624323528437659,0.00038552529249727977
0.0139655,0.0005981830449225471,0.0007858650375225693,0.00016464868522642068,0.0007098248513977935,0.001956896905526851,0.00663477559444918,0.005801991343363891,0.0004057217569133882
0.014431,0.0006172727338692579,0.0008185974733426442,0.00025923907429820504,0.0007780039566225738,0.0019804853453960674,0.006809267801988295,0.005978897418344913,0.00042584057818205234
0.0148966,0.0006362792288148431,0.0008512946476096409,0.00035376178871765235,0.0008459638871837422,0.0020037717852459135,0.0069825890927472135,0.006155019697448554,0.00044587940972223427
0.0153621,0.0006552005175613433,0.0008839535032916277,0.00044821129680363794,0.0009136974797355659,0.0020267533083879025,0.007154715622595172,0.006330336319575237,0.0004658359280119431
0.0158276,0.0006740346135147061,0.0009165710042847163,0.0005425821684263734,0.0009811976466592956,0.002049427086890653,0.007325623863315089,0.006504825623825427,0.00048570783319993796
0.0162931,0.0006927795561543432,0.0009491441361019603,0.0006368690759967434,0.001048457377855873,0.0020717903824934666,0.0074952906095763555,0.006678466154764875,0.0005054928497067496
0.0167586,0.0007114334114897208,0.0009816699065480258,0.0007310667953800467,0.001115469742501768,0.002093840547479179,0.007663692985766768,0.006851236667586242,0.0005251887268148566
0.0172241,0.0007299942725038686,0.0010141453463796478,0.0008251702067339268,0.0011822278907675406,0.0021155750255059187,0.007830808452680275,0.007023116133165839,0.0005447932392478566
0.0176897,0.0007484602595837166,0.0010465675099519027,0.0009191742952703652,0.0012487250554987206,0.0021369913523974393,0.007996614814057184,0.00719408374301444,0.0005643041877384819
0.0181552,0.0007668295209371876,0.0010789334758503494,0.0010130741519417076,0.0013149545538586058,0.0021580871568917404,0.008161090222973396,0.007364118914121356,0.0005837193995853206
0.0186207,0.0007851002329969971,0.0011112403475090937,0.0011068649740507874,0.0013809097889325751,0.0021788601613477203,0.0083242131880752,0.007533201293691177,0.0006030367291981129
0.0190862,0.0008032706008111218,0.0011434852538148477,0.0012005420657852967,0.001446584251293543,0.0021993081824096504,0.008485962579656092,0.007701310763772774,0.0006222540586315024
0.0195517,0.0008213388584199107,0.0011756653496970565,0.0012941008386766453,0.0015119715205281802,0.0022194291316292958,0.008646317635572063,0.007868427445780224,0.0006413692981071267
0.0200172,0.0008393032692198128,0.0012077778167041671,0.0013875368119836413,0.0015770652667235628,0.002239221016045542,0.008805257966991768,0.008034531704905418,0.0006603803865239294
0.0204828,0.000857162126313711,0.0012398198635661137,0.001480845613001421,0.0016418592519139177,0.002258681938721422,0.008962763563977998,0.008199604154422158,0.0006792852919565777
0.0209483,0.0008749137528478639,0.0012717887267430907,0.001574022977296166,0.0017063473314871517,0.0022778100992384785,0.009118814800896873,0.008363625659881645,0.0006980820121418693
0.0214138,0.0008925565023354719,0.0013036816709606862,0.0016670647488662659,0.0017705234555508574,0.0022966037941484253,0.009273392441651299,0.008526577343199454,0.0007167685749530112
0.0218793,0.0009100887589668968,0.0013354959897314406,0.0017599668802307804,0.0018343816702575022,0.002315061417382108,0.00942647764473536,0.008688440586634276,0.0007353430388616571
0.0223448,0.0009275089379065728,0.001367229005862899,0.0018527254324462962,0.00189791611908852,0.0023331814606157935,0.009578051968106401,0.008849197036658984,0.00075380349338759
0.0228103,0.0009448154855766579,0.0013988780719522186,0.0019453365750535087,0.0019611210440970387,0.002350962513594859,0.009728097373871696,0.009008828607724702,0.0007721480595359403
0.0232759,0.0009620068799274855,0.0014304405708673877,0.0020377965859550763,0.0020239907871089967,0.0023684032644149746,0.009876596232786704,0.00916731748591873,0.0007903748902218312
0.0237414,0.0009790816306948903,0.0014619139162150997,0.0021301018512264046,0.0020865197908824257,0.0023855024997609113,0.010023531328562015,0.0093246461325172,0.0008084821706823448
0.0242069,0.00099603827964449,0.001493295552795326,0.002222248864861076,0.0021487026002246987,0.0024022591051031444,0.010168885861976196,0.009480797287433342,0.0008264681188757024
0.0246724,0.001012875400803025,0.0015245829570426207,0.002314234228452657,0.0022105338630675738,0.0024186720648524435,0.010312643454791914,0.00963575397256222,0.0008443309858675547
0.0251379,0.0010295916006768594,0.0015557736374541755,0.0024060546508146204,0.002272008331499893,0.002434740462472682,0.010454788153472791,0.009789499495022771,0.0008620690562042742
0.0256034,0.0010461855184577553,0.0015868651350046375,0.002497706947540116,0.002333120862757841,0.0024504634805521362,0.01059530443269859,0.009942017450297982,0.0008796806482731467
0.026069,0.0010626558262160303,0.0016178550235476938,0.0025891880405033234,0.0023938664201727236,0.0024658404008335586,0.010734177198676371,0.010093291725273986,0.0008971641146493656
0.0265345,0.0010790012290812121,0.0016487409102044237,0.002680494957304128,0.002454240074076286,0.002480870604203359,0.010871391792245336,0.010243306501178802,0.0009145178424297423
0.027,0.0010952204654102976,0.001679520435738415,0.0027716248306578588,0.0025142370026636687,0.002495553570640251,0.011006933991773122,0.010392046256421483,0.0009317402535530547
0.0274655,0.0011113123069437382,0.0017101912749176557,0.0028625748977318295,0.0025738524928141516,0.0025098888791237482,0.011140790015841428,0.010539495769332276,0.0009488298051069642
0.027931,0.0011272755589492654,0.0017407511368632124,0.0029533424994304504,0.0026330819408699135,0.0025238762075029232,0.011272946525719208,0.010685640120804496,0.0009657849896214347
0.0283966,0.001143109060353677,0.0017711977653847198,0.003043925079630664,0.002691920853373086,0.0025375153323258476,0.011403390627622006,0.010830464696838814,0.000982604335348582
0.0288621,0.0011588116838627026,0.001801528939302698,0.0031343201843694467,0.0027503648477613996,0.002550806128630169,0.011532109874756388,0.010973955190990745,0.000999286406528882
0.0293276,0.001174382336069071,0.001831742472757726,0.0032245254609851335,0.0028084096530227487,0.002563748569695294,0.01165909226914885,0.011116097606722176,0.0010158298036436594
0.0297931,0.0011898199575488945,0.0018618362155064841,0.003314538657214289,0.002866051110309013,0.0025763427267566645,0.011784326263258751,0.011256878259657876,0.0010322331636537728
0.0302586,0.0012051235229464932,0.001891808053204686,0.0034043576202458362,0.0029232851735094345,0.0025885887686826594,0.011907800761374938,0.011396283779748046,0.001048495160224413
0.0307241,0.0012202920410477865,0.0019216559076769024,0.0034939802957341436,0.0029801079097838616,0.0026004869616146516,0.012029505120795718,0.011534301113337949,0.0010646145039359327
0.0311897,0.0012353245548423727,0.001951377737173292,0.0035834047267727684,0.003036515500056153,0.0026120376685707923,0.012149429152791776,0.011670917525145761,0.001080589942480633
0.0316552,0.0012502201415744275,0.001980971536613224,0.003672629052830534,0.0030925042394680364,0.0026232413490140894,0.012267563123351543,0.011806120600149727,0.0010964202608454363
0.0321207,0.001264977912782545,0.0020104353378157837,0.003761651508651619,0.003148070537793686,0.002634098558385369,0.012383897753708519,0.011939898245385739,0.0011121042814803879
0.0325862,0.0012795970143286454,0.002039767209717137,0.003850470423121316,0.0032032109198153053,0.0026446099476017245,0.012498424220650076,0.012072238691656348,0.0011276408644529281
0.0330517,0.0012940766264160734,0.0020689652585747266,0.003939084218099131,0.003257922025659962,0.0026547762625210585,0.012611134156607353,0.012203130495152143,0.0011430289075878746
0.0335172,0.0013084159635970134,0.0020980276281582708,0.004027491407220875,0.0033122006110979647,0.0026645983433733083,0.01272201964952606,0.012332562538986383,0.0011582673465930634
0.0339828,0.001322614274769337,0.0021269524999275266,0.004115690594671409,0.003366043547803031,0.0026740771241589682,0.012831073242518287,0.012460524034643691,0.0011733551551706101
0.0344483,0.0013366708431630004,0.002155738093196778,0.0042036804739296755,0.0034194478235745097,0.0026832136320154975,0.012938287933295886,0.012587004523343498,0.0011882913451137656
0.0349138,0.0013505849863161073,0.0021843826652860076,0.004291459826487696,0.0034724105425218937,0.002692008986552218,0.01304365717338648,0.012711993877318833,0.0012030749663893647
0.0353793,0.0013643560560407484,0.0022128845116587146,0.004379027520545176,0.0035249289252118447,0.0027004643991543147,0.013147174867133607,0.012835482301011029,0.0012177051072058776
0.0358448,0.0013779834383787384,0.002241241966046326,0.004466382509681361,0.0035770003087779553,0.002708581172256577,0.013248835370482874,0.01295746033218069,0.0012321808940670778
0.0363103,0.0013914665535473612,0.0022694534005591603,0.004553523831505782,0.003628622146993435,0.0027163606985875334,0.013348633489556349,0.013077918842935339,0.0012465014918113448
0.0367759,0.0014048048558752467,0.0022975172257838736,0.004640450606289491,0.003679792010306925,0.0027238044603846577,0.013446564479017778,0.013196849040673971,0.001260666103636608
0.0372414,0.0014179978337284934,0.0023254318908673276,0.004727162035578367,0.003730507585841642,0.002730914028581335,0.013542624040231632,0.013314242468948679,0.0012746739711109348
0.0377069,0.0014310450094271458,0.0023531958835867972,0.004813657400790028,0.0037807666773580703,0.0027376910619662776,0.01363680831921931,0.013430091008243467,0.0012885243741687547
0.0381724,0.0014439459391521344,0.002380807730406431,0.00489993606179585,0.0038305672051804486,0.00274413730631609,0.013729113904416054,0.013544386876670225,0.0013022166310927075
0.0386379,0.0014567002128427744,0.002408265996519866,0.004985997455489578,0.0038799072060873513,0.002750254593501661,0.013819537824232297,0.013657122630581834,0.001315750098481093
0.0391034,0.0014693074540849302,0.0024355692858789003,0.005071841094343944,0.003928784833166728,0.0027560448405690554,0.013908077544423195,0.013768291165102219,0.001329124171200903
0.039569,0.0014817673199899548,0.00246271624120811,0.005157466564956717,0.003977198355635793,0.002761510048795568,0.013994730965270314,0.013877885714573093,0.0013423382823264235
0.0400345,0.0014940795010645143,0.0024897055440052866,0.0052428735265875265,0.004025146158626233,0.0027666523027215896,0.014079496418579697,0.01398589985291701,0.0013553919030634006
0.0405,0.0015062437210714226,0.0025165359145275634,0.0053280617096867705,0.004072626742935223,0.0027714737691589366,0.014162372664500739,0.014092327493916243,0.0013682845426587805
0.0409655,0.0015182597368816244,0.0025432061117630867,0.0054130309144179095,0.0041196387247427685,0.0027759766961762615,0.014243358888170441,0.014197162891406942,0.0013810157482960564
0.041431,0.001530127338317467,0.0025697149333880837,0.005497781009174377,0.004166180835295919,0.0027801634120621643,0.01432245469618785,0.014300400639387884,0.0013935851049762583
0.0418966,0.0015418463479874261,0.0025960612157091777,0.0055823119290923295,0.004212251920560404,0.002784036324266583,0.014399660112923452,0.014402035672043144,0.0014059922353846389
0.0423621,0.0015534166211124488,0.002622243833590808,0.005666623674560435,0.004257850940840255,0.0027875979183210383,0.014474975576668485,0.014502063263677869,0.0014182367997431168
0.0428276,0.0015648380453440714,0.0026482617003676344,0.005750716309727871,0.004302976970365942,0.0027908507567382754,0.01454840193562922,0.014600479028566418,0.0014303184956485416
0.0432931,0.001576110540574474,0.002674113767741835,0.0058345899610116785,0.00434762919685156,0.0027937974778918405,0.014619940443771528,0.014697278920712065,0.001442237057896853
0.0437586,0.0015872340587386167,0.0026997990256652318,0.0059182448156046095,0.004391806921021567,0.0027964407948761027,0.014689592756521149,0.014792459233517435,0.001453992258293199
0.0442241,0.0015982085836086103,0.0027253165022061952,0.006001681119984569,0.004435509556107544,0.002798783494347215,0.014757360926325352,0.014886016599364945,0.0014655839054480823
0.0446897,0.0016090341305804643,0.0027506652634013006,0.006084899178426718,0.004478736627315409,0.0028008284353454958,0.014823247398081794,0.014977947989106578,0.0014770118445596074
0.0451552,0.0016197107464533563,0.0027758444130917084,0.006167899351519276,0.0045214877712635125,0.0028025785480996998,0.014887255004440507,0.015068250711462451,0.0014882759571819123
0.0456207,0.001630238509201555,0.0028008530927442674,0.006250682054684021,0.004563762735392022,0.002804036832813627,0.014949386960984922,0.01515692241232767,0.001499376160979889
0.0460862,0.0016406175277391222,0.0028256904812573136,0.006333247756702429,0.004605561377344062,0.0028052063584355228,0.015009646861297826,0.015243961073987056,0.0015103124094703224
0.0465517,0.0016508479416775072,0.002850355794751148,0.0064155969782483694,0.00464688366431907,0.0028060902614106954,0.015068038671917978,0.015329365014237255,0.0015210846917496116
0.0470172,0.0016609299210761394,0.002874848286343203,0.006497730290428204,0.004687729672398937,0.002806691744417765,0.015124566727193091,0.015413132885415716,0.0015316930322082632
0.0474828,0.001670863666186117,0.002899167245907946,0.0065796483133291105,0.004728099585847483,0.0028070140750889438,0.015179235724034734,0.015495263673335988,0.0015421374902323758
0.0479483,0.0016806494071870874,0.0029233119998215984,0.006661351714576415,0.004767993696383915,0.002807060584714739,0.015232050716580698,0.015575756696128627,0.0015524181598923579
0.0484138,0.0016902874039174162,0.0029472819106918344,0.006742841207900725,0.004807412402430868,0.00280683466693344,0.015283017110770323,0.01565461160298694,0.0015625351696191509
0.0488793,0.001699777945597745,0.0029710763770726496,0.006824117551715626,0.004846356208337688,0.0028063397764057697,0.015332140658838245,0.01573182837281673,0.0015724886818682432
0.0493448,0.0017091213505480505,0.0029946948331646384,0.006905181547706663,0.004884825723579625,0.002805579427475064,0.015379427453731996,0.01580740731278915,0.0015822788927717791
0.0498103,0.0017183179658983093,0.0030181367485009295,0.006986034039432361,0.004922821661933696,0.0028045571928133604,0.015424883923458864,0.01588134905679596,0.001591906031779078
0.0502759,0.0017273681672928766,0.0030414016276190305,0.007066675910937947,0.0049603448406321,0.0028032767020538052,0.015468516825367339,0.015953654563806444,0.0016013703612858957
0.0507414,0.0017362723585886614,0.0030644890097188556,0.007147108085382409,0.004997396179494144,0.002801741640409796,0.015510333240368481,0.016024325116125625,0.0016106721762527583
0.0512069,0.0017450309715471909,0.0030873984683071824,0.007227331523679506,0.005033976700037807,0.0027999557472812822,0.015550340567102446,0.016093362317553338,0.0016198118038127259
0.0516724,0.0017536444655206357,0.0031101296108288195,0.007307347223153257,0.005070087524572082,0.0027979228148486772,0.015588546516055348,0.016160768091443962,0.0016287896028689328
0.0521379,0.0017621133271318703,0.003132682078284762,0.007387156216208406,0.0051057298752713275,0.00279564668665484,0.015624959103631635,0.01622654467866685,0.00163760596368227
0.0526034,0.0017704380699486305,0.0031550555448376463,0.007466759569016315,0.00514090507323287,0.002793131256175603,0.015659586646187065,0.016290694635467798,0.0016462613074495667
0.053069,0.0017786192341518365,0.0031772497174048235,0.007546158380216671,0.005175614537519095,0.002790380465379354,0.015692437754027372,0.01635322083123246,0.0016547560858726211
0.0535345,0.0017866573861981358,0.003199264335239369,0.0076253537796353655,0.005209859784185249,0.0027873983032761897,0.015723521325377614,0.016414126446153213,0.001663090780718438
0.054,0.0017945531184767227,0.003221099169499362,0.007704346927018854,0.005243642425294155,0.0027841888044572,0.015752846540327145,0.01647341496880142,0.0016712659033710296
0.0544655,0.0018023070489604782,0.0032427540228057565,0.007783139010785315,0.005276964167918987,0.0027807560476244535,0.01578042285475502,0.016531090193607472,0.0016792819943751462
0.054931,0.001809919820851476,0.0032642287287891537,0.007861731246792873,0.005309826813135242,0.002777104154112291,0.015806259994240623,0.01658715621825131,0.0016871396229723118
0.0553966,0.001817392102220882,0.003285523151625781,0.007940124877125133,0.00534223225500298,0.0027732372864005305,0.01583036794796414,0.016641617440966018,0.0016948393866295642
0.0558621,0.0018247245856432802,0.0033066371855629707,0.008018321168894242,0.005374182479540398,0.0027691596466201964,0.015852756962601428,0.01669447855775722,0.001702381910561306
0.0563276,0.0018319179878254674,0.0033275707544344127,0.008096321413061627,0.005405679563689738,0.0027648754750523854,0.015873437536217824,0.01674574455954091,0.0017097678472446994
0.0567931,0.0018389730492297655,0.0033483238111654814,0.008174126923276535,0.005436725674276528,0.0027603890486208827,0.0158924204121651,0.016795420729202377,0.001716997875929041
0.0572586,0.001845890533691913,0.003368896337268899,0.008251739034732484,0.005467323066963097,0.002755704679379147,0.015909716572985934,0.016843512638578848,0.0017240727021395565
0.0577241,0.0018526712280335996,0.0033892883423310097,0.008329159103041653,0.0054974740851972854,0.002750826712992278,0.01592533723432993,0.016890026145368546,0.0017309930571760485
0.0581897,0.0018593159416697158,0.003409499863488915,0.00840638850312729,0.005527181159157198,0.0027457595272145853,0.015939293838885312,0.01693496738996876,0.0017377596976068238
0.0586552,0.001865825506210385,0.003429530964898727,0.008483428628134126,0.005556446804692848,0.0027405075303633605,0.015951598050330165,0.016978342792245565,0.0017443734047583122
0.0591207,0.0018722007750578442,0.0034493817371951873,0.00856028088835681,0.0055852736222654934,0.002735075159789448,0.015962261747307187,0.017020159048237633,0.0017508349842007796
0.0595862,0.0018784426229982339,0.0034690522969428993,0.008636946710186407,0.005613664295885378,0.0027294668803451855,0.015971297017425713,0.017060423126796585,0.0017571452652305217
0.0600517,0.001884551945788352,0.0034885427860794106,0.008713427535074939,0.0056416215920486205,0.002723687182850286,0.015978716151294713,0.017099142266166226,0.001763305100348926
0.0605172,0.001890529659737419,0.003507853371350397,0.008789724818517966,0.005669148358673894,0.0027177405825562313,0.01598453163659041,0.01713632397050285,0.0017693153647387802
0.0609828,0.0018963767012838875,0.0035269842437372118,0.008865840029055208,0.005696247524039513,0.00271163161760972,0.015988756152161894,0.01717197600633887,0.001775176955738207
0.0614483,0.0019020940265673343,0.003545935617877078,0.008941774647289078,0.005722922095721538,0.002705364847515724,0.015991402562178222,0.017206106398991807,0.001780890792312597
0.0619138,0.0019076826109954586,0.003564707731476255,0.009017530164921036,0.005749175159533481,0.0026989448516006767,0.015992483910320165,0.01723872342892071,0.0017864578145249113
0.0623793,0.0019131434488062259,0.0035833008447165434,0.009093108083805547,0.005775009878468153,0.002692376227476309,0.01599201341401984,0.017269835628031898,0.0017918789830047113
0.0628448,0.001918477552625195,0.0036017152396555408,0.00916850991502139,0.005800429491642224,0.0026856635895046396,0.015990004458751195,0.017299451775935924,0.001797155278416268
0.0633103,0.0019236859530180977,0.003619951219621077,0.00924373717796002,0.005825437313243973,0.0026788115672645974,0.015986470592374295,0.017327580896157494,0.001802287700926097
0.0637759,0.001928769698038757,0.0036380091086003173,0.009318791399430551,0.0058500367314847385,0.002671824804020752,0.015981425519536154,0.017354232252300046,0.00180727726967026
0.0642414,0.001933729852772463,0.0036558892506239967,0.009393674112780954,0.0058742312075545245,0.0026647079551946275,0.015974883096130772,0.01737941534416658,0.0018121250222217816
0.0647069,0.00193856749887493,0.003673592009146283,0.009468386857034907,0.005898024274582196,0.002657465686839058,0.015966857323820895,0.017403139903838193,0.0018168320140585323
0.0651724,0.0019432837341069873,0.0036911177664207474,0.009542931176043701,0.0059214195366007,0.002650102674116067,0.015957362344623846,0.01742541589171176,0.0018213993180319391
0.0656379,0.0019478796718651673,0.0037084669228729266,0.009617308617652566,0.005944420667517673,0.002642623599778717,0.015946412435563703,0.01744625349249805,0.0018258280238368837
0.0661034,0.0019523564407083632,0.0037256398964699436,0.009691520732880656,0.005967031410091805,0.002635033152657402,0.01593402200339199,0.017465663111181563,0.0018301192374831363
0.066569,0.0019567151838807352,0.0037426371220876564,0.009765569075113948,0.0059892555749152775,0.0026273360261510033,0.015920205579378913,0.01748365536894317,0.0018342740807686785
0.0670345,0.0019609570588310565,0.0037594590508757734,0.009839455199310189,0.006011097039402539,0.0026195369167233327,0.015904977814177105,0.017500241099046635,0.0018382936907552544
0.0675,0.001965083236728686,0.0037761061496213773,0.00991318066121497,0.006032559746785715,0.002611640522405266,0.015888353472759794,0.017515431342689954,0.0018421792192464983
0.0679655,0.001969094901976363,0.0037925789001112655,0.009986747016587992,0.006053647705116833,0.0026036515413029376,0.015870347429435102,0.017529237344822347,0.0018459318322689832
0.068431,0.00197299325172004,0.0038088777984934996,0.010060155820438448,0.006074364986277054,0.0025955746701123634,0.01585097466293821,0.017541670549927762,0.0018495527095565326
0.0688966,0.0019767794953559578,0.0038250033546385503,0.010133408626268442,0.006094715724993014,0.0025874146026408297,0.01583025025160287,0.01755274259777555,0.0018530430440381448
0.0693621,0.0019804548540352093,0.003840956091500381,0.010206506985323306,0.00611470411786039,0.002579176028335375,0.015808189368613654,0.01756246531913896,0.001856404041329858
0.0698276,0.001984020560166009,0.0038567365444778373,0.010279452445847605,0.006134334422374746,0.002570863630818666,0.015784807277340298,0.017570850731482016,0.0018596369192308904
0.0702931,0.0019874778569139158,0.0038723452607767,0.010352246552345576,0.006153610955969702,0.0025624820864325543,0.015760119326755244,0.017577911034615253,0.0018627429072243845
0.0707586,0.0019908279977002385,0.003887782798772751,0.010424890844844726,0.006172538095062441,0.0025540360627895903,0.0157341409469354,0.0175836586063207,0.001865723245983075
0.0712241,0.001994072245698854,0.003903049727376221,0.010497386858161217,0.006191120274106544,0.002545530217332746,0.01570688764464907,0.01758810599794644,0.0018685791868802081
0.0716897,0.0019972118733316752,0.003918146625397973,0.010569736121165605,0.006209361984652098,0.0025369691959036033,0.01567837499902882,0.017591265929971043,0.0018713119915060256
0.0721552,0.0020002481617629993,0.0039330740809178,0.010641940156047509,0.006227267774413042,0.0025283576313192683,0.015648618657330932,0.017593151287538168,0.0018739229311901242
0.0726207,0.0020031824003929584,0.0039478326906552405,0.010714000477577638,0.0062448422463416324,0.0025197001419582773,0.015617634330782008,0.017593775115961732,0.0018764132865299991
0.0730862,0.002006015886350289,0.003962423059343306,0.010785918592365636,0.006262090057709877,0.002511001330355774,0.015585437790513086,0.017593150616202133,0.00187878434692606
0.0735517,0.0020087499239846212,0.003976845799105571,0.010857695998112147,0.0062790159191977645,0.002502265781808252,0.01555204486358157,0.01759129114031418,0.0018810374101234102
0.0740172,0.0020113858243584904,0.003991101528837085,0.010929334182853521,0.006295624593988062,0.002493498062988164,0.015517471429081076,0.017588210186867476,0.001883173781760658
0.0744828,0.0020139249047392534,0.004005190873589584,0.011000834624197556,0.006311920896867434,0.0024847027205687424,0.015481733414339243,0.01758392139634015,0.0018851947749260244
0.0749483,0.002016368488091115,0.004019114463961526,0.011072198788548758,0.006327909693333573,0.002475884279859387,0.015444846791203354,0.017578438546486917,0.0018871017097209922
0.0754138,0.002018717902567458,0.004032872935493434,0.011143428130321646,0.006343595898708071,0.0024670472434520168,0.01540682757241354,0.01757177554768277,0.001888895912831737
0.0758793,0.002020974481003697,0.004046466928069071,0.011214524091140647,0.006358984477254677,0.00245819608987877,0.015367691808063175,0.017563946438243796,0.0018905787171085505
0.0763448,0.0020231395604108663,0.004059897085322936,0.011285488099025227,0.006374080441302589,0.002449335272281473,0.015327455582146,0.01755496537972687,0.0018921514611534647
0.0768103,0.0020252144814701632,0.004073164054054571,0.011356321567558978,0.006388888850374389,0.002440469217093281,0.015286135009189357,0.017544846652209862,0.001893615488916263
0.0772759,0.0020272005880286586,0.00408626848365013,0.011427025895041371,0.0064034148103181785,0.0024316023227329187,0.01524374623097286,0.017533604649554262,0.0018949721492990449
0.0777414,0.002029099226596368,0.004099211025511661,0.011497602463620913,0.006417663472443505,0.0024227389583119543,0.015200305413331654,0.017521253874651782,0.0018962227957695108
0.0782069,0.0020309117458448705,0.004111992332494484,0.011568052638408391,0.0064316400326605945,0.002413883462355556,0.015155828743043337,0.017507808934656505,0.001897368785983107
0.0786724,0.00203263949610766,0.004124613058353057,0.011638377766568899,0.006445349730622462,0.002405040141537178,0.015110332424797493,0.017493284536204076,0.0018984114814141722
0.0791379,0.0020342838288823946,0.004137073857195658,0.011708579176391303,0.006458797848869474,0.002396213269427638,0.015063832678246653,0.01747769548061934,0.0018993522469962104
0.0796034,0.002035846096335219,0.004149375382948209,0.011778658176333843,0.006471989711975911,0.0023874070852590405,0.01501634573513735,0.017461056659113683,0.0019001924507714091
0.080069,0.0020373276508073262,0.004161518288827505,0.011848616054044681,0.0064849306856981275,0.0023786257927039785,0.01496788783651991,0.017443383047973455,0.0019009334635495224
0.0805345,0.0020387298443239475,0.004173503226824113,0.011918454075356402,0.006497626176123874,0.002369873558670455,0.014918475230035403,0.017424689703740733,0.0019015766585762258
0.081,0.0020400540281059515,0.004185330847195159,0.011988173483253742,0.006510081628822345,0.0023611545121129313,0.014868124167278151,0.017404991758387656,0.001902123411211047
0.0814655,0.0020413015520842604,0.0041970017979672015,0.01205777549681415,0.0065223025279945,0.0023524727428599,0.014816850901232005,0.017384304414485515,0.0019025750986149579
0.081931,0.0020424737644173024,0.004208516724449355,0.012127261310121054,0.006534294395623106,0.002343832300458369,0.014764671683778563,0.017362642940369665,0.0019029330994477208
0.0823966,0.002043572011011729,0.00421987626875681,0.012196632091150012,0.006546062790621947,0.0023352371930356205,0.014711602763275369,0.017340022665301442,0.0019031987935750714
0.0828621,0.0020445976350466554,0.004231081069344873,0.012265888980628165,0.006557613307983609,0.0023266913861785987,0.014657660382202054,0.017316458974628107,0.0019033735617858152
0.0833276,0.002045551976501688,0.0042421317605536146,0.012335033090867748,0.006568951577925154,0.002318198801831272,0.01460286077487229,0.01729196730494195,0.0019034587855189136
0.0837931,0.0020464363716890138,0.004253028972163206,0.01240406550457467,0.006580083265030978,0.0023097633172103,0.014547220165209358,0.017266563139239827,0.0019034558466006284
0.0842586,0.0020472521527898162,0.004263773328959999,0.012472987273633593,0.0065910140673921145,0.0023013887637393375,0.01449075476458309,0.017240262002084283,0.0019033661269917909
0.0847241,0.0020480006473952836,0.004274365450313402,0.012541799417871254,0.006601749715741209,0.0022930789260022927,0.014433480769705886,0.017213079454767487,0.0019031910085452611
0.0851897,0.0020486831780524555,0.004284805949763548,0.012610502923799994,0.00661229597258236,0.0022848375407158467,0.01437541436058547,0.017185031090479173,0.0019029318727736397
0.0856552,0.0020493010618151506,0.004295095434619812,0.012679098743343541,0.006622658631315035,0.0022766682957215388,0.014316571698531916,0.017156132529479947,0.0019025901006272856
0.0861207,0.0020498556098001997,0.004305234505570138,0.012747587792547276,0.006632843515351245,0.0022685748289976945,0.014256968924216424,0.017126399414281335,0.0019021670722826776
0.0865862,0.0020503481267492127,0.0043152237563011875,0.012815970950275226,0.006642856477225159,0.0022605607276914796,0.014196622155779179,0.017095847404834247,0.0019016641669411518
0.0870517,0.0020507799105960907,0.004325063773129248,0.012884249056896042,0.00665270339769432,0.0022526295271713373,0.014135547486983539,0.01706449217372773,0.0019010827626380273
0.0875172,0.002051152252040489,0.004334755134641833,0.012952422912960134,0.006662390184831629,0.0022447847101000552,0.014073760985413726,0.017032349401400183,0.0019004242360621236
0.0879828,0.002051466434127437,0.004344298411349896,0.013020493277870141,0.006671922773107243,0.002237029705528686,0.01401127869071306,0.016999434771365403,0.0018996899623856798
0.0884483,0.00205172373183331,0.004353694165350509,0.013088460868546734,0.006681307122459509,0.002229367888011535,0.013948116612859872,0.016965763965455932,0.0018988813151046818
0.0889138,0.0020519254116583307,0.0043629429499998955,0.013156326358091733,0.006690549217354081,0.0022218025767424348,0.013884290730478057,0.016931352659086126,0.001897999665889637
0.0893793,0.0020520727312258002,0.004372045309596626,0.013224090374450366,0.00669965506583041,0.002214337034712515,0.013819816989179454,0.016896216516537402,0.001897046384446844
0.0898448,0.00205216693888824,0.004381001779074825,0.01329175349907446,0.006708630698534788,0.002206974467889683,0.01375471129993526,0.016860371186268094,0.0018960228383902173
0.0903103,0.0020522092733406263,0.004389812883707185,0.013359316265588212,0.006717482167739256,0.0021997180244200526,0.01368898953747379,0.016823832296250365,0.0018949303931237367
0.0907759,0.002052200963240894,0.0043984791388175645,0.013426779158458111,0.006726215546345662,0.00219257079385153,0.01362266753870206,0.016786615449336705,0.0018937704117345786
0.0912414,0.002052143226837873,0.0044070010495029606,0.013494142611668534,0.006734836926874278,0.002185535806379793,0.013555761101148825,0.016748736218658557,0.001892544254896978
0.0917069,0.0020520372716068143,0.004415379110364579,0.013561407007404401,0.006743352420436393,0.0021786160321168773,0.01348828598142699,0.0167102101430597,0.0018912532807868637
0.0921724,0.0020518842938926462,0.004423613805247764,0.013628572674742278,0.006751768155690384,0.002171814380382584,0.013420257893713584,0.01667105272256702,0.0018898988450072938
0.0926379,0.002051685478561085,0.00443170560699052,0.013695639888351239,0.006760090277780795,0.0021651336990189166,0.013351692508245633,0.016631279413901415,0.00188848230052471
0.0931034,0.0020514419986577153,0.004439654977180345,0.01376260886720478,0.006768324947260012,0.0021585767737277517,0.01328260544983035,0.016590905626031466,0.0018870049976160157
0.093569,0.0020511550150751406,0.0044474623659191154,0.013829479773305032,0.006776478338992168,0.0021521463274319606,0.013213012296368114,0.016549946715772583,0.0018854682838264781
0.0940345,0.0020508256762282935,0.004455128211595714,0.013896252710420555,0.006784556641038943,0.002145845019660175,0.013142928577386748,0.01650841798343444,0.001883873503938442
0.0945,0.0020504551177379874,0.00446265294066615,0.013962927722838954,0.006792566053526944,0.0021396754459554,0.013072369772585678,0.01646633466851946,0.0018822219999508323
0.0949655,0.00205004446212278,0.004470036967440891,0.014029504794135556,0.006800512787496367,0.002133640137307677,0.013001351310388697,0.01642371194547525,0.0018805151110694086
0.095431,0.002049594818499206,0.004477280693879184,0.014095983845959401,0.006808403063730627,0.0021277415596109815,0.012929888566504174,0.016380564919503758,0.0018787541737077236
0.0958966,0.002049107282290423,0.004484384509390163,0.014162364736837851,0.006816243111566651,0.002121982113144549,0.012857996862491715,0.016336908622429945,0.0018769405214987202
0.0963621,0.0020485829349433087,0.004491348790640563,0.01422864726100121,0.006824039167685559,0.002116364132078814,0.012785691464334472,0.016292758008632603,0.0018750754853168914
0.0968276,0.002048022843654035,0.004498173901368964,0.014294831147228846,0.006831797474883575,0.0021108898840061434,0.012712987581016496,0.01624812795103979,0.001873160393310913
0.0972931,0.0020474280611021455,0.004504860192206462,0.01436091605771836,0.006839524280823189,0.0021055615694965135,0.01263990036310473,0.016203033237191328,0.0018711965709466549
0.0977586,0.0020467996251931618,0.004511408000503718,0.014426901586979363,0.006847225836764688,0.0021003813216782788,0.012566444901335369,0.016157488565370595,0.001869185341060464
0.0982241,0.0020461385588097466,0.0045178176501644,0.01449278726075333,0.006854908396278459,0.00209535120584417,0.012492636225204364,0.01611150854080777,0.0018671280239226048
0.0986897,0.002045445869571453,0.004524089451484984,0.014558572534960927,0.006862578213938581,0.0020904732190826286,0.012418489301561914,0.016065107671956506,0.0018650259373107357
0.0991552,0.002044722549603086,0.004530223701000922,0.014624256794678091,0.006870241543998464,0.0020857492899345933,0.012344019033210779,0.016018300366845966,0.0018628803965932907
0.0996207,0.0020439695753117016,0.004536220681339155,0.01468983935314204,0.0068779046390493905,0.002081181278075842,0.01226924025750831,0.015971100929509964,0.0018606927148226286
0.1000862,0.0020431879071722567,0.0045420806610769636,0.014755319450788259,0.006885573748662919,0.002076770974024978,0.012194167744972242,0.015923523556494845,0.0018584642028378173
0.1005517,0.002042378489521912,0.004547803894607125,0.014820696254319508,0.006893255118018236,0.002072520098877165,0.01211881619789043,0.01587558233344763,0.0018561961693769231
0.1010172,0.0020415422503629954,0.004553390622009359,0.014885968855807757,0.006900954986515484,0.0020684303040636827,0.01204320024893499,0.015827291231785827,0.0018538899211987046
0.1014828,0.0020406801011746364,0.004558841068928108,0.014951136271829963,0.006908679586376207,0.002064503171137392,0.011967334459781398,0.015778664105450157,0.0018515467632136053
0.1019483,0.0020397929367330734,0.004564155446456692,0.015016197442638563,0.006916435141231977,0.0020607402115841566,0.011891233319733333,0.015729714687741283,0.0018491679986239594
0.1024138,0.00203888163494067,0.004569333951027987,0.015081151231367523,0.006924227864702305,0.0020571428666602705,0.011814911244354043,0.015680456588241586,0.0018467549290733208
0.1028793,0.0020379470566636603,0.004574376764311819,0.015145996423274802,0.006932063958962922,0.0020537125072559244,0.011738382574105213,0.015630903289822917,0.0018443088548048174
0.1033448,0.0020369900455786526,0.0045792840531193495,0.01521073172502206,0.006939949613305465,0.00205045043378472,0.011661661572994258,0.01558106814574115,0.0018418310748284327
0.1038103,0.002036011428027931,0.004584055969314805,0.015275355763992422,0.0069478910026896205,0.00204735787609924,0.011584762427231042,0.015530964376818342,0.0018393228870970983
0.1042759,0.0020350120128835815,0.004588692649734977,0.01533986708764706,0.006955894286288696,0.002044435993432661,0.011507699243894956,0.015480605068713255,0.001836785588691484
0.1047414,0.0020339925914204917,0.0045931942161169335,0.015404264162921325,0.006963965606029584,0.002041685874366393,0.011430486049613239,0.015430003169280929,0.0018342204760133656
0.1052069,0.0020329539371982666,0.004597560775034446,0.015468545375661136,0.006972111085128033,0.002039108536823722,0.011353136789251473,0.015379171486021923,0.0018316288449874542
0.1056724,0.0020318968059520877,0.004601792417843642,0.015532709030100246,0.0069803368266200755,0.0020367049280894155,0.011275665324617162,0.015328122683621902,0.001829011991271576
0.1061379,0.002030821935492549,0.004605889220638391,0.015596753348378968,0.0069886489118904695,0.0020344759248552397,0.011198085433177471,0.015276869281582013,0.0018263712104750838
0.1066034,0.0020297300456144788,0.004609851244215935,0.01566067647010491,0.006997053399198897,0.002032422333291324,0.011120410806792205,0.015225423651940588,0.001823707798385392
0.107069,0.00202862183801476,0.004613678534053287,0.0157244764519562,0.007005556322204657,0.002030544889143284,0.011042655050463224,0.015173798017086558,0.0018210230512025203
0.1075345,0.002027497996219141,0.00461737112029496,0.015788151267327695,0.007014163688490521,0.002028844257855012,0.010964831681101553,0.01512200444766485,0.0018183182657815268
0.108,0.002026359185518038,0.00462092901775258,0.01585169880602076,0.007022881478086349,0.002027321034717013,0.010886954126313369,0.015070054860573978,0.0018155947398827124
0.1084655,0.0020252060529113124,0.004624352225916972,0.015915116873977096,0.007031715641993033,0.0020259757450401647,0.010809035723205997,0.015017961017055952,0.0018128537724294766
0.108931,0.002024039227061999,0.004627640728983268,0.015978403193057232,0.007040672100707285,0.00202480884435477,0.010731089717215042,0.01496573452087841,0.0018100966637736853
0.1093966,0.0020228593182589527,0.004630794495889598,0.016041555400864407,0.0070497567427476975,0.002023820718634753,0.010653129260953648,0.014913386816608885,0.0018073247159684045
0.1098621,0.002021666918388352,0.0046338134803698815,0.016104571050614466,0.007058975423182526,0.002023011684546853,0.010575167413084853,0.014860929187980869,0.0018045392330478416
0.1103276,0.0020204626009140115,0.004636697621021238,0.016167447611052564,0.007068333962159542,0.0020223819897246657,0.010497217137217895,0.014808372756351256,0.0018017415213143152
0.1107931,0.002019246920866417,0.004639446841386477,0.016230182466417283,0.007077838143438293,0.002021931813067359,0.010419291300829357,0.014755728479248758,0.0017989328896320673
0.1112586,0.002018020414840404,0.004642061050052113,0.016292772916452807,0.007087493712925035,0.0020216612650629027,0.01034140267420989,0.014703007149012704,0.0017961146497277184
0.1117241,0.002016783601001375,0.004644540140762323,0.01635521617646974,0.007097306377210549,0.0020215703881356346,0.010263563929437206,0.014650219391521746,0.0017932881164971577
0.1121897,0.002015536979099957,0.004646883992549215,0.016417509377455064,0.007107281802111014,0.0020216591570179766,0.010185787639375953,0.014597375665012015,0.0017904546083186519
0.1126552,0.0020142810304949912,0.004649092469879745,0.01647964956623175,0.007117425611212062,0.002021927479146119,0.010108086276705053,0.014544486258984234,0.0017876154473719472
0.1131207,0.00201301621818477,0.004651165422819594,0.01654163370566854,0.007127743384416093,0.0020223751950794733,0.01003047221297296,0.014491561293199439,0.0017847719599631395
0.1135862,0.0020117429868464452,0.004653102687214299,0.016603458674940355,0.00713824065649295,0.002023002078943697,0.009952957717681267,0.014438610716762817,0.0017819254768550758
0.1140517,0.0020104617628835413,0.004654904084887868,0.016665121269839926,0.007148922915634007,0.0020238078388970736,0.009875554957396965,0.014385644307295165,0.0017790773336030592
0.1145172,0.002009172954481541,0.004656569423859118,0.016726618203141273,0.007159795602009751,0.002024792117620041,0.009798275994893624,0.014332671670191392,0.0017762288708956118
0.1149828,0.0020078769516715137,0.004658098498575912,0.016787946105015678,0.007170864106330908,0.0020259544928276333,0.009721132788321638,0.014279702237965515,0.0017733814349000666
0.1154483,0.002006574126401784,0.004659491090167461,0.016849101523500814,0.00718213376841316,0.0020272944778046025,0.009644137190407624,0.014226745269681493,0.0017705363776127532
0.1159138,0.002005264832617657,0.004660746966714807,0.016910080925023666,0.007193609875745512,0.0020288115219629756,0.009567300947682992,0.014173809850469262,0.0017676950572135454
0.1163793,0.002003949406349243,0.004661865883539577,0.016970880694977812,0.007205297662062332,0.002030505011421797,0.009490635699741562,0.014120904891125375,0.0017648588384245273
0.1168448,0.0020026281658074383,0.00466284758351108,0.01703149713835552,0.007217202305919118,0.002032374269608792,0.009414152978526144,0.0140680391277977,0.0017620290928725387
0.1173103,0.0020013014114881418,0.004663691797371761,0.017091926480435074,0.007229328929272018,0.0020344185578836803,0.009337864207643811,0.0140152211217537,0.0017592071994553403
0.1177759,0.0019999694262847712,0.004664398244081018,0.017152164867523655,0.007241682596061157,0.0020366370761828482,0.009261780701709615,0.013962459259231803,0.0017563945447111311
0.1182414,0.001998632475609141,0.004664966631177332,0.017212208367756082,0.007254268310797782,0.002039028963685072,0.009185913665718335,0.013909761751375423,0.0017535925231911345
0.1187069,0.001997290807520745,0.0046653966551586335,0.01727205297194962,0.00726709101715528,0.0020415932994979832,0.009110274194443848,0.013857136634249133,0.0017508025378349607
0.1191724,0.0019959446528644764,0.0046656880018807875,0.017331694594515046,0.0072801555965640845,0.0020443291033649387,0.009034873271865567,0.013804591768936506,0.0017480260003484404
0.1196379,0.0019945942254168034,0.004665840346974083,0.01739112907442406,0.007293466866810459,0.002047235336391964,0.008959721770621392,0.013752134841719154,0.001745264331583617
0.1201034,0.0019932397220404022,0.004665853356277511,0.01745035217623304,0.007307029580639132,0.0020503109017944356,0.008884830451486508,0.013699773364336447,0.0017425189619205627
0.120569,0.0019918813228472438,0.004665726686290643,0.01750935959116311,0.0073208484243597475,0.0020535546456631765,0.00881020996287729,0.013647514674325423,0.0017397913316506877
0.1210345,0.0019905191913701134,0.004665459984642843,0.01756814693823628,0.007334928016457084,0.0020569653577496403,0.00873587084037953,0.013595365935440319,0.0017370828913611928
0.1215,0.001989153474742533,0.004665052890579533,0.01762670976546741,0.0073492729062050255,0.0020605417722698847,0.00866182350630013,0.013543334138151173,0.0017343951023203162
0.1219655,0.0019877843038870395,0.004664505035465183,0.017685043551111595,0.007363887572284262,0.0020642825687270283,0.00858807826924132,0.013491426100220888,0.001731729436863013
0.122431,0.001986411793711761,0.004663816043302704,0.017743143704966394,0.007378776421403748,0.002068186372751906,0.008514645323696458,0.013439648467360076,0.0017290873787766995
0.1228966,0.001985036043315216,0.004662985531268858,0.017801005569728297,0.007393943786925888,0.00207225175696162,0.00844153474966641,0.01338800771395901,0.0017264704236866794
0.1233621,0.001983657136199245,0.004662013110265294,0.01785862442240259,0.0074093939274954635,0.0020764772418357066,0.008368756512295517,0.01333651014389588,0.0017238800794408622
0.1238276,0.001982275140489969,0.0046608983854847935,0.01791599547576565,0.007425131025672202,0.0020808612966096195,0.008296320461526138,0.013285161891420478,0.0017213178664933718
0.1242931,0.0019808901091666717,0.004659640956992269,0.01797311387987867,0.007441159186566891,0.002085402340185254,0.008224236331770681,0.01323396892211238,0.0017187853182866334
0.1247586,0.001979502080298468,0.0046582404203200445,0.01802997472365152,0.007457482436480855,0.002090098742058218,0.008152513741600032,0.013182937033912623,0.00171628398163151
0.1252241,0.0019781110772886528,0.004656696367076948,0.018086573036455524,0.007474104721548582,0.00209494882326155,0.008081162193447183,0.013132071858227755,0.0017138154170850519
0.1256897,0.0019767171091265964,0.004655008385570699,0.018142903789783626,0.007491029906383287,0.002099950857325569,0.00801019107332486,0.013081378861105119,0.0017113811993254085
0.1261552,0.0019753201706470725,0.0046531760614430895,0.018198961898956506,0.007508261772725123,0.0021051030712535227,0.007939609650555828,0.013030863344478191,0.0017089829175234417
0.1266207,0.001973920242796886,0.004651198978317399,0.018254742224873,0.007525804018091801,0.0021104036465126865,0.007869427077514545,0.012980530447480706,0.001706622175710562
0.1270862,0.0019725172929086748,0.00464907671845749,0.018310239575803126,0.007543660254431367,0.0021158507200405518,0.007799652389378758,0.012930385147828233,0.0017043005931423058
0.1275517,0.001971111274981741,0.004646808863437989,0.018365448709221927,0.007561834006776926,0.0021214423852657077,0.00773029450388969,0.0128804322632658,0.0017020198046571536
0.1280172,0.0019697021299697757,0.004644394994824933,0.01842036433368213,0.0075803287119031604,0.0021271766931430227,0.007661362221119398,0.012830676453080034,0.001699781461030088
0.1284828,0.0019682897860753205,0.004641834694866235,0.01847498111072368,0.007599147716984628,0.0021330516532027067,0.007592864223243954,0.01278112221967428,0.00169758722932039
0.1289483,0.0019668741590508194,0.004639127547191291,0.018529293656818054,0.007618294278255955,0.002139065234612815,0.007524809074321176,0.012731773910205076,0.0016954387932131808
0.1294138,0.0019654551525060933,0.004636273137519038,0.018583296545345046,0.007637771559674243,0.0021452153672547503,0.007457205220071675,0.012682635718278445,0.0016933378533542426
0.1298793,0.0019640326582220802,0.004633271054373727,0.018636984308599787,0.007657582631584133,0.0021514999428112994,0.00739006098766215,0.01263371168570434,0.0016912861276776705
0.1303448,0.001962606556470662,0.004630120889807704,0.0186903514398275,0.007677730469386153,0.002157916815866738,0.007323384585489945,0.012585005704307666,0.0016892853517259411
0.1308103,0.0019611767163404195,0.004626822240130413,0.018743392395283602,0.0076982179522090965,0.0021644638050185194,0.007257184102967988,0.012536521517794332,0.0016873372789620073
0.1312759,0.001959742996068137,0.0046233747066428835,0.018796101596316474,0.007719047861587216,0.0021711386940000575,0.007191467510309345,0.012488262723670629,0.001685443681073053
0.1317414,0.0019583052433758946,0.004619777896376915,0.018848473431470347,0.007740222880143069,0.0021779392328141055,0.007126242658310734,0.0124402327752143,0.001683606348265565
0.1322069,0.0019568632958135773,0.004616031422838201,0.018900502258605477,0.007761745590276816,0.002184863138876227,0.0070615172781345785,0.012392434983495538,0.0016818270895514044
0.1326724,0.001955416981106625,0.0046121349067526594,0.018952182407032826,0.0077836184728627645,0.0021919080981678404,0.006997298981089466,0.012344872519446133,0.001680107733024583
0.1331379,0.0019539661175088396,0.0046080879768152306,0.019003508179660334,0.007805843905953895,0.0021990717663983115,0.00693359525840918,0.012297548415974954,0.0016784501261284562
0.1336034,0.0019525105141600606,0.004603890270440467,0.01905447385514775,0.007828424163495018,0.0022063517701755493,0.006870413481030824,0.012250465570127822,0.0016768561359130566
0.134069,0.00195104997144851,0.0045995414345142704,0.019105073690066927,0.007851361414045214,0.002213745708184562,0.006807760899372756,0.01220362674528985,0.0016753276492822839
0.1345345,0.001949584281377597,0.0045950411261461545,0.019155301921064457,0.007874657719510094,0.0022212511523734095,0.006745644643113222,0.012157034573428146,0.0016738665732306678
0.135,0.0019481132279369727,0.004590389013421464,0.019205152767023496,0.007898315033884424,0.0022288656491459787,0.006684071720970596,0.012110691557372811,0.001672474835069411
0.1354655,0.0019466365874776124,0.00458558477615305,0.019254620431221607,0.007922335202005628,0.0022365867205609903,0.0066230490204861985,0.012064600073133962,0.001671154382641416
0.135931,0.0019451541290906997,0.004580628106631911,0.019303699103481512,0.00794671995831872,0.0022444118655366475,0.006562583307810581,0.012018762372252596,0.0016699071845250031
0.1363966,0.0019436656149900817,0.004575518710376311,0.019352382962311683,0.007971470925653349,0.0022523385610603262,0.006502681227494196,0.011973180584182857,0.0016687352302260205
0.1368621,0.0019421708008980632,0.004570256306878905,0.019400666177033905,0.00799658961401374,0.00226036426340271,0.0064433493022833,0.011927856718703299,0.001667640530358058
0.1373276,0.0019406694364342946,0.004564840630351407,0.019448542909895068,0.008022077419382469,0.0022684864093357785,0.006384593932921892,0.011882792668354654,0.001666625116810472
0.1377931,0.001939161265507503,0.004559271430466343,0.019496007318160837,0.00804793562253928,0.00227670241735406,0.006326421397960467,0.011837990210901586,0.0016656910429039304
0.1382586,0.0019376460267097981,0.00455354847309542,0.019543053556189228,0.008074165387896197,0.0022850096888985556,0.006268837853572277,0.011793451011815878,0.001664840383533198
0.1387241,0.001936123453713293,0.004547671541044077,0.019589675777482485,0.008100767762350395,0.002293405609582725,0.00621184933337776,0.01174917662677855,0.0016640752352969084
0.1391897,0.0019345932756687704,0.004541640434781784,0.019635868136715993,0.008127743674156297,0.002301887550419935,0.006155461748277754,0.01170516850419834,0.0016633977166140741
0.1396552,0.0019330552176061388,0.004535454973167638,0.019681624791743065,0.00815509393181847,0.0023104528690517465,0.006099680886296054,0.01166142798774406,0.001662809967827123
0.1401207,0.001931509000836424,0.004529114994170858,0.01972693990557461,0.00818281922300682,0.0023190989109764205,0.006044512412431787,0.011617956318888279,0.0016623141512912697
0.1405862,0.0019299543433550514,0.0045226203555857325,0.01977180764833285,0.008210920113495637,0.0023278230107770252,0.005989961868522102,0.011574754639459827,0.0016619124514500633
0.1410517,0.0019283909602461754,0.00451597093574063,0.019816222199178467,0.008239397046127982,0.0023366224933485252,0.005936034673115548,0.011531823994202595,0.00166160707489697
0.1415172,0.001926818564087815,0.004509166634200661,0.019860177748210753,0.008268250339806946,0.002345494675123246,0.005882736121356534,0.011489165333338209,0.0016614002504228781
0.1419828,0.001925236865357552,0.004502207372463583,0.019903668498340618,0.008297480188515281,0.002354436865294125,0.005830071384881209,0.01144677951513015,0.0016612942290494224
0.1424483,0.001923645572838543,0.004495093094648576,0.01994668866713625,0.008327086660364996,0.0023634463670351488,0.005778045511725102,0.011404667308447086,0.0016612912840480475
0.1429138,0.001922044394025584,0.004487823768177492,0.019989232488641415,0.008357069696678458,0.0023725204787183748,0.0057266634262428074,0.011362829395323189,0.0016613937109447264
0.1433793,0.0019204330355309628,0.004480399384448218,0.02003129421516634,0.008387429111102638,0.0023816564951269314,0.005675929929040033,0.011321266373513439,0.0016616038275102639
0.1438448,0.001918811203489821,0.004472819959499779,0.020072868119051266,0.008418164588758116,0.0023908517086633787,0.005625849696918247,0.011279978759042018,0.0016619239737361092
0.1443103,0.001917178603964747,0.004465085534668836,0.020113948494402723,0.00844927568542439,0.0024001034105528164,0.005576427282832185,0.011238966988742062,0.0016623565117956205
0.1447759,0.001915534943349307,0.004457196177237246,0.020154529658802812,0.00848076182676306,0.0024094088920401267,0.005527667115860468,0.011198231422785157,0.0016629038259907186
0.1452414,0.0019138799287702181,0.004449151981070365,0.020194605954991663,0.008512622307580363,0.0024187654455807605,0.00547957350118959,0.011157772347199058,0.0016635683226838701
0.1457069,0.0019122132684878548,0.004440953067245763,0.020234171752523268,0.008544856291130446,0.002428170366024473,0.005432150620111594,0.011117589976372105,0.0016643524302153313
0.1461724,0.0019105346722947923,0.004432599584672078,0.020273221449394793,0.008577462808460778,0.00243762095179144,0.005385402530035743,0.011077684455542882,0.001665258598805576
0.1466379,0.0019088438519120681,0.004424091710697725,0.020311749473649388,0.008610440757800982,0.0024471145060401796,0.005339333164514554,0.011038055863273648,0.0016662893004428228
0.1471034,0.0019071405213828576,0.004415429651709197,0.02034975028495246,0.008643788903996313,0.0024566483378267432,0.005293946333284577,0.010998704213906177,0.0016674470287555629
0.147569,0.0019054243974632496,0.004406613643718711,0.02038721837614135,0.008677505877986956,0.002466219763254647,0.0052492457223223534,0.010959629459998628,0.0016687342988699844
0.1480345,0.0019036952000098097,0.004397643952940987,0.020424148274748245,0.008711590176334228,0.0024758261066150588,0.005205234893915956,0.010920831494742163,0.0016701536472521791
0.1485,0.0019019526523636062,0.004388520876358928,0.0204605345444962,0.00874604016079474,0.0024854647015167463,0.005161917286752579,0.01088231015435598,0.001671707631535022
0.1489655,0.0019001964817303898,0.004379244742278024,0.020496371786768223,0.008780854057943533,0.0024951328920053395,0.00511929621602262,0.010844065220459536,0.0016733988303296065
0.149431,0.0018984264195566125,0.004369815910869284,0.02053165464204966,0.00881602995884711,0.002504828033671462,0.005077374873540675,0.0108060964224207,0.0016752298430211365
0.1498966,0.0018966422019009983,0.004360234774700522,0.020566377791344494,0.008851565818787264,0.0025145474947473037,0.005036156327883913,0.010768403439678591,0.0016772032895491634
0.1503621,0.001894843569801386,0.004350501759255848,0.020600535957566647,0.008887459457036553,0.0025242886571912116,0.004995643524548222,0.010730985904039815,0.0016793218101720767
0.1508276,0.0018930302696365912,0.004340617323443241,0.02063412390690777,0.008923708556686226,0.002534048917759874,0.004955839286122551,0.010693843401946759,0.0016815880652157418
0.1512931,0.0018912020534830487,0.004330581960090141,0.020667136450183154,0.008960310664527325,0.002543825689067655,0.004916746312481839,0.010656975476716566,0.0016840047348061946
0.1517586,0.0018893586794660063,0.004320396196427072,0.020699568444157542,0.00899726319098564,0.0025536164006326324,0.004878367180998904,0.010620381630749428,0.0016865745185863004
0.1522241,0.0018874999121050492,0.00431006059455937,0.020731414792852405,0.009034563410111173,0.0025634184999088747,0.004840704346775665,0.010584061327704727,0.0016893001354163016
0.1526897,0.0018856255226537423,0.004299575751927144,0.020762670448836326,0.009072208459622687,0.002573229453304478,0.004803760142893988,0.010548013994643573,0.0016921843230582056
0.1531552,0.0018837352894331798,0.004288942301753676,0.020793330414499784,0.009110195341007944,0.0025830467471848763,0.004767536780686465,0.010512239024136252,0.0016952298378439888
0.1536207,0.0018818289981592344,0.004278160913482544,0.02082338974331561,0.00914852091968013,0.0025928678888609284,0.004732036350027363,0.010476735776333025,0.0016984394543276193
0.1540862,0.001879906442263313,0.004267232293203802,0.020852843541086217,0.009187181925190975,0.0026026904075612646,0.004697260819644001,0.010441503580996686,0.0017018159649209207
0.1545517,0.0018779674232064407,0.004256157184069622,0.020881686967178587,0.009226174951501047,0.002612511855388364,0.004663212037448766,0.010406541739495286,0.0017053621795133107
0.1550172,0.0018760117507865164,0.004244936366699842,0.020909915235747995,0.009265496457307634,0.002622329808257842,0.004629891730891954,0.01037184952675347,0.0017090809250754615
0.1554828,0.0018740392434385936,0.0042335706595778375,0.02093752361695126,0.00930514276643069,0.002632141866820417,0.004597301507335596,0.010337426193160868,0.0017129750452469213
0.1559483,0.0018720497285280551,0.004222060919437188,0.02096450743815035,0.009345110068257235,0.002641945657366055,0.004565442854448407,0.010303270966436028,0.0017170473999077382
0.1564138,0.0018700430426365593,0.0042104080416395205,0.02099086208510691,0.009385394418244672,0.002651738832709805,0.004534317140621953,0.010269383053444336,0.0017213008647341246
0.1568793,0.0018680190318406359,0.0041986129605439204,0.02101658300316839,0.009425991738483458,0.002661519073058861,0.004503925615408097,0.010235761641968343,0.0017257383307381963
0.1573448,0.0018659775519828123,0.004186676649868284,0.021041665698446264,0.009466897818319582,0.0026712840868603977,0.004474269409977779,0.010202405902428982,0.001730362703791821
0.1578103,0.0018639184689351444,0.0041746001230429115,0.02106610573898677,0.009508108315037195,0.00268103161162975,0.0044453495376011575,0.010169314989556193,0.0017351769041346117
0.1582759,0.0018618416588550206,0.004162384433556663,0.02108989875593459,0.00954961875460182,0.002690759414758508,0.004417166894149124,0.010136488044007567,0.001740183865866094
0.1587414,0.001859747008433124,0.004150030675295915,0.021113040444689663,0.009591424532464421,0.002700465294302136,0.004389722258616153,0.01010392419393379,0.0017453865364220932
0.1592069,0.0018576344151334287,0.004137539982876588,0.0211355265660574,0.009633520914426636,0.0027101470797467313,0.004363016293664465,0.010071622556489803,0.0017507878760353816
0.1596724,0.0018555037874251373,0.004124913531969416,0.02115735294739236,0.009675903037567372,0.0027198026327545613,0.0043370495461893905,0.010039582239290811,0.0017563908571806522
0.1601379,0.0018533550450064704,0.004112152539618654,0.021178515483735425,0.009718565911230954,0.0027294298478880465,0.004311822447905839,0.01000780234181232,0.0017621984640038828
0.1606034,0.0018511881190202304,0.0040992582645543825,0.02119901013894438,0.009761504418076985,0.0027390266533118554,0.004287335315955718,0.009976281956733566,0.00176821369173617
0.161069,0.0018490029522610883,0.004086232007498543,0.021218832946817697,0.009804713315191959,0.002748591011472798,0.004263588353536126,0.009945020171223808,0.001774439546092122
0.1615345,0.0018467994993745479,0.004073075111464848,0.021237980012211187,0.009848187235262639,0.00275812091975721,0.00424058165054813,0.00991401606817101,0.0017808790426528996
0.162,0.0018445777270475574,0.004059788962052719,0.02125644751214719,0.00989192068781116,0.0027676144111255727,0.004218315184265904,0.009883268727352531,0.001787535206233999
0.1624655,0.0018423376141907574,0.004046374987735383,0.02127423169691567,0.00993590806049173,0.002777069554724083,0.004196788820026004,0.009852777226547533,0.0017944110702378807
0.162931,0.0018400791521123489,0.004032834660142313,0.021291328891166535,0.009980143620448762,0.002786484456472932,0.00417600231193652,0.009822540642590931,0.001801509675991539
0.1633966,0.0018378023446835663,0.004019169494336155,0.0213077354949925,0.010024621515736213,0.0027958572596310472,0.004155955303605851,0.009792558052368899,0.0018088340720691237
0.1638621,0.0018355072084957585,0.00400538104908432,0.021323447985001468,0.010069335776797878,0.0028051861453370712,0.004136647328890817,0.009762828533756079,0.0018163873135997408
0.1643276,0.0018331937730090768,0.003991470927125388,0.021338462915377488,0.01011428031800842,0.0028144693331263737,0.004118077812663815,0.009733351166494911,0.0018241724615605834
0.1647931,0.001830862080692783,0.0039774407754304434,0.0213527769189291,0.010159448939274876,0.002823705081423924,0.004100246071598714,0.009704125033017536,0.001832192582055566
0.1652586,0.0018285121871572016,0.003963292285459468,0.021366386708123727,0.010204835327698485,0.0028328916880128946,0.004083151314975166,0.009675149219210831,0.0018404507455796694
0.1657241,0.0018261441612773385,0.003949027193412905,0.021379289076106745,0.010250433059296613,0.00284202749047889,0.004066792645500981,0.009646422815125214,0.001848950026269218
0.1661897,0.001823758085308193,0.003934647280478491,0.021391480897703666,0.010296235600784652,0.002851110866629731,0.004051169060152207,0.009617944915627912,0.0018576935011383265
0.1666552,0.001821354054991793,0.003920154373073455,0.021402959130403864,0.010342236311417662,0.0028601402348907325,0.00403627945103052,0.009589714621001505,0.0018666842493017693
0.1671207,0.0018189321796559675,0.0039055503430822,0.02141372081532413,0.010388428444891573,0.0028691140546754667,0.004022122606237529,0.009561731037488565,0.0018759253511845275
0.1675862,0.0018164925823048795,0.003890837108089513,0.021423763078150256,0.010434805151303718,0.002878030826732015,0.004008697210765605,0.00953399327778329,0.0018854198877182916
0.1680517,0.0018140353997013342,0.003876016631609404,0.021433083130054764,0.010481359479172406,0.002886889093464724,0.003996001847404793,0.009506500461470986,0.0018951709395251919
0.1685172,0.0018115607824408775,0.003861090923309599,0.021441678268588695,0.01052808437751519,0.0028956874392315106,0.003984034997665435,0.009479251715416219,0.0019051815860890399
0.1689828,0.0018090688950177037,0.0038460620392317085,0.021449545878545296,0.010574972697985406,0.0029044244906168007,0.0039727950427160645,0.009452246174100417,0.0019154549049143644
0.1694483,0.0018065599158823844,0.0038309320820070786,0.021456683432793357,0.010622017197066498,0.0029130989166801817,0.0039622802643362,0.009425482979909671,0.0019259939706735162
0.1699138,0.001804034037491445,0.0038157032010683093,0.02146308849307779,0.010669210538323553,0.002921709429180884,0.003952488845883634,0.009398961283373466,0.0019368018543421113
0.1703793,0.001801491466348806,0.0038003775928564026,0.02146875871078504,0.010716545294711511,0.0029302547827782326,0.003943418873275845,0.009372680243355169,0.001947881622323078
0.1708448,0.0017989324230391313,0.003784957501023488,0.021473691827671015,0.010764013950939386,0.0029387337752082156,0.003935068335985189,0.0093466390271952,0.001959236335559559
0.1713103,0.001796357142253121,0.0037694452166310553,0.021477885676549305,0.010811608905889872,0.0029471452474363526,0.003927435128047502,0.009320836810807968,0.0019708690486369127
0.1717759,0.0017937658728048058,0.003753843078343597,0.02148133818193799,0.010859322475093676,0.002955488083787053,0.00392051704908377,0.009295272778733842,0.0019827828088740474
0.1722414,0.001791158877640927,0.0037381534726175646,0.021484047360664005,0.010907146893257873,0.0029637612120496726,0.0039143118053345015,0.009269946124147535,0.0019949806554043006
0.1727069,0.0017885364338424902,0.003722378833885524,0.02148601132242456,0.010955074316847568,0.002971963603561519,0.0039088170107064064,0.009244856048824501,0.002007465618246082
0.1731724,0.001785898832618605,0.0037065216447354225,0.02148722827030571,0.011003096826720064,0.0029800942732680514,0.0039040301878309684,0.009220001763066853,0.002020240717363481
0.1736379,0.0017832463792927349,0.0036905844360848746,0.021487696501258237,0.01105120643081077,0.002988152279760567,0.0038999487691344556,0.00919538248559044,0.002033308961717051
0.1741034,0.001780579393281477,0.0036745697873503927,0.021487414406531208,0.011099395066869893,0.0029961367252916977,0.0038965700979188924,0.009170997443374603,0.002046673348304964
0.174569,0.001777898208066014,0.003658480326611521,0.021486380472063627,0.01114765460524904,0.003004046755769049,0.0038938914294534784,0.009146845871476173,0.00206033686119473
0.1750345,0.0017752031711563622,0.0036423187307698243,0.021484593278834514,0.011195976851736726,0.00301188156072736,0.0038919099320759197,0.009122927012809182,0.002074302470545676
0.1755,0.0017724946440485613,0.003626087725702698,0.021482051503171784,0.011244353550441732,0.003019640373279583,0.003890622688303109,0.00909924011789181,0.0020885731316223634
0.1759655,0.0017697730021749404,0.0036097900864119612,0.021478753917020362,0.011292776386723205,0.0030273224700473307,0.0038900266959505546,0.009075784444562078,0.0021031517837991273
0.176431,0.0017670386348475964,0.0035934286371671702,0.02147469938816999,0.011341236990166334,0.0030349271710711414,0.0038901188692599623,0.009052559257663817,0.0021180413495558966
0.1768966,0.0017642919451952188,0.003577006251643588,0.021469886880443406,0.011389726937602398,0.0030424538397010314,0.003890896040034332,0.009029563828704467,0.0021332447334654523
0.1773621,0.0017615333500933916,0.0035605258530547112,0.02146431545384573,0.011438237756171837,0.0030499018824678022,0.0038923549587799545,0.00900679743548618,0.0021487648211722674
0.1778276,0.0017587632800884956,0.0035439904142792454,0.021457984264676162,0.01148676092642898,0.003057270748935583,0.00389449229585466,0.008984259361711691,0.002164604478363076
0.1782931,0.001755982179315331,0.0035274029579823924,0.0214508925656032,0.011535287885486913,0.003064559931536089,0.0038973046426217135,0.008961948896566346,0.0021807665497293204
0.1787586,0.0017531905054085748,0.003510766556731297,0.02144303970570465,0.011583810030200935,0.0030717689653850795,0.0039007885126087164,0.008939865334277649,0.0021972538579216475
0.1792241,0.0017503887294081945,0.0034940843331044877,0.021434425130473687,0.011632318720388965,0.003078897428081532,0.003904940342670918,0.008918007973653629,0.002214069202496643
0.1796897,0.001747577335658936,0.003477359459795127,0.021425048381792232,0.01168080528208714,0.0030859449394900285,0.0039097564941583405,0.008896376117601263,0.0022312153588560316
0.1801552,0.0017447568217040163,0.003460595159707867,0.021414909097873035,0.011729261010838803,0.0030929111615068854,0.003915233254086127,0.008874969072626148,0.0022486950771785884
0.1806207,0.0017419276981731535,0.00344379470604911,0.021404007013171723,0.011777677175014926,0.003099795797810533,0.003921366836307534,0.008853786148314542,0.0022665110813450476
0.1810862,0.0017390904886650815,0.003426961422410462,0.021392341958270132,0.011826045019164044,0.003106598593596655,0.003928153382689019,0.008832826656798867,0.002284666067856326
0.1815517,0.0017362457296247165,0.003410098682845172,0.021379913859732282,0.011874355767389504,0.0031133193352985964,0.003935588964286845,0.008812089912207707,0.00230316270474539
0.1820172,0.0017333939702151558,0.0033932099119373424,0.02136672273993421,0.011922600626751953,0.0031199578502935288,0.003943669582524687,0.00879157523010124,0.0023220036304831345
0.1824828,0.0017305357721847025,0.0033762985848637106,0.021352768716868923,0.0119707707906948,0.0031265140065948657,0.003952391170371654,0.008771281926893016,0.0023411914528786337
0.1829483,0.0017276717097291362,0.003359368227447781,0.021338052003927906,0.012018857442490363,0.003132987712531429,0.003961749593520218,0.008751209319258938,0.0023607287479741417
0.1834138,0.001724802369349451,0.0033424224162061067,0.021322572909660473,0.012066851758704438,0.003139378916413876,0.00397174065156351,0.008731356723534192,0.0023806180589351915
0.1838793,0.001721928349705298,0.003325464778386521,0.02130633183751262,0.012114744912676969,0.0031456876061888997,0.00398236007917149,0.008711723455098859,0.002400861894936142
0.1843448,0.0017190502614643582,0.003308498991998142,0.02128932928554696,0.012162528078016516,0.003151913809081724,0.003993603547265485,0.008692308827752878,0.002421462730041509
0.1848103,0.0017161687271478748,0.0032915287858329904,0.021271565846145694,0.01221019243210618,0.0031580575912274244,0.004005466664190584,0.008673112153080937,0.0024424230020834085
0.1852759,0.0017132843809725656,0.0032745579394790744,0.021253042205698566,0.012257729159618626,0.0031641190572915885,0.004017944976885372,0.008654132739807882,0.0024637451115354313
0.1857414,0.001710397868689122,0.003257590283324814,0.02123375914427792,0.01230512945603772,0.0031700983500808377,0.004031033972048485,0.008635369893145135,0.002485431420383276
0.1862069,0.0017075098474175125,0.0032406296985546916,0.021213717535303007,0.012352384531184285,0.0031759956501437314,0.004044729077301477,0.008616822914128582,0.002507484250992469
0.1866724,0.001704620985479291,0.0032236801171360366,0.021192918345195558,0.012399485612743377,0.003181811175362581,0.004059025662347472,0.008598491098948328,0.002529905884973489
0.1871379,0.001701731962227112,0.0032067455217968475,0.02117136263302862,0.012446423949790366,0.003187545180536698,0.004073919040125071,0.008580373738270754,0.002552698562044647
0.1876034,0.0016988434678716624,0.003189829945994566,0.02114905155017046,0.012493190816313065,0.003193197956957646,0.004089404467956989,0.00856247011655319,0.002575864478893072
0.188069,0.0016959562033062056,0.003172937473875702,0.021125986339925476,0.012539777514727058,0.003198769831977057,0.004105477148692864,0.008544779511351653,0.0025994057880341795
0.1885345,0.0016930708799289314,0.003156072240226191,0.021102168337173936,0.012586175379381342,0.003204261168567592,0.004122132231845727,0.008527301192621977,0.0026233245966700218
0.189,0.0016901882194632972,0.003139238430412375,0.021077598968012437,0.012632375780051348,0.003209672364877622,0.004139364814721566,0.008510034422014732,0.002647622965546946
0.1894655,0.0016873089537765295,0.003122440280312479,0.021052279749397242,0.012678370125416354,0.003215003853780199,0.004157169943541435,0.008492978452164296,0.00267230290781301
0.189931,0.0016844338246964586,0.0031056820762384828,0.02102621228879275,0.012724149866518332,0.003220256102416879,0.004175542614555544,0.008476132525972464,0.0026973663878756358
0.1903966,0.0016815635838268433,0.003088968154848285,0.020999398283827613,0.012769706500199285,0.003225429611736942,0.004194477775148734,0.008459495875886949,0.002722815320259982
0.1908621,0.0016786989923613465,0.003072302903048106,0.020971839521961237,0.012815031572514438,0.0032305249160325534,0.0042139703249367685,0.008443067723175135,0.0027486515684685534
0.1913276,0.001675840820896311,0.003055690757885077,0.02094353788016339,0.012860116682118644,0.0032355425824703945,0.004234015116852875,0.008426847277193417,0.0027748769438425435
0.1917931,0.0016729898492424781,0.0030391362064299907,0.020914495324609737,0.012904953483623617,0.003240483210620283,0.004254606958223995,0.008410833734652392,0.0028014932044254184
0.1922586,0.0016701468662357873,0.0030226437856502525,0.020884713910396056,0.012949533690923781,0.003245347431981288,0.004275740611836261,0.008395026278878184,0.002828502053829226
0.1927241,0.0016673126695473885,0.0030062180822730557,0.020854195781273645,0.012993849080488713,0.0032501359095058443,0.004297410796989259,0.008379424079070136,0.0028559051401041164
0.1931897,0.0016644880654929934,0.002989863732638857,0.020822943169408397,0.01303789149462017,0.003254849337122384,0.004319612190538714,0.008364026289555187,0.0028837040546115474
0.1936552,0.0016616738688416891,0.0029735854225452197,0.020790958395165836,0.01308165284467178,0.0032594884392570206,0.0043423394279272515,0.008348832049039254,0.0029119003309016553
0.1941207,0.0016588709026243344,0.002957387887081112,0.020758243866924205,0.01312512511422943,0.0032640539703548263,0.004365587104202944,0.008333840479855994,0.002940495443595282
0.1945862,0.0016560799979416546,0.0029412759104517215,0.020724802080917593,0.013168300362250362,0.003268546714401272,0.004389349775025313,0.008319050687213426,0.0029694908072711622
0.1950517,0.0016533019937721445,0.0029252543257938433,0.02069063562111098,0.013211170726158935,0.003272967484444392,0.004413621957658548,0.008304461758438941,0.0029988877753587763
0.1955172,0.0016505377367798837,0.0029093280149818886,0.02065574715910889,0.013253728424896987,0.0032773171221182297,0.004438398131951661,0.008290072762223362,0.0030286876390373755
0.1959828,0.0016477880811223754,0.0028935019084245285,0.020620139454099247,0.013295965761926787,0.003281596497168102,0.004463672741305398,0.008275882747864916,0.003058891626141665
0.1964483,0.0016450538882585132,0.0028777809848519634,0.020583815352833868,0.01333787512818454,0.0032858065069782,0.004489440193625784,0.00826189074451408,0.0030895009000746296
0.1969138,0.0016423360267567954,0.0028621702710938043,0.020546777789646854,0.013379449004982521,0.003289948076102018,0.004515694862264219,0.00824809576042043,0.0031205165587279574
0.1973793,0.0016396353721039028,0.0028466748418475175,0.02050902978651199,0.013420679966857876,0.0032940221557960954,0.004542431086944135,0.008234496782182594,0.0031519396334105288
0.1978448,0.0016369528065137654,0.002831299819437368,0.02047057445314011,0.013461560684366165,0.0032980297235575204,0.00456964317467418,0.00822109277400245,0.003183771087785391
0.1983103,0.0016342892187372437,0.002816050373563788,0.020431414987117324,0.013502083926817602,0.0033019717826656397,0.004597325400647964,0.008207882676944707,0.0032160118168156693
0.1987759,0.0016316455038725486,0.0028009317210430733,0.02039155467408477,0.013542242564954005,0.003305849361728397,0.004625472009130347,0.008194865408202934,0.0032486626457198515
0.1992414,0.0016290225631765264,0.0027859491255373104,0.020350996887960597,0.013582029573564297,0.0033096635142337064,0.00465407721433028,0.008182039860373122,0.00328172432893688
0.1997069,0.00162642130387693,0.002771107897274402,0.020309745091204635,0.013621438034036402,0.0033134153181062576,0.004683135201260193,0.008169404900735725,0.0033151975491015214
0.2001724,0.0016238426389857806,0.0027564133927580614,0.020267802835126095,0.013660461136843343,0.0033171058752701223,0.004712640126581948,0.008156959370547162,0.003349082916030473
0.2006379,0.0016212874871139168,0.00274187101446761,0.020225173760234562,0.013699092183961386,0.003320736311217525,0.004742586119439344,0.00814470208434171,0.0033833809657197143
0.2011034,0.001618756772286826,0.002727486210547418,0.020181861596634328,0.013737324591218056,0.0033243077745841168,0.004772967282277227,0.008132631829244697,0.0034180921593536208
0.201569,0.0016162514237618292,0.002713264474485801,0.02013787016446194,0.013775151890567994,0.0033278214367310666,0.004803777691647235,0.008120747364297916,0.0034532168823263893
0.2020345,0.0016137723758466943,0.0026992113447832,0.020093203374366715,0.013812567732294768,0.003331278491334298,0.004835011399000274,0.008109047419798177,0.003488755443276353
0.2025,0.0016113205677197335,0.0026853324046094795,0.020047865228033854,0.013849565887136817,0.0033346801539811534,0.004866662431465857,0.008097530696649969,0.0035247080731337656
0.2029655,0.0016088969432514384,0.0026716332814501627,0.02000185981874953,0.013886140248335826,0.003338027661774774,0.004898724792618405,0.008086195865733137,0.003561074924182655
0.203431,0.0016065024508276967,0.002658119646741468,0.01995519133200731,0.013922284833605861,0.0033413222729464687,0.004931192463230678,0.008075041567286527,0.003597856069137329
0.2038966,0.001604138043174623,0.002644797215493997,0.01990786404615504,0.013957993787021635,0.0033445652664763482,0.0049640594020145075,0.008064066410308551,0.0036350515002340936
0.2043621,0.0016018046771850243,0.0026316717459049484,0.019859882333081235,0.0139932613808242,0.0033477579417224767,0.004997319546349064,0.008053268971975619,0.003672661128338728
0.2048276,0.0015995033137465127,0.0026187490389587478,0.01981125065893996,0.014028082017142481,0.00335090161805879,0.005030966812996905,0.008042647797079354,0.003710684782070232
0.2052931,0.0015972349175712678,0.0026060349380159775,0.01976197358491293,0.014062450229629103,0.0033539976345220114,0.005064995098808092,0.008032201397483523,0.003749122206941347
0.2057586,0.0015950004570274312,0.0025935353283904907,0.019712055768007608,0.014096360685009147,0.0033570473494677856,0.005099398281412712,0.008021928251601506,0.003787973064516327
0.2062241,0.00159280090397211,0.002581256136914593,0.01966150196188995,0.014129808184540663,0.0033600521402362376,0.0051341702199021455,0.008011826803895141,0.003827236931586459
0.2066897,0.0015906372335859583,0.0025692033314921557,0.019610317017750234,0.014162787665386055,0.003363013402827183,0.005169304755499507,0.008001895464395664,0.0038669132993638103
0.2071552,0.0015885104242092996,0.00255738292063953,0.019558505885200417,0.014195294201893761,0.003365932551585214,0.005204795712219703,0.007992132608247503,0.003907001572693752
0.2076207,0.0015864214571797467,0.0025458009530141094,0.019506073613201263,0.014227323006789933,0.003368811018894928,0.005240636897519579,0.007982536575275607,0.003947501069286794
0.2080862,0.0015843713166712784,0.002534463516930391,0.019453025351017405,0.014258869432280335,0.003371650254886588,0.005276822102938663,0.007973105669576982,0.003988411018970328
0.2085517,0.001582360989534727,0.002523376739863368,0.019399366349198376,0.014289928971063041,0.003374451727152537,0.00531334510473099,0.007963838159137093,0.004029730562960883
0.2090172,0.0015803914651396332,0.002512546787939083,0.019345101960583477,0.014320497257252896,0.003377216920474703,0.005350199664488456,0.007954732275471747,0.004071458753157554
0.2094828,0.0015784637352174128,0.0025019798654121648,0.01929023764132828,0.014350570067219032,0.003379947336563562,0.005387379529756121,0.007945786213295085,0.004113594551457229
0.2099483,0.0015765787937057814,0.002491682214130157,0.019234778951950388,0.014380143320336857,0.003382644493808908,0.005424878434639822,0.007936998130214335,0.004156136829092325
0.2104138,0.0015747376365943648,0.002481660112984458,0.01917873155839195,0.014409213079656062,0.003385309927042777,0.005462690100406431,0.007928366146451992,0.004199084365991663
0.2108793,0.0015729412617714231,0.0024719198773476936,0.019122101233096326,0.014437775552486182,0.003387945187314875,0.005500808236077062,0.007919888344596114,0.004242435850165168
0.2113448,0.001571190668871599,0.0024624678584973716,0.0190648938560961,0.014465827090901308,0.0033905518416808104,0.0055392265390134905,0.007911562769379437,0.004286189877113029
0.2118103,0.0015694868591246023,0.002453310443025661,0.019007115416109523,0.014493364192165554,0.003393131473003442,0.005577938695498056,0.007903387427488064,0.004330344949259944
0.2122759,0.0015678308352047473,0.0024444540522351533,0.018948772011642318,0.014520383499081068,0.0033956856797675945,0.0056169383813073175,0.007895360287400403,0.0043748994754150726
0.2127414,0.0015662236010812504,0.0024359051415204715,0.01888986985209153,0.014546881800260363,0.00339821607590839,0.005656219262279751,0.007887479279257094,0.004419851770258277
0.2132069,0.0015646661618692057,0.0024276701997356064,0.01883041525884814,0.014572856030324856,0.0034007242906534214,0.005695774994877828,0.007879742294762578,0.004465200053853235
0.2136724,0.0015631595236811563,0.0024197557485468838,0.018770414666394845,0.0145983032700316,0.003403211968378959,0.005735599226744843,0.007872147187118978,0.004510942451187973
0.2141379,0.0015617046934791703,0.0024121683417714906,0.018709874623395392,0.01462322074633027,0.0034056807684803648,0.0057756855972569176,0.007864691770992948,0.00455707699174336
0.2146034,0.0015603026789273256,0.0024049145647015084,0.018648801793771732,0.01464760583235249,0.003408132365256867,0.005816027738070648,0.00785737382251613,0.004603601609090094
0.215069,0.0015589544882445012,0.0023980010334134186,0.0185872029577651,0.014671456047335631,0.003410568447810818,0.005856619273666818,0.007850191079319859,0.004650514140514674
0.2155345,0.001557661130057362,0.0023914343940630344,0.018525085012977182,0.014694769056483191,0.0034129907199615334,0.005897453821890656,0.007843141240604742,0.004697812326674878
0.216,0.001556423613253417,0.0023852213221658186,0.01846245497538722,0.014717542670763866,0.0034154009001737947,0.0059385249944890525,0.00783622196724572,0.0047454938112852195
0.2164655,0.001555242946834037,0.00237936852186255,0.018399319980340906,0.014739774846651283,0.0034178007215010485,0.005979826397645169,0.007829430881933152,0.004793556140832839
0.216931,0.0015541201397673008,0.002373882725170303,0.018335687283506777,0.014761463685806275,0.003420191931543331,0.006021351632510835,0.007822765569350432,0.004841996764324264
0.2173966,0.0015530562008405436,0.002368770691218731,0.0182715642617957,0.014782607434703448,0.0034225762924199226,0.006063094295737123,0.00781622357638859,0.004890813033063438
0.2178621,0.0015520521385124762,0.0023640392054716506,0.01820695841423916,0.014803204484203664,0.0034249555807567096,0.00610504798000346,0.007809802412398301,0.004940002200461394
0.2183276,0.001551108960764736,0.002359695078933932,0.018141877362822113,0.014823253369073953,0.0034273315876882475,0.006147206274545573,0.007803499549479726,0.004989561421877905
0.2187931,0.0015502276749527262,0.0023557451473437104,0.018076328853266526,0.014842752767456351,0.0034297061188744834,0.006189562765682542,0.007797312422810582,0.005039487754495425
0.2192586,0.0015494092876555917,0.0023521962703499277,0.018010320755761935,0.014861701500286952,0.0034320809945321234,0.006232111037343217,0.0077912384310128025,0.005089778157225576
0.2197241,0.0015486548045251698,0.002349055330675213,0.017943861065639825,0.014880098530666566,0.0034344580494806145,0.006274844671592198,0.0077852749365581505,0.005140429490648427
0.2201897,0.0015479652301337529,0.002346329233264117,0.01787695790398874,0.014897942963184219,0.003436839133202732,0.006317757249155582,0.007779419266213143,0.0051914385169847775
0.2206552,0.001547341567820483,0.002344024904416721,0.017809619518207236,0.014915234043194737,0.003439226109919741,0.0063608423499466795,0.007773668711523591,0.005242801900101633
0.2211207,0.0015467848195362063,0.00234214929090764,0.017741854282491837,0.01493197115605157,0.0034416208586810905,0.006404093553591893,0.007768020529339059,0.0052945162055510284
0.2215862,0.0015462959856866025,0.0023407093590904473,0.017673670698257232,0.014948153826295992,0.0034440252734685914,0.006447504439956907,0.007762471942377484,0.005346577900642362
0.2220517,0.0015458760649733985,0.002339712093987541,0.017605077394485955,0.014963781716803844,0.0034464412633150197,0.006491068589673359,0.007757020139830174,0.0053989833545483625
0.2225172,0.00154552605423349,0.0023391644983654885,0.017536083128004854,0.014978854627891005,0.0034488707524370638,0.0065347795846661064,0.007751662278007368,0.0054517288384448295
0.2229828,0.0015452469482757844,0.0023390735917958594,0.017466696783685974,0.014993372496378797,0.003451315680382522,0.0065786310086811545,0.007746395481024501,0.00550481052568427
0.2234483,0.0015450397397155863,0.002339446409701565,0.01739692737456972,0.015007335394620675,0.0034537780021916477,0.00662261644781435,0.0077412168415293345,0.005558224492003622
0.2239138,0.0015449054188063512,0.0023402900023887026,0.01732678404190866,0.015020743529491547,0.0034562596885725177,0.006666729491040864,0.0077361234214700664,0.005611966715766255
0.2243793,0.00154484497326863,0.0023416114340638955,0.017256276055130592,0.015033597241341125,0.003458762726090292,0.0067109637307454905,0.007731112252904517,0.005666033078238484
0.2248448,0.0015448593881160371,0.002343417781837108,0.017185412811719737,0.01504589700291275,0.003461289117370197,0.006755312763253839,0.007726180338850439,0.005720419363900834
0.2253103,0.0015449496454780901,0.0023457161347099032,0.01711420383701502,0.015057643418229166,0.003463840881314056,0.006799770189364454,0.007721324654176942,0.005775121260794275
0.2257759,0.0015451167244197813,0.0023485135925490975,0.017042658783924487,0.015068837221446692,0.0034664200533301723,0.006844329614881944,0.007716542146536972,0.005830134360901649
0.2262414,0.0015453616007577468,0.0023518172650457683,0.01697078743255468,0.015079479275679292,0.0034690286855763594,0.006888984651151173,0.007711829737340739,0.005885454160564426
0.2267069,0.001545685246872914,0.00235563427065955,0.016898599689753907,0.015089570571794,0.003471668847215902,0.0069337289155925515,0.007707184322769888,0.005941076060934967
0.2271724,0.0015460886315195167,0.0023599717355481734,0.016826105588568067,0.015099112227179242,0.0034743426246862117,0.006978556032238437,0.007702602774832187,0.0059969953684643395
0.2276379,0.0015465727196303871,0.002364836792482206,0.016753315287607776,0.015108105484487553,0.0034770521219799396,0.007023459632270588,0.007698081942456438,0.006053207295425791
0.2281034,0.0015471384721184533,0.0023702365797449673,0.01668023907032528,0.015116551710354233,0.0034797994609382676,0.0070684333545586175,0.007693618652627217,0.006109706960473918
0.228569,0.0015477868456743996,0.0023761782400176204,0.01660688734419976,0.015124452394093517,0.0034825867815560813,0.00711347084619942,0.007689209711559026,0.0061664893892395475
0.2290345,0.001548518792560464,0.0023826689192494527,0.016533270639829657,0.015131809146373729,0.0034854162422987204,0.0071585657630575325,0.007684851905909344,0.006223549514960382
0.2295,0.0015493352604003632,0.002389715765513371,0.01645939960993069,0.015138623697872864,0.003488290020429963,0.007203711770306461,0.007680542004030038,0.006280882179147494
0.2299655,0.0015502371919653669,0.0023973259278466663,0.01638528502823849,0.015144897897915892,0.003491210312350918,0.0072489025429710125,0.0076762767572564885,0.006338482132287747
0.230431,0.00155122552495654,0.002405506555077091,0.016310937788315157,0.015150633713095007,0.003494179333949477,0.007294131766470725,0.007672052901233794,0.006396344034582296
0.2308966,0.0015523011917832016,0.0024142647946343242,0.016236368902259192,0.015155833225873886,0.0034971993209599876,0.007339393137164491,0.007667867157279297,0.006454462456721354
0.2313621,0.001553465119337643,0.0024236077913468925,0.016161589499318642,0.015160498633176867,0.003500272529332789,0.007384680362896488,0.007663716233780682,0.006512831880695367
0.2318276,0.0015547182287661634,0.0024335426862246374,0.016086610824407523,0.015164632244963899,0.0035034012356132582,0.007429987163543505,0.007659596827628777,0.006571446700642782
0.2322931,0.001556061435236475,0.0024440766152268177,0.016011444236525865,0.015168236482791975,0.003506587737329968,0.007475307271563717,0.007655505625684212,0.006630301223734514
0.2327586,0.0015574956477015292,0.0024552167080159394,0.015936101207083945,0.015171313878363653,0.003509834353391546,0.007520634432546955,0.007651439306276981,0.006689389671095205
0.2332241,0.0015590217686598056,0.0024669700866974103,0.0158605933181314,0.015173867072063252,0.003513143424491792,0.007565962405766411,0.007647394540737948,0.006748706178761357
0.2336897,0.0015606406939121054,0.0024793438645451154,0.015784932260491956,0.015175898811481174,0.0035165173135225827,0.007611284964731745,0.0076433679949613085,0.006808244798676354
0.2341552,0.0015623533123148823,0.0024923451447129916,0.015709129831804506,0.015177411949926856,0.0035199584059940727,0.007656595897743478,0.007639356330997028,0.006867999499722378
0.2346207,0.0015641605055301425,0.0025059810189326796,0.01563319793447111,0.015178409444930726,0.003523469110461654,0.007701889008448537,0.00763535620867233,0.006927964168789217
0.2350862,0.0015660631477719498,0.002520258566197317,0.015557148573512541,0.015178894356735589,0.0035270518589591367,0.00774715811639681,0.007631364287241236,0.006988132611879875
0.2355517,0.0015680621055495826,0.0025351848514315167,0.015480993854331802,0.015178869846777795,0.0035307091074375523,0.007792397057598556,0.0076273772270612555,0.007048498555252896
0.2360172,0.0015701582374074029,0.0025507669241475787,0.015404745980386016,0.015178339176158568,0.0035344433362089786,0.007837599685082523,0.007623391691296256,0.0071090556466012695
0.2364828,0.0015723523936615063,0.0025670118170879764,0.015328417250767026,0.015177305704105897,0.0035382570503947382,0.007882759869454706,0.007619404347644596,0.007169797456267717
0.2369483,0.0015746454161332435,0.0025839265448541764,0.015252020057690928,0.0151757728864274,0.0035421527803773094,0.00792787149945767,0.007615411870091564,0.007230717478496149
0.2374138,0.0015770381378797155,0.0026015181025218575,0.015175566883896789,0.015173744273954657,0.003546133082255256,0.007972928482530488,0.00761141094068517,0.007291809132719051
0.2378793,0.0015795313829213722,0.002619793464242611,0.015099070299954661,0.015171223510979505,0.003550200538300459,0.00801792474536942,0.007607398251334368,0.007353065764880572
0.2383448,0.0015821259659668588,0.002638759581832214,0.015022542961483,0.015168214333682959,0.003554357757416934,0.008062854234489504,0.0076033705056287254,0.007414480648795166
0.2388103,0.001584822692135278,0.002658423383345572,0.014945997606275437,0.015164720568557357,0.003558607375600471,0.008107710916787407,0.007599324420678592,0.007476046987541652
0.2392759,0.0015876223566760556,0.002678791771638419,0.014869447051336871,0.015160746130822373,0.003562952056398339,0.008152488780105854,0.007595256728974756,0.007537757914892691
0.2397414,0.0015905257446866062,0.0026998716229158647,0.01479290418982875,0.015156295022835614,0.0035673944913682696,0.00819718183380002,0.007591164180266617,0.007599606496779695
0.2402069,0.0015935336308279932,0.0027216697852678676,0.014716381987923511,0.015151371332498447,0.0035719374005359424,0.008241784109306288,0.007587043543457808,0.007661585732793172
0.2406724,0.0015966467790387753,0.0027441930771917255,0.014639893481568212,0.015145979231657773,0.003576583532850173,0.008286289660713708,0.007582891608518223,0.007723688557718523
0.2411379,0.0015998659422472232,0.00276744828610167,0.014563451773157578,0.015140122974504332,0.0035813356666350026,0.008330692565338502,0.007578705188411302,0.007785907843107219
0.2416034,0.001603191862082081,0.002791442166825656,0.014487070028116788,0.015133806895968233,0.003586196610037875,0.008374986924301957,0.007574481121035405,0.00784823639888326
0.242069,0.0016066252685820322,0.0028161814400894255,0.014410761471394475,0.01512703541011233,0.0035911692014730582,0.008419166863112061,0.007570216271178044,0.007910666974984716
0.2425345,0.001610166879904034,0.002841672790987948,0.014334539383866616,0.015119813008524014,0.0035962563100594594,0.008463226532249284,0.007565907532481663,0.007973192263040167
0.243,0.00161381740203068,0.0028679228674443253,0.014258417098652184,0.015112144258705969,0.0036014608360519663,0.008507160107756907,0.007561551829419603,0.008035804898079667
0.2434655,0.001617577528476776,0.002894938278656296,0.01418240799734179,0.015104033802466386,0.0036067857112654276,0.008550961791836424,0.007557146119280829,0.008098497460279927
0.243931,0.0016214479399953377,0.002922725593530486,0.014106525506140881,0.015095486354309129,0.0036122338994903623,0.008594625813448463,0.007552687394161943,0.008161262476743265
0.2443966,0.0016254293042832356,0.002951291339104595,0.01403078309192935,0.015086506699824292,0.0036178083968994943,0.008638146428919765,0.007548172682964932,0.008224092423309882
0.2448621,0.0016295222756867404,0.002980641998957755,0.013955194258239722,0.015077099694079565,0.0036235122324441644,0.008681517922556664,0.0075435990533990905,0.008286979726402941
0.2453276,0.0016337274949072241,0.0030107840116093327,0.013879772541156573,0.015067270260012772,0.0036293484682396546,0.008724734607265522,0.007538963613985496,0.008349916764905969
0.2457931,0.0016380455887072768,0.0030417237689064763,0.013804531505140103,0.01505702338682585,0.0036353201999384465,0.008767790825180507,0.007534263516062399,0.008412895872072043
0.2462586,0.001642477169617495,0.003073467614400736,0.013729484738777165,0.015046364128380422,0.0036414305570904213,0.008810680948299085,0.007529495955789885,0.008475909337464275
0.2467241,0.001647022835644192,0.0031060218417140713,0.0136546458504632,0.01503529760159508,0.0036476827034890103,0.008853399379125536,0.00752465817615213,0.008538949408927089
0.2471897,0.0016516831699782822,0.0031393926928945637,0.013580028464018824,0.01502382898484434,0.0036540798375022856,0.008895940551322798,0.0075197474689555075,0.008602008294587845
0.2476552,0.0016564587407055858,0.003173586356762139,0.013505646214244865,0.015011963516359264,0.0036606251923879734,0.008938298930372903,0.007514761176820804,0.008665078164888367
0.2481207,0.001661350100518796,0.0032086089672445843,0.013431512742419676,0.014999706492629668,0.003667322036591354,0.008980469014246284,0.007509696695167698,0.008728151154645983
0.2485862,0.0016663577864313487,0.003244466601704134,0.013357641691742679,0.014987063266807887,0.0036741736740250105,0.009022445334080215,0.007504551474189639,0.008791219365143701
0.2490517,0.0016714823194934213,0.0032811652792548696,0.01328404670272797,0.01497403924711408,0.0036811834443293864,0.009064222454866582,0.007499323020817151,0.008854274866249193
0.2495172,0.001676724204510274,0.0033187109590711843,0.013210741408551795,0.014960639895243101,0.0036883547231131245,0.009105794976149235,0.0074940089006676185,0.008917309698562253
0.2499828,0.0016820839297631495,0.0033571095386875347,0.013137739430357679,0.01494687072477301,0.0036956909221721778,0.009147157532731076,0.00748860673997951,0.008980315875590334
0.2504483,0.0016875619667329294,0.003396366852289696,0.013065054372522972,0.014932737299575317,0.003703195489686703,0.009188304795391048,0.0074831142275290355,0.0090432853859518
0.2509138,0.0016931587698267392,0.0034364886689977267,0.012992699817890458,0.014918245232227111,0.0037108719103947654,0.009229231471611095,0.007477529116527161,0.009106210195606519
0.2513793,0.0016988747761076924,0.0034774806911408414,0.012920689322968724,0.014903400182425263,0.0037187237057419,0.009269932306313186,0.007471849226494937,0.009169082250113404
0.2518448,0.001704710405027961,0.0035193485525243833,0.012849036413104965,0.014888207855402905,0.003726754434005586,0.009310402082606405,0.0074660724451150115,0.009231893476914513
0.2523103,0.0017106660581653562,0.003562097816689098,0.012777754577633966,0.014872674000348364,0.0037349676903937114,0.009350635622544139,0.007460196730057233,0.009294635787645297
0.2527759,0.0017167421189636177,0.0036057339751628865,0.012706857265007063,0.014856804408826784,0.003743367107116109,0.009390627787891365,0.007454220110776157,0.009357301080470535
0.2532414,0.001722938952476602,0.003650262445705213,0.012636357877905019,0.01484060491320464,0.003751956353428262,0.009430373480902017,0.00744814069027821,0.009419881242445397
0.2537069,0.0017292569051165765,0.003695688570544357,0.01256626976833871,0.014824081385077306,0.0037607391356463023,0.009469867645106347,0.007441956646856271,0.009482368151901082
0.2541724,0.0017356963044068236,0.0037420176146076814,0.012496606232741628,0.014807239733699885,0.0037697191971324314,0.009509105266108214,0.0074356662357893,0.009544753680854383
0.2546379,0.0017422574587387656,0.0037892547637451064,0.012427380507058019,0.01479008590442157,0.003778900318249912,0.009548081372392095,0.007429267791004679,0.009607029697440468
0.2551034,0.0017489406571338198,0.0038374051229459498,0.012358605761830515,0.014772625877123713,0.003788286316286791,0.00958679103613957,0.007422759726700853,0.009669188068368147
0.255569,0.0017557461690101994,0.003886473714549321,0.012290295097290991,0.014754865664661889,0.0037978810453475264,0.009625229374054982,0.007416140538927834,0.00973122066139685
0.2560345,0.0017626742439548605,0.003936465476448231,0.012222461538458297,0.014736811311312166,0.0038076883962116907,0.00966339154819988,0.007409408807123131,0.009793119347834486
0.2565,0.001769725111500794,0.00398738526028759,0.012155118030246492,0.014718468891221826,0.00381771229615895,0.009701272766835778,0.007402563195600632,0.009854876005055324
0.2569655,0.001776898980909848,0.004039237829656262,0.012088277432587027,0.014699844506864661,0.003827956708759517,0.009738868285274795,0.00739560245498992,0.009916482519036957
0.257431,0.0017841960409612533,0.004092027858273347,0.012021952515568316,0.014680944287500872,0.003838425633629273,0.009776173406737573,0.0073885254236235095,0.009977930786915376
0.2578966,0.0017916164597460258,0.004145759928168862,0.011956155954596004,0.014661774387641486,0.0038491231061487767,0.009813183483217936,0.007381331028869403,0.010039212719557095
0.2583621,0.0017991603844674025,0.004200438527859041,0.011890900325577144,0.01464234098551713,0.0038600531971453916,0.009849893916353603,0.007374018288406351,0.010100320244147247
0.2588276,0.0018068279412474678,0.004256068050516461,0.011826198100131418,0.01462265028155081,0.0038712200125377823,0.009886300158302302,0.007366586311439158,0.01016124530679254
0.2592931,0.0018146192349401112,0.004312652792135217,0.011762061640832457,0.01460270849683433,0.0038826276929420783,0.009922397712622499,0.007359034299851371,0.010221979875138024
0.2597586,0.0018225343489504501,0.004370196949691381,0.011698503196482218,0.014582521871607884,0.003894280413239047,0.009958182135157922,0.007351361549292719,0.010282515940996622
0.2602241,0.001830573345060837,0.004428704619298926,0.01163553489742134,0.01456209666374235,0.0039061823821016596,0.009993649034925006,0.007343567450198617,0.010342845522990427
0.2606897,0.0018387362632635556,0.004488179794361325,0.011573168750878281,0.014541439147223743,0.0039183378414824705,0.010028794075002349,0.007335651488739119,0.01040296066920279
0.2611552,0.0018470231216003012,0.00454862636371898,0.011511416636360017,0.014520555610639363,0.003930751066060281,0.010063612973421293,0.007327613247694721,0.010462853459840257
0.2616207,0.0018554339160085235,0.004610048109792629,0.011450290301086938,0.014499452355665117,0.003943426362645587,0.010098101504056697,0.0073194524072563915,0.010522516009903367
0.2620862,0.0018639686201747045,0.004672448706722858,0.011389801355474594,0.014478135695553711,0.003956368069544353,0.010132255497517029,0.0073111687457473075,0.010581940471865276
0.2625517,0.0018726271853946297,0.00473583171850583,0.011329961268664786,0.014456611953623398,0.003969580555879698,0.010166070842032924,0.007302762140263897,0.010641119038357095
0.2630172,0.0018814095404407081,0.004800200597125344,0.011270781364108511,0.01443488746174717,0.003983068220871109,0.010199543484343324,0.007294232567233967,0.010700043944858746
0.2634828,0.0018903155914363789,0.004865558680681373,0.011212272815203135,0.014412968558842337,0.003996835493070842,0.0102326694305783,0.007285580102889943,0.010758707472394106
0.2639483,0.0018993452217376445,0.004931909191515233,0.011154446640986136,0.014390861589360506,0.0040108868295572,0.010265444747137578,0.007276804923655504,0.010817101950229068
0.2644138,0.0019084982918217488,0.004999255234331628,0.011097313701887681,0.014368572901777978,0.004025226715084419,0.010297865561563776,0.0072679073064441735,0.010875219758571222
0.2648793,0.0019177746391830074,0.005067599794317833,0.011040884695544179,0.014346108847086526,0.004039859661188919,0.010329928063409282,0.007258887628868663,0.010933053331269631
0.2653448,0.0019271740782357946,0.005136945735260356,0.010985170152674879,0.014323475777284512,0.004054790205251713,0.010361628505095637,0.007249746369360003,0.010990595158513253
0.2658103,0.001936696400224672,0.005207295797659457,0.010930180433023573,0.014300680043868192,0.0040700229095168095,0.010392963202764324,0.007240484107195648,0.01104783778952643
0.2662759,0.001946341373141642,0.005278652596841964,0.010875925721367318,0.014277727996323054,0.004085562360065456,0.010423928537117797,0.007231101522435852,0.01110477383525993
0.2667414,0.0019561087416505,0.005351018621072832,0.01082241602359406,0.014254625980614976,0.00410141316574611,0.010454520954249584,0.007221599395767737,0.011161395971075941
0.2672069,0.0019659982270182758,0.00542439622966596,0.010769661162851062,0.014231380337681005,0.004117579957060043,0.010484736966462384,0.0072119786082567305,0.011217696939425476
0.2676724,0.001976009527053755,0.005498787651094723,0.010717670775765928,0.014207997401919508,0.0041340673850025,0.010514573153073126,0.007202240141005264,0.011273669552516604
0.2681379,0.0019861423160530854,0.005574194981102727,0.010666454308741996,0.01418448349967955,0.0041508801198593985,0.010544026161204109,0.007192385074719059,0.011329306694971952
0.2686034,0.001996396244752487,0.005650620180815268,0.010616021014329924,0.014160844947749317,0.004168022849959532,0.010573092706559362,0.007182414589181703,0.01138460132647381
0.269069,0.0020067709402881054,0.005728065074852,0.010566379947677156,0.014137088051843725,0.004185500280382303,0.010601769574185486,0.007172329962638641,0.011439546484395166
0.2695345,0.002017266006163062,0.005806531349441367,0.010517539963057009,0.014113219105091473,0.0042033171316210195,0.010630053619216191,0.00716213257109204,0.011494135286414917
0.27,0.002027881022221774,0.005886020550537354,0.010469509710479028,0.014089244386522091,0.00422147813820182,0.010657941767599828,0.007151823887508267,0.011548360933115396
0.2704655,0.0020386155446316216,0.005966534081939185,0.010422297632382265,0.014065170159553735,0.004239988047258323,0.010685431016809185,0.007141405480939869,0.011602216710560394
0.270931,0.002049469105872047,0.006048073203414603,0.01037591196041303,0.014041002670482609,0.00425885161706211,0.010712518436532955,0.007130879015563962,0.011655695992851677
0.2713966,0.0020604412147311488,0.0061306390288273565,0.010330360712288643,0.014016748146974999,0.004278073615509151,0.010739201169348381,0.0071202462496390544,0.011708792244661924
0.2718621,0.0020715313563098295,0.0062142325242695575,0.0102856516887486,0.013992412796562855,0.004297658818562307,0.01076547643137474,0.0071095090343822115,0.011761499023741932
0.2723276,0.002082738992033544,0.006298854506199525,0.010241792470594526,0.013968002805143848,0.0043176120086499984,0.010791341512907537,0.00709866931276853,0.011813809983399875
0.2727931,0.002094063559671673,0.006384505639585729,0.010198790415820193,0.013943524335486724,0.004337937973021215,0.01081679377903336,0.007087729118254851,0.011865718874950295
0.2732586,0.002105504473364534,0.0064711864360574465,0.010156652656832821,0.013918983525742765,0.004358641502057056,0.01084183067022538,0.0070766905734296085,0.011917219550130413
0.2737241,0.0021170611236580495,0.006558897252062692,0.010115386097766872,0.013894386487964013,0.004379727387539077,0.01086644970291971,0.007065555888590691,0.01196830596348137
0.2741897,0.0021287328775460483,0.006647638287034074,0.010074997411891436,0.013869739306628886,0.004401200420874777,0.010890648470072843,0.0070543273602532205,0.012018972174691984
0.2746552,0.0021405190785201878,0.006737409581563164,0.010035493039112298,0.013845048037175768,0.004423065391280667,0.010914424641700608,0.007043007369589152,0.012069212350902758
0.2751207,0.0021524190466274645,0.006828211015584072,0.00999687918356967,0.013820318704545058,0.004445327083923415,0.010937775965399202,0.00703159838080063,0.012119020768967903
0.2755862,0.002164432078535267,0.006920042306566924,0.00995916181133255,0.013795557301730146,0.00446799027801965,0.010960700266848863,0.0070201029394290106,0.012168391817673442
0.2760517,0.0021765574476039205,0.007012903007722015,0.009922346648190541,0.013770769788337774,0.00449105974489505,0.010983195450300897,0.00700852367060151,0.01221731999990942
0.2765172,0.0021887944039666613,0.007106792506215407,0.009886439177543931,0.013745962089158103,0.004514540246003387,0.011005259499048691,0.006996863277217383,0.01226579993479452
0.2769828,0.0022011421746169677,0.007201710021396782,0.00985144463839276,0.01372114009274496,0.00453843653090625,0.011026890475883408,0.006985124538075535,0.012313826359751477
0.2774483,0.0022135999635031945,0.00729765460304039,0.009817368023425505,0.01369630965000663,0.004562753335214198,0.011048086523535,0.006973310305945483,0.012361394132531765
0.2779138,0.002226166951630446,0.00739462512959991,0.009784214077207976,0.013671476572807675,0.004587495378490135,0.011068845865099158,0.006961423505583547,0.012408498233188217
0.2783793,0.002238842297169635,0.007492620306478087,0.009751987294472934,0.013646646632582332,0.004612667362115735,0.011089166804450861,0.0069494671316962155,0.012455133765994279
0.2788448,0.0022516251355736666,0.007591638664312008,0.009720691918510879,0.01362182555896003,0.0046382739671217265,0.011109047726645114,0.0069374442468526365,0.012501295961308806
0.2793103,0.002264514579700674,0.007691678557274933,0.00969033193966236,0.013597019038403668,0.004664319851982879,0.011128487098305464,0.006925357979348205,0.012546980177385553
0.2797759,0.002277509719944234,0.007792738161395659,0.009660911093912187,0.013572232712861272,0.00469080965037852,0.01114748346800082,0.006913211521021333,0.012592181902126793
0.2802414,0.002290609624370474,0.007894815472896409,0.009632432861585789,0.013547472178431656,0.004717747968919422,0.011166035466611065,0.006901008125025489,0.012636896754780868
0.2807069,0.002303813338861984,0.007997908306550321,0.00960490046614798,0.013522742984044657,0.004745139384841943,0.011184141807681871,0.0068887511035586445,0.012681120487583752
0.2811724,0.0023171198872684482,0.008102014294059616,0.009578316873104255,0.013498050630156508,0.004772988443670337,0.011201801287769032,0.006876443825552252,0.01272484898734484
0.2816379,0.0023305282715639026,0.008207130882455513,0.00955268478900472,0.013473400567460861,0.00480129965684822,0.011219012786772599,0.006864089714321904,0.012768078276977329
0.2821034,0.002344037472010531,0.008313255332520959,0.009528006660550644,0.013448798195615962,0.004830077499340239,0.011235775268260965,0.006851692245181745,0.01281080451697349
0.282569,0.0023576464473289006,0.008420384717237194,0.009504284673803598,0.013424248861988475,0.0048593264072050646,0.011252087779785092,0.00683925494302469,0.01285302400682522
0.2830345,0.002371354134874526,0.008528515920255145,0.009481520753497043,0.0133997578604144,0.004889050775140887,0.011267949453182982,0.00682678137987046,0.012894733186390103
0.2835,0.0023851594508206603,0.008637645634392638,0.009459716562450213,0.013375330429977607,0.004919254954004651,0.011283359504874507,0.006814275172383393,0.012935928637203204
0.2839655,0.0023990612903471947,0.008747770360158474,0.00943887350108407,0.013350971753806336,0.004949943248306321,0.011298317236146823,0.006801739979361972,0.012976607083734668
0.284431,0.0024130585278355474,0.008858886404304375,0.009418992707039055,0.013326686957888105,0.004981119913679545,0.01131282203343062,0.006789179499202009,0.013016765394593097
0.2848966,0.0024271500170694035,0.00897098987840592,0.009400075054894335,0.013302481109903327,0.00501278915433008,0.01132687336856748,0.006776597467335335,0.013056400583674702
0.2853621,0.002441334591441157,0.009084076697473683,0.009382121155988191,0.013278359218077957,0.005044955120463387,0.01134047079906871,0.006763997653645894,0.013095509811258094
0.2858276,0.0024556110641638933,0.009198142578595853,0.009365131358339145,0.01325432623005539,0.005077621905692811,0.011353613968366023,0.006751383859865104,0.01313409038504466
0.2862931,0.0024699782284887213,0.009313183039613806,0.009349105746667408,0.013230387031787992,0.005110793544429799,0.0113663026060544,0.006738759916948338,0.013172139761144406
0.2867586,0.002484434857927265,0.009429193397832266,0.009334044142516177,0.013206546446448553,0.00514447400925763,0.01137853652812746,0.006726129682434381,0.013209655545007202
0.2872241,0.0024989797064790984,0.009546168768765817,0.009319946104472275,0.013182809233362097,0.005178667208290169,0.011390315637205632,0.0067134970377897224,0.013246635492299416
0.2876897,0.002513611508863909,0.00966410406492369,0.009306810928485633,0.013159180086958495,0.00521337698251717,0.011401639922757478,0.006700865885739559,0.013283077509725854
0.2881552,0.002528328980758165,0.00978299399463484,0.00929463764828704,0.013135663635746295,0.005248607103137694,0.011412509461314486,0.0066882401475873935,0.013318979655796896
0.2886207,0.0025431308190360605,0.009902833060915398,0.009283425035903568,0.013112264441308242,0.005284361268883211,0.01142292441667968,0.006675623760525142,0.01335434014154067
0.2890862,0.002558015702014511,0.010023615560380561,0.009273171602271037,0.013088986997318922,0.00532064310333199,0.011432885040130356,0.0066630206749356494,0.013389157331160079
0.2895517,0.0025729822897019683,0.010145335582203024,0.009263875597942887,0.013065835728584859,0.005357456152216398,0.011442391670615263,0.006650434851689493,0.013423429742634482
0.2900172,0.002588029224050816,0.010267987007119993,0.009255535013894688,0.01304281499010744,0.005394803880724759,0.011451444734946407,0.006637870259437951,0.013457156048265879
0.2904828,0.0026031551292130892,0.010391563506490934,0.009248147582423564,0.013019929066168997,0.005432689670799417,0.011460044747985692,0.006625330871903989,0.013490335075169568
0.2909483,0.002618358611799267,0.010516058541408241,0.009241710778141753,0.012997182169442383,0.005471116818432714,0.011468192312826465,0.006612820665173057,0.013522965805709417
0.2914138,0.0026336382611398725,0.01064146536186314,0.009236221819063462,0.012974578440124366,0.005510088530962548,0.011475888120970033,0.006600343614985491,0.01355504737787788
0.2918793,0.00264899264954961,0.010767777005969183,0.009231677667784181,0.012952121945093214,0.00554960792436926,0.011483132952497178,0.006587903694032245,0.013586579085620918
0.2923448,0.002664420332593753,0.010894986299245762,0.00922807503275148,0.012929816677090868,0.005589678020575569,0.011489927676234614,0.006575504869255734,0.01361756037910805
0.2928103,0.0026799198493565085,0.011023085853964028,0.009225410369626343,0.012907666553930167,0.005630301744751319,0.011496273249916278,0.006563151099157529,0.013647990864947697
0.2932759,0.002695489722711061,0.01115206806855759,0.009223679882733963,0.012885675417727642,0.005671481922624824,0.0115021707203393,0.006550846331114726,0.013677870306347954
0.2937414,0.0027111284595910195,0.011281925127100339,0.009222879526602907,0.012863847034162467,0.005713221277802606,0.011507621223514347,0.006538594498706764,0.01370719862322293
0.2942069,0.0027268345512629997,0.011412648998853653,0.009223005007591482,0.01284218509176224,0.00575552242909934,0.011512625984810057,0.0065263995190545454,0.013735975892244746
0.2946724,0.002742606473600096,0.011544231437885152,0.009224051785600068,0.012820693201216345,0.005798387887879882,0.011517186319091106,0.006514265290173623,0.01376420234684117
0.2951379,0.002758442687356016,0.011676663982761161,0.00922601507586812,0.012799374894717653,0.005841820055415227,0.011521303630849472,0.006502195688343251,0.01379187837713892
0.2956034,0.002774341638439682,0.01180993795631498,0.009228889850854499,0.012778233625333275,0.0058858212202543125,0.011524979414328302,0.006490194565493042,0.013819004529852652
0.296069,0.0027903017581901307,0.01194404446549295,0.009232670842199725,0.012757272766405084,0.005930393555613582,0.01152821525363785,0.006478265746608928,0.013845581508119776
0.2965345,0.0028063214636515742,0.012078974401280269,0.009237352542768694,0.012736495610980688,0.005975539116786271,0.011531012822862815,0.006466413027160137,0.0138716101712812
0.297,0.002822399157848479,0.012214718438708416,0.00924292920877234,0.012715905371275522,0.0060212598385733975,0.011533373886160419,0.006454640170548853,0.01389709153460821
0.2974655,0.002838533230060574,0.012351267036945996,0.009249394861966692,0.01269550517816664,0.006067557532738454,0.01153530029784845,0.0064429509055842216,0.013922026768975679
0.297931,0.0028547220560976843,0.01248861043947465,0.009256743291927745,0.012675298080718777,0.00611443388548783,0.011536794002482581,0.006431348923982303,0.013946417200481757
0.2983966,0.002870963998574328,0.01262673867435173,0.009264968058400568,0.012655287045743195,0.006161890454978984,0.0115378570349222,0.006419837877893559,0.01397026431001412
0.2988621,0.002887257407184057,0.012765641554561214,0.009274062493721116,0.01263547495738984,0.006209928668858389,0.011538491520383966,0.006408421377459435,0.013993569732762784
0.2993276,0.0029036006189735405,0.012905308678454344,0.009284019705309341,0.01261586461677321,0.006258549821831196,0.011538699674482273,0.006397102988399543,0.01401633525767937
0.2997931,0.0029199919586164434,0.013045729430281287,0.009294832578232312,0.012596458741632385,0.006307755073264627,0.011538483803255718,0.006385886229630955,0.01403856282688262
0.3002586,0.002936429738687162,0.013186892980815114,0.009306493777836213,0.012577259966025638,0.006357545444827017,0.01153784630317874,0.006374774570921063,0.014060254535009885
0.3007241,0.0029529122599344965,0.01332878828806917,0.009318995752446177,0.012558270840060047,0.006407921818164508,0.011536789661157485,0.006363771430575418,0.01408141262851418
0.3011897,0.002969437811555336,0.013471404098108932,0.009332330736133043,0.01253949382965648,0.006458884932617382,0.011535316454508936,0.006352880173161926,0.014102039504906324
0.3016552,0.002986004671468434,0.013614728945959316,0.009346490751546145,0.012520931316350266,0.006510435382978083,0.011533429350922327,0.006342104107272715,0.014122137711941488
0.3021207,0.0030026111065883515,0.013758751156608306,0.009361467612811227,0.012502585597127858,0.006562573617292958,0.011531131108401786,0.006331446483324972,0.01414170994674948
0.3025862,0.003019255373099667,0.01390345884610762,0.009377252928492561,0.012484458884299632,0.0066152999347098285,0.011528424575189102,0.0063209104914019425,0.01416075905490786
0.3030517,0.0030359357167315483,0.014048839922771093,0.009393838104618338,0.012466553305408976,0.0066686144833733975,0.011525312689665548,0.00631049925913532,0.014179288029456975
0.3035172,0.0030526503730327875,0.014194882088471295,0.009411214347768286,0.012448870903177697,0.006722517258370569,0.011521798480231625,0.006300215849630156,0.014197300009855862
0.3039828,0.003069397567647411,0.014341572840034825,0.009429372668222477,0.012431413635487666,0.006777008099727653,0.01151788506516363,0.006290063259433423,0.014214798280877934
0.3044483,0.0030861755165909853,0.014488899470736597,0.009448303883170184,0.012414183375398588,0.006832086690461447,0.011513575652445929,0.006280044416547324,0.014231786271445244
0.3049138,0.0031029824265277335,0.014636849071893322,0.00946799861997759,0.012397181911201635,0.006887752554686146,0.011508873539577774,0.006270162178488374,0.014248267553400093
0.3053793,0.0031198164950485977,0.014785408534556281,0.009488447319513163,0.012380410946508687,0.006944005055778071,0.011503782113353496,0.006260419330393285,0.014264245840212707
0.3058448,0.0031366759109503744,0.014934564551303429,0.009509640239529483,0.012363872100376809,0.007000843394600167,0.011498304849614827,0.006250818583172569,0.014279724985623648
0.3063103,0.003153558854516088,0.015084303618130738,0.009531567458100297,0.012347566907467574,0.007058266607788238,0.011492445312974251,0.006241362571712798,0.014294708982219581
0.3067759,0.0031704634977967466,0.015234612036442606,0.009554218877111564,0.012331496818240867,0.007116273566100804,0.011486207156508261,0.006232053853128371,0.014309201959940945
0.3072414,0.003187388004894634,0.015385475915141073,0.009577584225805244,0.01231566319918273,0.007174862972834495,0.011479594121419596,0.0062228949050636235,0.014323208184520013
0.3077069,0.0032043305322482707,0.015536881172813538,0.009601653064374585,0.012300067333066754,0.007234033362306804,0.011472610036667562,0.006213888124046012,0.014336732055847774
0.3081724,0.0032212892289191675,0.015688813540018633,0.009626414787609602,0.01228471041924843,0.007293783098407981,0.011465258818565732,0.006205035823891133,0.014349778106267972
0.3086379,0.003238262236880473,0.01584125856166983,0.009651858628591387,0.012269593573991808,0.007354110373223821,0.011457544470346394,0.006196340234160206,0.014362350998796543
0.3091034,0.003255247691307619,0.015994201599516256,0.009677973662433866,0.012254717830827674,0.00741501320573102,0.011449471081691299,0.006187803498670672,0.014374455525264791
0.309569,0.0032722437208710584,0.01614762783472009,0.009704748810071589,0.012240084140942378,0.007476489440566728,0.011441042828228293,0.0061794276740604675,0.014386096604384823
0.3100345,0.003289248448031193,0.016301522270529754,0.009732172842092044,0.012225693373596355,0.007538536746873873,0.011432263970993579,0.006171214728406527,0.014397279279736068
