Time,Rectus Femoris right,Rectus Femoris left,Hamstrings right,Hamstrings left,TibilaisÂ Anterior right,TibilaisÂ Anterior left,Gastrocnemius right,Gastrocnemius left
0.0,0.005843226954221603,-0.012382825141917296,0.026807390370809283,-0.016226322169887807,0.08683841084943902,-0.03587779218311359,0.01466321084943902,-0.031577938335193505
0.0004655,0.004904560535653239,-0.014193278928693522,0.043982614028238276,-0.01498788071420432,0.09341965835325225,-0.03397326281702923,0.010411282499715116,-0.029298199504134804
0.000931,0.004674247386077313,-0.017204822332825262,0.037474285402438696,-0.014180607925635297,0.07660983962817648,-0.04055371045569075,0.004434639628176489,-0.026171451360213396
0.0013966,0.0008702448011517917,-0.018464688767396167,0.0156790280112427,-0.010828139179214763,0.03826616873928942,-0.04033387434995622,-0.0035248,-0.021762088756125945
0.0018621,0.0020649854006174456,-0.020917126888633453,0.006257770998850537,-0.0102388,0.005905378429544442,-0.021683178429544443,-0.010382280665900358,-0.01844317413073668
0.0023276,-0.0010331874932073292,-0.020977541473969834,0.0007869461221735284,-0.007290146070705512,-0.009388461633479414,0.00555582311255478,-0.015653797598696128,-0.013864196995486784
0.0027931,-0.0023228053923366313,-0.023155793510404327,-0.03402157221783231,-0.0033124656061660315,-0.013422994247349237,0.026115367324197065,-0.015585397306780534,-0.010744809426956357
0.0032586,-0.0036230279147079197,-0.022736245974170094,-0.06758923228695071,-0.0007960232572196218,0.003553941826729078,0.02621522274717234,-0.013076602058609575,-0.012669069486413357
0.0037241,0.0004056782791197864,-0.018058970184020622,-0.06615882803834298,-0.0019838596319587585,0.017340941840450357,0.011383445395723148,-0.010096051102731355,-0.0175478555199587
0.0041897,0.007838654702939315,-0.014857680950863345,-0.03958563806640356,0.0013367380982733095,0.029467107096032556,-0.009233938030961023,-0.006382111818479528,-0.020002523668828806
0.0046552,0.013808798157707873,-0.014231700307048688,-0.028437499385902624,0.002739573080945701,0.039792790165191334,-0.012800151074670408,-0.0018922216992266056,-0.022619664167283098
0.0051207,0.016385650598553358,-0.014577183399839263,-0.053165079647730824,0.003137666799678524,0.05436228192282062,-0.003159969074768315,0.00747882625592846,-0.02451950039903557
0.0055862,0.017399512322533856,-0.014151918292872127,-0.1030789327740828,0.0037503408535639366,0.06516797317148851,0.005763687677466145,0.015292975305398351,-0.026117471493736888
0.0060517,0.02024939913646242,-0.012874344933795278,-0.12632359150114392,0.003904300046760909,0.06490547323691341,0.002267428396639944,0.01436513843552757,-0.02739694129965354
0.0065172,0.02827151115827269,-0.010454882442846892,-0.10824828356328947,0.0055586185804174645,0.05571833076195451,-0.00301582884530144,0.008627001981590892,-0.027776318418301416
0.0069828,0.03503755242651005,-0.012118878568569195,-0.05632148952996665,0.0036522222717672477,0.03142777295155593,-0.005134188689630202,0.007524877313211933,-0.028252370751642115
0.0074483,0.04115980496251941,-0.015454493866996186,-0.010351592556220875,0.005627764461034041,0.002377548402991392,-0.003622244382092927,0.026506470479606133,-0.030252559269651178
0.0079138,0.0441500273938479,-0.016029568325803663,0.011108720207976618,0.006884618280538657,-0.013713260995482198,-0.004989333832675477,0.06308067979202338,-0.0299037015519466
0.0083793,0.043308028391565404,-0.014459452416504813,0.018922124208970846,0.007308252232473373,-0.010183178001541168,-0.006186979843990304,0.07892329797351942,-0.028655359687980612
0.0088448,0.043965501714356384,-0.012355660859717746,0.019163374547525914,0.00785956832579493,0.0028077904197006493,-0.00421453338856145,0.0642203037330386,-0.025783560859717745
0.0093103,0.04357043818555778,-0.01257847907639346,0.013672059307295092,0.00554136930160715,0.006418748955254697,0.0004614445353527568,0.02988462976341042,-0.023276367190721566
0.0097759,0.048706318596786716,-0.015038969857614182,0.0014159151157530595,0.004126364177081257,0.006618785432349688,0.005256377415490713,-0.007047795511881155,-0.022657795511881153
0.0102414,0.04873073800869733,-0.017479695674503522,-0.019176630151159595,0.0010190727667434547,-0.0014362421678197322,0.0036210829280460366,-0.04499705811357032,-0.02286924491934871
0.0107069,0.05263864486641126,-0.014456623175975888,-0.031037746772800398,0.0013506569151111104,-0.03261430356304475,-0.002624790591812951,-0.08019737252685571,-0.023610549350879816
0.0111724,0.04935774134399362,-0.009926227553862133,-0.02016981940886952,0.001541843987202408,-0.0668290654209175,-0.011342379471358242,-0.11184943034042596,-0.025419938628773637
0.0116379,0.050486587899879545,-0.005135431384519183,-0.005661161244790079,0.003741468274285271,-0.09987416985989055,-0.019034868615480816,-0.12373048155511696,-0.027410573374638137
0.0121034,0.0528437821403269,-0.00048369645640412086,-0.005366692841961388,0.0018463,-0.10820189030102585,-0.024300476378869774,-0.11360320722888546,-0.02987269284196139
0.012569,0.0506310987957596,0.0026489190289839233,-0.02642742627833543,0.0003368860843577973,-0.07720431267328302,-0.02282111267328302,-0.07759742108875615,-0.029278933489568157
0.0130345,0.04840687071607659,0.004096823793475927,-0.052340856736106826,-0.0027078617187982,-0.0222115415365679,-0.014690027860297303,-0.016679068072881317,-0.026177958871545986
0.0135,0.0495155,0.008357291321959785,-0.07017629760904899,-0.0022175719767345723,0.022543122531265957,-0.002240923329196596,0.04608980477906112,-0.01991679880594495
0.0139655,0.05145439110667793,0.009865445553338967,-0.08140370998005071,-0.0027906425888982794,0.047250171665152434,0.013049812392864273,0.06583280887679646,-0.014449194622745748
0.014431,0.0535987186881787,0.00986883831988831,-0.0780977851402132,-0.004908714016134027,0.05749698672764061,0.019131391599441553,0.033093503284373535,-0.014342575696245717
0.0148966,0.054299792327940785,0.007387174982759868,-0.0771126599280751,-0.008046913067464532,0.07068488588380707,0.0108009706499252,-0.0057654706499252,-0.01837860708565561
0.0153621,0.05714837623513242,0.009116909278169584,-0.06440796018371239,-0.00854170547652713,0.08163132935155734,-0.007153604694166112,-0.0069089027512827155,-0.02292008287218193
0.0158276,0.0605582147480319,0.00594858754707869,-0.04678898034371075,-0.0082246,0.07365770449629434,-0.026002109498478528,0.010877232109210565,-0.025945918491067206
0.0162931,0.05941662967243854,0.00461218796208055,-0.03069911182828958,-0.007646079619920446,0.052264841815394196,-0.044541101795361575,0.02802017866972156,-0.029629025871643
0.0167586,0.05531691635281208,0.003069989828690014,-0.04316021155568168,-0.0082246,0.040671643192221316,-0.05080447625134181,0.029758585930616453,-0.03113693857183908
0.0172241,0.04770910850325287,-0.0003586939612753339,-0.061854588302310574,-0.009635580476487675,0.014891973521885874,-0.05681908830231057,0.035273296775951986,-0.03356562339537886
0.0176897,0.04198434823592963,-0.002806631058442225,-0.05881047223809035,-0.010382615239443725,-0.024404997829813813,-0.054834386119045175,0.049710893175326676,-0.0354884255922578
0.0181552,0.0391089,-0.004862387991792317,-0.0452282550601724,-0.010299997158586078,-0.05355453491868574,-0.04745575345067915,0.05461741645911485,-0.03612778638229907
0.0186207,0.038329409212228285,-0.00703729825092736,-0.034960888701626155,-0.011078,-0.06536358292383514,-0.03906184384520369,0.05275288870162616,-0.037214311298373846
0.0190862,0.03906315054831063,-0.008944955786332214,-0.033493493452473024,-0.011078,-0.07446134604557299,-0.03436617904791366,0.051285493452473026,-0.03868170654752698
0.0195517,0.041765552388921996,-0.011049083100242982,-0.032348605633252335,-0.01033138873349532,-0.10447710932482882,-0.032609087471548566,0.054816988190361564,-0.03780088661614021
0.0200172,0.0357041997200479,-0.013623998802729895,-0.03442860147722221,-0.014146781716676224,-0.12692091987968393,-0.03773484535089563,0.07503888091849616,-0.033178020957816086
0.0204828,0.026339055300576623,-0.015964839214148426,-0.033243719607074215,-0.01279777568565937,-0.13954012707231675,-0.03946704567406852,0.11001260903659828,-0.02826490941453284
0.0209483,-0.006788149810914623,-0.0200196809414112,-0.02514441184154296,-0.0125887,-0.14212584419441093,-0.05707889768775144,0.14494626282489362,-0.021737604822238403
0.0214138,-0.03846519924290517,-0.020657450505687524,-0.007795471195875166,-0.012612601011375044,-0.14355998786349947,-0.07349350606825027,0.1278245615448115,-0.018223896965874866
0.0218793,-0.05763518872641789,-0.020952351409197763,0.013854760608199904,-0.013252885703908705,-0.13473703073249985,-0.07665728952672557,0.06370077092460764,-0.016252551409197766
0.0223448,-0.058601046292776175,-0.019449062871350866,0.0330706228448987,-0.014254190850331435,-0.1092469392222433,-0.05680637372732339,-0.0028835234334189984,-0.01695847962152719
0.0228103,-0.056984931474355634,-0.017113661967739856,0.050571423474041026,-0.012287967606452028,-0.07625258642275229,-0.028569355467929367,-0.04350091743566922,-0.01621139948046729
0.0232759,-0.05481575931195706,-0.01428471135997474,0.046529521135997474,-0.011351863407992421,-0.06637053491826178,0.001565244035534524,-0.07692082783390998,-0.01310100567998737
0.0237414,-0.04783721542787087,-0.011061361942541892,0.03836218966893104,-0.01220261268581937,-0.08504857140541539,0.029439926377299332,-0.11453915823870167,-0.0129244
0.0242069,-0.04195615481761569,-0.008395867650260971,0.01967257650260971,-0.0125887,-0.10832579540777226,0.029184416309883655,-0.11274856496950633,-0.017913333132621667
0.0246724,-0.03784660589854379,-0.007124696238554351,0.005977704052809233,-0.012542434049799172,-0.10142247876431003,0.00876876863694772,-0.07392869623855435,-0.0232965758438767
0.0251379,-0.028736046045813292,-0.006257779056704686,0.004015150420537232,-0.013770410557848166,-0.07604758881657864,-0.014574768541956775,-0.02427893212671667,-0.029517086037803123
0.0256034,-0.025872482364975705,-0.002661434647208724,0.011438152593652957,-0.011677486929441745,-0.056444376727839,-0.018319756085448335,-0.027335531155413345,-0.03047668267639564
0.026069,-0.016560495995965416,-0.0003965450472029311,0.0004816668201363611,-0.013447845541720242,-0.044922754952797066,-0.011585236832147244,-0.07050085323014853,-0.029259271382908444
0.0265345,-0.009480593306215222,-0.0014743554529058475,-0.03513272636836744,-0.013792466937847782,-0.051006169012833974,-0.007095794171349749,-0.08685941211566336,-0.02893956653107611
0.027,-0.001781524107459789,-0.0029888620537298943,-0.0826174420122111,-0.010974851426732084,-0.06745848085182815,-0.008535670535685474,-0.06607730817110044,-0.030195980851828147
0.0274655,0.006470976347793952,-0.0038229881738969765,-0.11226491704560543,-0.008794014581863775,-0.07745497573086371,-0.01578710907034227,-0.03276849845966406,-0.030977649614916013
0.027931,0.012756770487643634,-0.0036164748114419823,-0.11355794529908562,-0.009307654700914382,-0.07691222271466447,-0.020767728530497194,-0.0099031,-0.030533050377116035
0.0283966,0.018032844491313985,-0.0028534,-0.0844994762189868,-0.009984377058497708,-0.06320747935280573,-0.016126392955957785,0.00672846122828496,-0.027133116736970976
0.0288621,0.023216184942126353,-0.003662580805637547,-0.05291077244601043,-0.00964394489202086,-0.04426567658249923,-0.00911688266196871,0.016703433758722776,-0.02374274612957497
0.0293276,0.02823932781756692,-0.004309957889187368,-0.03761171429324571,-0.008887874436486616,-0.032183635348652026,-0.00476754134188812,0.03029264595957023,-0.022332025563513384
0.0297931,0.0317212605775993,-0.001373065175554944,-0.04807466678558151,-0.00843514987965875,-0.03050161195122259,-0.0010768667855815088,0.05129204128973294,-0.022188363922272906
0.0302586,0.03735403192483698,0.005414902825731148,-0.08407658921927494,-0.010872015962418491,-0.028420595001111527,0.0042527308382583175,0.06600775571187509,-0.02429991596241849
0.0307241,0.0371794349839062,0.010877376364830802,-0.12355432099034372,-0.010508655974249916,-0.02148312255631581,0.007242885781149278,0.06148494477469926,-0.026057347524140705
0.0311897,0.03598076764556876,0.013435585830477633,-0.13008328235949745,-0.011200126470886248,-0.022720672460565958,0.009323247058227504,0.04795127110641652,-0.0256809
0.0316552,0.03802698954805887,0.007107155717014059,-0.1033834647423481,-0.01154232337910369,-0.04046759552059666,-0.003194708892279321,0.01152642785850703,-0.02639956908869672
0.0321207,0.04813336873498946,-9.43661607565948e-05,-0.06798950006582091,-0.011571164246176322,-0.05552149973575406,-0.014773396501387455,-0.017456429812620106,-0.02710236721677811
0.0325862,0.056866850915533264,-0.0032224721831825448,-0.05141738960620842,-0.009122751491435736,-0.056850510779680945,-0.021459213186649947,-0.03627962550568481,-0.027334205389840473
0.0330517,0.06339589150389295,-0.003652778439517682,-0.038366828848281374,-0.006828576537514241,-0.0510609413437856,-0.02008665364389953,-0.05298309271220094,-0.02435446715232144
0.0335172,0.0695040217018319,-0.0031891,-0.02463936798659657,-0.006115542033129789,-0.05036922170183189,-0.011888356596336209,-0.06752994232497497,-0.020313497115954263
0.0339828,0.074628952517501,-0.0031891,-0.017379091737734796,-0.005546105275833223,-0.05549415251750099,-0.0016384949649980215,-0.0769255640070294,-0.01832046846541628
0.0344483,0.07874770924928545,-0.002116026876786385,-0.015106382695021457,-0.005169357707737871,-0.06589313990507742,0.014008789992657183,-0.0720600838886138,-0.01947997911424441
0.0349138,0.08042916659185707,0.0009297477205483246,-0.012096378176762205,-0.005578155455809448,-0.07470268886395237,0.02404155545580945,-0.06311768374478602,-0.022358161023833267
0.0353793,0.08237808446884201,0.0069389595540379715,-0.0017021494995092974,-0.008176712625122677,-0.07535232815628067,0.026640112625122676,-0.052398635421368966,-0.02463189854698234
0.0358448,0.08269562347806125,0.011943403577631892,0.009981410732895674,-0.009697917888159458,-0.058975185962687374,0.019858746161828665,-0.05296903550310397,-0.02583752146579135
0.0363103,0.08031854611796574,0.012223064638045456,0.010820393914136365,-0.011096223190227275,-0.04163628352388599,0.007833320564045428,-0.07198590430438674,-0.02751548782827273
0.0367759,0.07458817228086753,0.008185133358458137,-0.0019191323497457892,-0.013592699533331032,-0.03227039235407656,-0.007847796442646505,-0.10969337489405617,-0.029572576911480863
0.0372414,0.06865333561976773,0.002620527996929363,-0.029787912407868003,-0.01792360686109082,-0.038687000762641366,-0.020237203812313004,-0.13234228475253565,-0.029860561330560635
0.0377069,0.06573494399252097,0.0005775930018841957,-0.05109271899052126,-0.020550237569006036,-0.04087581621735229,-0.025490378291039936,-0.12271139242728334,-0.02971459393379138
0.0381724,0.0641129465834408,0.0004998640279266661,-0.06598661474933841,-0.021645328055853334,-0.028899734144314907,-0.027253957892974915,-0.09455846720552821,-0.028698564027926667
0.0386379,0.0636039118318883,0.00010187426454041776,-0.0678470452558702,-0.02094273977500372,-0.016193494655106375,-0.016997877690843544,-0.06867340135462013,-0.028377488168111704
0.0391034,0.06320006327734741,-0.0024002570585680786,-0.06325814778337892,-0.019825990074074127,-0.014149757058568078,0.0031724711757042355,-0.04765579880448627,-0.028741768361326293
0.039569,0.06267861640779229,-0.0060503851454540005,-0.05869544884196919,-0.01995639062426523,-0.017799885145453997,0.014122855436362002,-0.035401875035545316,-0.029002491796103855
0.0400345,0.06156162120981735,-0.014605878967920951,-0.052109916156240485,-0.0203098,-0.020186048557590597,0.01700192220532723,-0.02223272003656917,-0.03041977879018265
0.0405,0.060850869900406585,-0.02089427525282097,-0.050901712373589515,-0.02026692168326557,-0.017270680494974548,0.010632031384485326,-0.021732098213303585,-0.031087651782858983
0.0409655,0.059035993841179954,-0.03109672052940015,-0.04933649486764996,-0.020345601026470008,-0.007092468579319046,-0.0030635348999802576,-0.027900819816220508,-0.03242400031329037
0.041431,0.057364649802647105,-0.03666786732450964,-0.04794370816887259,-0.020624158366225484,0.004328299372597683,-0.012534484451666383,-0.034725433151200774,-0.03395602419291661
0.0418966,0.054876903437692116,-0.04149955439231624,-0.03839812002647396,-0.021589397369782052,0.01747396580716668,-0.019395386041436095,-0.03823735519979041,-0.03533192982637607
0.0423621,0.05348113652194465,-0.04334170434756919,-0.01858085826794052,-0.021033718260972323,0.024793766081992116,-0.020579848262683838,-0.03781861826097232,-0.03634452260854151
0.0428276,0.052826409399085665,-0.04257609018128193,0.006297948339290626,-0.018469982896799825,0.028238207704114515,-0.010798059784456289,-0.030818250385370623,-0.03565971879817133
0.0432931,0.05173107263624137,-0.04188263013070474,0.02126650684093966,-0.01563511237483188,0.029348259557256763,-0.0012841149889267552,-0.020020128823657307,-0.03417408631812068
0.0437586,0.050095007738764796,-0.04252830283685838,0.026406188474367754,-0.012364100936840225,0.02720063654626098,-0.0006140875375275296,-0.012827317364378888,-0.032597897590304264
0.0442241,0.046665938180250714,-0.042697257834526124,0.02221604078281672,-0.008806563858165245,0.011179137361743603,-0.01337157626889268,-0.011563076924651475,-0.0317235
0.0446897,0.043176119957578495,-0.04047640427837126,0.016346689352907295,-0.006902975095746791,0.0026129879308605564,-0.02288942557255667,-0.007597314257160502,-0.0317235
0.0451552,0.041054896766380605,-0.037356501456867384,0.014571728157586823,-0.00576102071385167,-0.0029384334081437196,-0.0221643855132016,-0.0005293965261951041,-0.031063494013132235
0.0456207,0.04056581467645501,-0.04109457133088625,0.015959964334556875,-0.003667443345568762,0.0015533930036706286,-0.014638068449347248,0.003375516874197743,-0.03011632167278438
0.0460862,0.04093424915591685,-0.050990041893898795,0.016759871160325145,-0.00037991895782762215,0.030578913985886812,-0.003261972217784048,0.007084094411750022,-0.029758250528729453
0.0465517,0.042818915622037296,-0.05954059645731624,0.012835073264582747,0.00048012464169386424,0.06739130355172261,0.0072001843779627055,0.020132831567627043,-0.02872463639079798
0.0470172,0.044052410609976056,-0.06719245472910876,0.0035570575600957833,0.0011381069842165172,0.09912723080879206,0.018690971926453807,0.05097764659313371,-0.025791287268028734
0.0474828,0.04276290604650684,-0.06821499590478917,-0.0032868978560851993,-6.139450948104957e-05,0.12604543757244394,0.02402280994909888,0.0748866837098703,-0.023304851627945287
0.0479483,0.040320255010015904,-0.06108890267421071,-0.012302522065244374,-0.0015495462340138224,0.1805301889377885,0.018105525840813395,0.09213459661243226,-0.022649863441496543
0.0484138,0.036889414643396186,-0.05089452937745582,-0.02563743942339666,-0.0020998858573584725,0.24524949062995158,0.004512585447267269,0.1046232281946196,-0.023748814142641527
0.0488793,0.03547580113366546,-0.039585705518466754,-0.039208129116811576,-0.0015344404534661843,0.2581133314590728,-0.0025553978825296306,0.1142357158419318,-0.024314259546533816
0.0493448,0.03462744085230752,-0.023161295240765496,-0.05309993383538382,-0.0009150112784612733,0.21954837018229764,-0.001434792485379381,0.10828348840846105,-0.023939223934615606
0.0498103,0.03578224587426975,-0.01161333102092137,-0.05829655643421388,-0.0026472188114046256,0.17739824488001074,0.0002973290477857498,0.0934154167505864,-0.022495717657162812
0.0502759,0.03562443579746915,0.003969816658431647,-0.06063608806751028,-0.0063378642025308535,0.13927025966244858,-0.008110854304002652,0.08102235828650597,-0.021963795645777374
0.0507414,0.033217520933225025,0.018464547181496725,-0.06186207465945471,-0.00882548522389216,0.12957826487393276,-0.019584464290667132,0.07530330531254578,-0.023653838366856205
0.0512069,0.03180165450503706,0.027370628946372134,-0.061944213122398104,-0.010160645494962942,0.13260457786752777,-0.024896043781866592,0.06480615498811491,-0.026211621890933293
0.0516724,0.03078991024610006,0.03478889928858349,-0.058334365846333135,-0.012580075849483605,0.1328373297001326,-0.025362362899433367,0.025266809207932485,-0.0280308
0.0521379,0.03169605766389931,0.03947061595925654,-0.055313874453668976,-0.014543440242671709,0.11713086443419177,-0.021435814064882756,0.007748049106393157,-0.0280308
0.0526034,0.03655572456092588,0.039356851595184886,-0.04911823807805538,-0.012283058318298463,0.08108550651647539,-0.013292312600171614,0.013549989879878462,-0.02649728811686504
0.053069,0.03216848477375193,0.04655538398198253,-0.04503584538108083,-0.012881737834437485,0.048616122335831215,9.564546343183793e-05,-0.028402061101434922,-0.026273607217239335
0.0535345,0.03277783199660493,0.04668820752761123,-0.04285390802037042,-0.014361663993209864,0.018837947587024933,0.0056503515335525984,-0.1325004150447448,-0.0277305239974537
0.054,0.03332364815400106,0.040225983377530285,-0.035221630253842014,-0.01527688349069961,-0.007624070322946868,-0.002391111890063408,-0.19446621397088026,-0.028508145900967233
0.0544655,0.03668769500433106,0.03561228873808959,-0.022009122323258478,-0.020547455630955207,-0.024877264948551914,-0.01945713878140018,-0.1906069443690448,-0.028375413124458616
0.054931,0.03999285497442278,0.02539124957928939,-0.0032196266457901615,-0.025981312541950484,-0.03423825301381554,-0.04519797613710926,-0.153966531452411,-0.024647614945260906
0.0553966,0.042747336643149204,0.015471002648054033,0.01820397808533006,-0.028980246193611083,-0.04691124152502693,-0.06490677358243804,-0.1208346487112176,-0.02072350256520797
0.0558621,0.0428016,0.007867746830149952,0.03714753903541562,-0.028393851898273908,-0.06874111548168438,-0.05917494303360213,-0.11712082355373123,-0.019679427847410863
0.0563276,0.040937593789736576,0.0009443325792811699,0.054865693591293674,-0.02201522592584403,-0.09218677358137153,-0.02587163267850262,-0.1104473245996457,-0.02036044001984429
0.0567931,0.03989763856838073,-0.0033911544648274157,0.06398965681085896,-0.01637915579377608,-0.10263075529060581,-0.005884581566217275,-0.09123998549250283,-0.02032446295187242
0.0572586,0.038156656300438456,-0.0076980993659318386,0.07012365517862555,-0.012087844577502078,-0.10845399921960842,-0.0068124995122552595,-0.06728327948059569,-0.018686156300438454
0.0577241,0.03547431645136748,-0.011176158873369917,0.07165222861898257,-0.010269796056280036,-0.11352928946421247,-0.015088323662319776,-0.05182416253466035,-0.01764357138101743
0.0581897,0.03246646413286377,-0.014785583040563478,0.06872186413286377,-0.010976190032678202,-0.11687860945384985,-0.0070150395720185495,-0.03973084439966678,-0.019099067933568116
0.0586552,0.028482677070571758,-0.021536413587629467,0.06397269581510252,-0.013238004184897489,-0.11820825832604101,0.010637220836979497,-0.016037659210536865,-0.023371625021876986
0.0591207,0.026650716496860776,-0.023368296202253946,0.06135560928122968,-0.01585509071877032,-0.11716142371249187,0.011160638143754063,0.002805285874261024,-0.026512128862524385
0.0595862,0.02148586269996995,-0.0228038272619413,0.05099204517725654,-0.01656982835042292,-0.11289948422062707,-0.00872119857603846,0.04514069548637644,-0.029356216491353705
0.0600517,0.019954024617748596,-0.021622486926622896,0.05346359847099438,-0.013806028860928724,-0.11122879419384753,-0.02142480443208185,0.09232040190680907,-0.02932341154437149
0.0605172,0.018266641980919495,-0.01942801619567817,0.04660187381212705,-0.005006046635663875,-0.10719869136406715,-0.02916553470124857,0.12297014790432849,-0.02579219506518123
0.0609828,0.017656414926348236,-0.017604828505704998,0.04018691483778361,-0.00012906470461662402,-0.1038599608580133,-0.031245795709933456,0.12283969044501589,-0.023976573905342205
0.0614483,0.01462936601060604,-0.01732954607857379,0.03093369143923925,0.00030988874479332686,-0.10328162493449881,-0.035460778361790624,0.09555076624273569,-0.023553871391142178
0.0619138,0.008836876834206777,-0.01939043848128738,0.008963722821109793,-0.011234418076470808,-0.103563,-0.03815903063098832,0.048003040424529186,-0.023622830759356308
0.0623793,0.00945449486916326,-0.019354439355467455,-0.008255188316732328,-0.021740700839711795,-0.1059322798415879,-0.03389114686925513,0.014880987477020534,-0.024242265653724334
0.0628448,0.006354477573232719,-0.015248104077594051,-0.026142736522438793,-0.019992041050793923,-0.10054340394016735,-0.022736752557961582,-0.017606255047519687,-0.023422685728420822
0.0633103,0.007110125312451409,-0.012575124062645776,-0.03370001204923826,-0.005242795000777466,-0.09607886500025915,-0.0113705434013939,-0.034454774723379336,-0.022731183125032393
0.0637759,0.008045593558921626,-0.016080080676764877,-0.03539660747055188,0.004873064043748935,-0.08875849065401853,-0.004425787963799344,-0.027806474388037402,-0.02173093511029497
0.0642414,0.010310316457766866,-0.01924739460589729,-0.03416968354223314,-0.0015834906273486397,-0.08417612911064125,-0.010747040189507269,-0.006766557054939162,-0.022782315408427956
0.0647069,0.009986072597238096,-0.0191841626738751,-0.041711984081675556,-0.013683031825100693,-0.07549042829982545,-0.024010461776811542,0.01799592140780045,-0.024444787124561745
0.0651724,0.011416912656195537,-0.017234216722046572,-0.05385174405157476,-0.023276719488003122,-0.06765534531989242,-0.028000495704827752,0.031319590130812223,-0.025793088103149512
0.0656379,0.011628134357648152,-0.01023210362820356,-0.06684893893342703,-0.024909748774795144,-0.05931391209561973,-0.03514369022590752,0.0498347003923162,-0.027508962569407387
0.0661034,0.011910161715413037,-0.00205331025302197,-0.0722073747192357,-0.01616698469580788,-0.051558201762947516,-0.04163031945449981,0.07211477764401783,-0.026380853138347857
0.066569,0.012253,0.008017295825540281,-0.0712460229221218,0.008559765319908519,-0.03985920834891944,-0.04352622918381138,0.1021637599643703,-0.02253762587809636
0.0670345,0.012258944009337443,0.01480505653687637,-0.06655286261536875,0.04400990627338691,-0.02560587503429746,-0.028704939834521465,0.11560148047720072,-0.01612680970709454
0.0675,0.012581152993133622,0.01788442993133623,-0.06401097380679074,0.0703700282988679,-0.011428934695216404,-0.01033327714324323,0.11041661850295785,-0.012015411089262903
0.0679655,0.01232198456483305,0.02046791411623234,-0.06448394264529043,0.06886451299280157,0.0054811696913814895,-0.023551700826837375,0.0891456285605295,-0.012549756464929361
0.068431,0.01168570721617892,0.021486018529688924,-0.06575657316211116,0.046466367535781664,0.01591673992931147,-0.04874963342086288,0.07412866428155737,-0.016622174118755696
0.0688966,0.010696064944181148,0.0232746315144681,-0.07240238305089078,-0.008314377304634019,0.029570616590898647,-0.07318067882044502,0.05889309623805961,-0.022283384387335518
0.0693621,0.011166123488554967,0.0250095,-0.08092432946350453,-0.057614294509254566,0.03489305277620798,-0.07194436481738802,0.050742223726077014,-0.0219687176506865
0.0698276,0.011409571039338645,0.027613264480330676,-0.087892021472425,-0.0864708977174463,0.0340734,-0.06344287103933864,0.028851795114604978,-0.020718965409559056
0.0702931,0.0112459,0.03002171071163089,-0.09286376874535406,-0.09997992677907723,0.032328441966276836,-0.05542688884824575,0.00020309696383118657,-0.019728147322092278
0.0707586,0.011557262458795193,0.02994764983518077,-0.08947789363725908,-0.08517182953027161,0.029597314651250293,-0.05044500334618968,-0.043488069480813026,-0.021847293079849596
0.0712241,0.011251164610017829,0.028723258440071318,-0.08121334290223295,-0.0649694626929283,0.026077143799329263,-0.0558016701088122,-0.0563440879474996,-0.024295984688105805
0.0716897,0.01185080877275893,0.02855101785512519,-0.07986138245448214,-0.048894371908267814,0.025109236840861606,-0.0639087961907409,-0.03841802691386193,-0.024943008772758932
0.0721552,0.012570287474121878,0.025495920939422063,-0.08074424646294741,-0.02972680389225924,0.03775478660645223,-0.0629285520719767,3.5580620091627685e-05,-0.023556257743824565
0.0726207,0.012576810009602332,0.024165565619022444,-0.07832756099834899,-0.015223874790458409,0.054542354685013957,-0.059317384316637044,0.026157482425383505,-0.021723911616024133
0.0730862,0.012082631574754798,0.020297794932945774,-0.07502356314950959,-0.008492152629901918,0.06286850460189615,-0.05803539515755893,0.038609042543588774,-0.02036337387779865
0.0735517,0.012430918027816732,0.013810363030972972,-0.07555648226629151,-0.0187242396470701,0.06679354479096798,-0.0498372729427405,0.013468703266259574,-0.022598915937990165
0.0740172,0.013351441346509188,0.003319725102522357,-0.07366374866027389,-0.04427905776162536,0.06489680576899387,-0.03965929326745406,-0.033527484791251845,-0.027153102508322893
0.0744828,0.015338690130859154,-0.004633084491350099,-0.06586124296144037,-0.06863655065429577,0.06390005355368265,-0.029741449266071873,-0.0720879063626105,-0.029900195105245754
0.0749483,0.01741214460995903,-0.00789137010136419,-0.05712315748887814,-0.07900382304979514,0.07308240658240761,-0.019966680671889815,-0.09089696821208335,-0.030640670444137035
0.0754138,0.017689423141406868,-0.009617334418120502,-0.04760813515650728,-0.07672311676466327,0.09420781713385666,-0.015054385600904269,-0.10107994155167867,-0.03035573279093975
0.0758793,0.016845363642297745,-0.01211480326999589,-0.038602758000422996,-0.07830786691229363,0.10659926553248047,-0.026728879992277202,-0.09579986805125873,-0.0303807
0.0763448,0.015521145940330543,-0.017838561415631806,-0.030692504485198453,-0.08577238959053139,0.09535238739546263,-0.052615685963770455,-0.05977278662470654,-0.030415963705761506
0.0768103,0.013892332047141354,-0.03273908853985016,-0.018418648659978953,-0.10153770456342084,0.07746940321152003,-0.08664101216499473,0.0013891173754714801,-0.02876238521275215
0.0772759,0.014202827547334013,-0.045752209558215885,-0.013024067673558046,-0.12067672793573346,0.06833295168559445,-0.0966835645072052,0.029034140126224035,-0.027337942515778004
0.0777414,0.013352554400924754,-0.053688092258035634,-0.009906399470057432,-0.12280236858781825,0.07300949620478372,-0.08563009803176155,0.026766745069132677,-0.027054518133641587
0.0782069,0.0105745,-0.05700320567799319,-0.0085603,-0.10105341700792096,0.0781058104274891,-0.05426445415356669,0.03258318872218945,-0.02851933810020164
0.0786724,0.010548057159731615,-0.05361517159731613,-0.008368591377285673,-0.08547496426040259,0.07134623293175328,-0.033314614555705814,0.05873578103334606,-0.029722521420134193
0.0791379,0.009976471972920783,-0.04789931972920782,-0.004224641339572833,-0.08633234204061883,0.05705668839481388,-0.024169251566732518,0.08388544411969126,-0.030008314013539608
0.0796034,0.00798363159898442,-0.041407290093765946,0.006704372857094713,-0.09795911510928079,0.04178621648970363,-0.011478584890719207,0.07287779034087412,-0.028445442999153685
0.080069,0.005141034764110434,-0.03692865937096116,0.021417054590351314,-0.1060515883760427,0.04107796903994233,0.004459418847821824,0.009925553857002518,-0.027805793752692563
0.0805345,0.0034387497193541284,-0.03312233658790092,0.03474674860293065,-0.09848694939828553,0.05111645084193762,0.003127130419851758,-0.02124880383587675,-0.02992442570161468
0.081,0.0029347647111471276,-0.030631989976546856,0.03752506436929571,-0.08308234149726292,0.05307122182825271,-0.01440723667448438,0.025985390948441114,-0.032446376120231775
0.0814655,0.0018371879838332877,-0.028873392537318337,0.03764488455478895,-0.06656577405710107,0.048020692842708296,-0.03163734858875005,0.08884212390652382,-0.03451001553190777
0.081931,-0.0020702977251152175,-0.023729164731811785,0.045085610076625204,-0.057828709310373164,0.0316897382854537,-0.0338232674952396,0.11032416248079834,-0.0346426899233748
0.0823966,-0.0067204277424360295,-0.019884776881303308,0.04374062170683721,-0.05855415900715787,0.0029143679130228957,-0.020143774259027677,0.0855750797827772,-0.030712081505042645
0.0828621,-0.010971178655932036,-0.016636540622105987,0.04070553041649198,-0.07217061185806822,-0.02151382910592203,-0.008719961821653948,0.06739930520941985,-0.02816676036656399
0.0833276,-0.01385369833369706,-0.01563829151501925,0.03914779977969917,-0.09360464468527441,-0.03379755983546691,-0.005134520302567377,0.06539949107441759,-0.027216354022189543
0.0837931,-0.018136014903590937,-0.013529024521770443,0.03839484875803409,-0.11184807047832493,-0.024390355574733985,0.001527129807181875,0.0347309490511724,-0.02609639254820453
0.0842586,-0.01864747653658135,-0.01473460254759203,0.03618603784837576,-0.10241039856431455,-0.005125338172154642,0.008147093985181429,-0.00502237852822009,-0.024713741831653247
0.0847241,-0.02452426440870623,-0.010132614925272388,0.025478970744973062,-0.04859510994201473,0.005174603605747898,0.008738926967919988,-0.0999675587955625,-0.025275348760310734
0.0851897,-0.026697899732024157,-0.010286013808648577,0.015375185093184555,0.02003002746550352,0.017849601044749724,0.008518557592069606,-0.2078784999643886,-0.027067585887764156
0.0856552,-0.025573313410464316,-0.0105745,0.004472275715803365,0.06804868042062,0.04023526348859418,-0.002562429403298156,-0.256292068451436,-0.028416587114442768
0.0861207,-0.024094843860454886,-0.0105745,-0.0030541944614678926,0.07382803582797923,0.055288283916227574,-0.008207342091069759,-0.23640055143428407,-0.028685392480527133
0.0865862,-0.021091085171462447,-0.011036948873616254,-0.018917496993728352,0.048003636360484374,0.06754724711513223,-0.004984733354212727,-0.19277844106260186,-0.030757457241552284
0.0870517,-0.01807729302082602,-0.010340068089624182,-0.03847335838817359,0.018692230842392927,0.06694453103383814,0.004657538506659363,-0.16813957788679737,-0.030988012507474634
0.0875172,-0.01248001181978273,-0.008896,-0.058161938264249986,0.00477719277169045,0.04826814483353097,0.012501358007774962,-0.1344943722010715,-0.03210998765285
0.0879828,-0.007630944072818937,-0.008896,-0.058987465425778374,-0.0045319,0.016569651215804945,0.020160329559004656,-0.07991582887563138,-0.03194770212792255
0.0884483,-0.0006749190845719797,-0.009448015318609913,-0.059718112336472694,-0.018643527655082606,-0.014552878717115648,0.016782349329879383,0.007423600783824847,-0.03329484297369252
0.0889138,0.002434221844136227,-0.009449115328509602,-0.05906820125475439,-0.027769430040779815,-0.046396098935222424,-0.011054460513391106,0.11195330524973442,-0.03538013235474288
0.0893793,0.010148288383775876,-0.009611979706141069,-0.05717379037252099,-0.03739066831510888,-0.0828988026443308,-0.046698397855129525,0.17176734759085618,-0.03399674103810174
0.0898448,0.012380155800248075,-0.012887082966100276,-0.05147890079672696,-0.042225220727390426,-0.10640449020128902,-0.06507466045036589,0.1651959117254064,-0.031974455315213916
0.0903103,0.01477158405057102,-0.017517104367251072,-0.049612593306953084,-0.030740821708605457,-0.10472490823565445,-0.06573452125055049,0.09545127770568967,-0.029224339635664714
0.0907759,0.014844147142836545,-0.021222447142836543,-0.0500471011801875,0.002678488343626597,-0.09187633827457156,-0.060698546576993063,0.001837538695603368,-0.026866279613471683
0.0912414,0.014312975270113286,-0.02080655969835563,-0.04660949402426822,0.02474670768861313,-0.07782779192232409,-0.0480048471632979,-0.06634109382973684,-0.02274352837966189
0.0917069,0.0158542597422041,-0.017530640132638175,-0.041515151823774896,0.013751289303649588,-0.06895994021391814,-0.027564339056571893,-0.10883930173925714,-0.02245671853349964
0.0921724,0.012776164001994007,-0.017386077167287385,-0.03998602853738998,-0.017355931430997357,-0.053989150836700625,0.00696187678728762,-0.109683484321099,-0.021237487368108585
0.0926379,0.00819499941588847,-0.020103213481366015,-0.03998877248409294,-0.03011874070521731,-0.04279084421385257,0.018861504110198078,-0.07931837848591089,-0.022469391504999364
0.0931034,0.005656481731626547,-0.023183310652799934,-0.04475446295033946,-0.02361301372926578,-0.029437390961024074,-0.003617987030040828,-0.04135724164473959,-0.024534478750371506
0.093569,0.004224587881352493,-0.023023791170863096,-0.04952969229592094,-0.013400035252214518,-0.027023493420978793,-0.03972415230512793,-0.03110813607459217,-0.026492131962703915
0.0940345,0.008361544361281783,-0.024507820345602564,-0.0500191,0.0035051490765796644,-0.03664610494289508,-0.05969641097062068,-0.04782463262865095,-0.02768053289585743
0.0945,0.013577286026449913,-0.02745869386226714,-0.04737779301717851,0.044469093391016325,-0.04052756411176249,-0.0618064356039056,-0.05163804286315189,-0.029252292919765503
0.0949655,0.01771263384584453,-0.023462465627966975,-0.04713586303805639,0.1066703374564844,-0.02654210441105437,-0.04946928173465088,-0.0028783572371035952,-0.031863243225789484
0.095431,0.0182956,-0.023213504802277043,-0.0629547364381169,0.17528510792849336,-0.006235550161176247,-0.03638969381186561,0.0713976546801676,-0.029354016494774045
0.0958966,0.018360319333245907,-0.0213066809976934,-0.0792121653072793,0.2107567505684266,0.004063353984710098,-0.024641617946354204,0.14307814237245808,-0.029129871020759392
0.0963621,0.020745862596378103,-0.018496864271683035,-0.08093859109431607,0.21481849710182618,0.0037944600904872114,-0.012624330415108475,0.2019928226414372,-0.03175652495089063
0.0968276,0.022864825424673874,-0.017497077252307286,-0.07382308794756003,0.2022297908950889,-0.0005456261324117964,-0.0012211368859531382,0.22000416311404686,-0.03424600070773792
0.0972931,0.024404022257098066,-0.02018528434240305,-0.06292886083247598,0.15966369293582588,-0.008024396578712827,0.009606450023531658,0.16878739556895705,-0.037665995198410684
0.0977586,0.023540252960156383,-0.018446730661674064,-0.05211098796623567,0.10770282096251817,-0.01744183555368613,-0.00013550824322004838,0.08926177681114394,-0.03707638740067357
0.0982241,0.024794014651534038,-0.024312241450069102,-0.04260380969867327,0.09420695873231985,-0.026683691525490612,-0.02964126359742944,0.031679024104726505,-0.04036091706831588
0.0986897,0.025493202882635825,-0.02187512867032424,-0.03877797737771532,0.09234175979913245,-0.03860363430886202,-0.05981700303866985,0.010978814413179135,-0.03924726282315223
0.0991552,0.026297310265720762,-0.018524721162727173,-0.03971614257990457,0.09247573777438978,-0.052273379977458914,-0.07201259176020121,0.01499935132860381,-0.03817511964570565
0.0996207,0.028942822934632764,-0.01319476177561206,-0.039689727373662914,0.08330979741074393,-0.07166709556096985,-0.06994714758145967,0.027684735018540504,-0.03754552300342273
0.1000862,0.03066491997392279,-0.010032879895691143,-0.03363581977834368,0.06676804722425156,-0.07885107989569115,-0.05555063297975334,0.02105086068643336,-0.035649433696876724
0.1005517,0.03039940263851392,-0.008340761418919825,-0.027657694722972158,0.05485126751689031,-0.07530819208445824,-0.03302345658675746,0.00165880509945835,-0.03164671665202617
0.1010172,0.02909164591005235,-0.008188769393298434,-0.03885339498942417,0.07593205652895188,-0.07001570606701565,-0.003946649375001478,-0.025491949568558703,-0.029217053033507828
0.1014828,0.02848494792094201,-0.010214581358980943,-0.05509659308745681,0.12085717003578517,-0.060817558803752676,0.028852880072930635,-0.05234776728135797,-0.026457246543728406
0.1019483,0.02790279112040582,-0.009602960140549894,-0.05965619424870457,0.16935133380340736,-0.06984795872722052,0.037393552979032414,-0.04610889071768057,-0.02422431856613042
0.1024138,0.025093691021143064,-0.01038331221194672,-0.05013651262280462,0.17653014516818993,-0.08139648135752296,0.007117789330181497,-0.008186271818974774,-0.021727433676655646
0.1028793,0.020792605096146315,-0.01039891042649444,-0.03391328957350556,0.09421352050872285,-0.0910616582847561,-0.03834929130890908,0.05707294739226166,-0.021194022710126364
0.1033448,0.017066377393473192,-0.010999047983951397,-0.02742039285313544,-0.04124748717753196,-0.09743448287792325,-0.06720976986430179,0.1221286937704653,-0.022539152207202026
0.1038103,0.017682314725852247,-0.021461161494007067,-0.03233473361240222,-0.14222163036788923,-0.10240616720505992,-0.08167627995208146,0.161634015642037,-0.024905577868937052
0.1042759,0.02210258602051857,-0.0468288682295358,-0.04116798169692258,-0.14315292919690842,-0.10439561954102297,-0.08410880361499955,0.1945836676352723,-0.02694309387694526
0.1047414,0.023988850233484595,-0.0762311848225819,-0.05036848765446485,-0.07966385611799243,-0.09687611844922897,-0.08191491341762107,0.2068698007973041,-0.027663349161398683
0.1052069,0.02495107875210821,-0.08360353794010389,-0.05734081589576058,0.003216579877028675,-0.07970534768728176,-0.06931507154836182,0.1607652866825493,-0.029744243620704047
0.1056724,0.027500407836028723,-0.07631255955180669,-0.05395399174128804,0.051270963346680624,-0.05742223071472762,-0.06542267478139249,0.04780272437324104,-0.03197284407130245
0.1061379,0.025196851991755708,-0.06413728860606863,-0.053817575580055635,0.06406834822087128,-0.03352780045646127,-0.05830659547874922,-0.05093802479512755,-0.03177220783567394
0.1066034,0.027283231454163285,-0.04816946034129268,-0.052719615401601895,0.08766647180063421,-0.02448936930720852,-0.04096773792665344,-0.0899276562518159,-0.02992258463520221
0.107069,0.027534363094344576,-0.022367703640159244,-0.05072688907952227,0.133644014054825,-0.024433010061753045,-0.014647334480631604,-0.060563510916979715,-0.024608224622390026
0.1075345,0.027985876058146585,0.0007546658871581474,-0.04687482394185342,0.1919247292347645,-0.04230575022223239,0.01156787690466385,0.020481645545181275,-0.01986677436511205
0.108,0.0283665,0.024617190157887568,-0.04055554545924715,0.2433552120071572,-0.06415180391522177,0.01885161424685389,0.10219568398097162,-0.0196384
0.1084655,0.02635506012617542,0.03551434659797881,-0.03614973767430212,0.2362495976349466,-0.08740460857684142,0.0010464920140915864,0.10072412137142343,-0.021937102830399555
0.108931,0.024501272206731765,0.046662921817170674,-0.029875193933572908,0.15370427293900596,-0.11340946801458733,-0.03646311501846939,0.061971483271768685,-0.022250907776189016
0.1093966,0.028288598720191384,0.04592803258160788,-0.025410670593621475,0.01138846052534799,-0.1157490957104753,-0.06120999507754667,-0.017284894346227462,-0.02255609011455632
0.1098621,0.031302966228824024,0.049923312604992096,-0.030561885316889054,-0.1012858002156539,-0.10642069093215456,-0.0707226797439069,-0.10242620356501733,-0.023106796101699564
0.1103276,0.03366470616254407,0.04428141740371302,-0.03226762546496125,-0.13041376972554813,-0.09539923790812765,-0.0649496158533622,-0.1486111055376743,-0.024156458294464035
0.1107931,0.035499660049188,0.027454027155841963,-0.0317235,-0.11805001403295191,-0.072628647664118,-0.04465906710665396,-0.19535523929497195,-0.021460599590099973
0.1112586,0.03610837355461692,0.015028340470726152,-0.030148867773084613,-0.08890936646573219,-0.05935466777308462,-0.029577598115184556,-0.20573578959186142,-0.017385301027840055
0.1117241,0.04025338645694396,0.00508216111155486,-0.03320802764619314,-0.07062570729812333,-0.057633637835254506,-0.021348711324436925,-0.18312588481361936,-0.014876997945750741
0.1121897,0.03440129021932723,-0.0023866589253909855,-0.031177298107905028,-0.07662234254381825,-0.07655069150700507,-0.024218227268391956,-0.1133654141872692,-0.015911116683781305
0.1126552,0.03309627692965428,-0.005434683101966348,-0.02737524617768756,-0.08945863145627939,-0.10101611871709479,-0.04184712623555332,-0.01797653312299407,-0.017840872497351775
0.1131207,0.040894605725203974,-0.00992660819204342,-0.028639511487884215,-0.10341695483998822,-0.11324601833265265,-0.057635562721303935,0.10098835331457892,-0.018709660640144732
0.1135862,0.040235653844514496,-0.017700295583088384,-0.024148540640764247,-0.09652911226820594,-0.1133604923579556,-0.0470756891555882,0.16993195835394145,-0.022056642883368126
0.1140517,0.03763224039314135,-0.022770139394322833,-0.020586000644592158,-0.0715908424865692,-0.1023986612821996,-0.025974088822624614,0.15787385437239732,-0.024797039426253113
0.1145172,0.03461186863325426,-0.025192985561159145,-0.016034290056058935,-0.029664320972083196,-0.08252324112792872,-0.001524315340283829,0.0690010833400585,-0.028280382385917024
0.1149828,0.032923132569656906,-0.02166533834990825,-0.012216464681107963,-0.025595546598990316,-0.07254837091956516,0.005828780190415253,-0.02587343256965691,-0.029979831195039344
0.1154483,0.025024638011279854,-0.015245541639043788,-0.009366099228069713,-0.08614241950957234,-0.06681691151887462,-0.001422907255527864,-0.08170022128936744,-0.029761365480136602
0.1159138,0.015177296009932255,-0.007810117470981031,-0.015710604239414467,-0.1836824984161414,-0.04716307035335814,-0.013098921695765788,-0.11686253837481751,-0.02210936112648904
0.1163793,0.005306233627316895,-0.004979836247827732,-0.018094918368162793,-0.22932179077103607,-0.0228926172101284,-0.013336125465113742,-0.13744838309506793,-0.013744273956623344
0.1168448,-0.001992019443257629,-0.003623369590163553,-0.013924354425940672,-0.23576963468887122,0.00670565020992093,-0.00014645675305931098,-0.14694810203330677,-0.007969368939524851
0.1173103,-0.0020876459337360593,-0.0037866757530049568,-0.001861364366748927,-0.2017612050767407,0.03615464085699537,0.015736466732646982,-0.10222420534818344,-0.008719673507961061
0.1177759,0.0020169764275546464,-0.008298703572190848,0.006679888908563877,-0.14091517792700894,0.046077601499454314,0.025128728092782007,-0.017956288268717924,-0.018113645953736247
0.1182414,0.0017676239853883762,-0.01706366209275958,0.007081604290903121,-0.07784247967279656,0.04324251649180955,0.03791941328913385,0.07007760553341769,-0.03026314901991943
0.1187069,-0.002344149107749294,-0.02388870092168702,0.00028159907831298023,-0.061866016397918944,0.040270648727299956,0.040991794587623136,0.10433724896286914,-0.040593437200520194
0.1191724,-0.005501655253614076,-0.027294049474934728,-0.005202902844746879,-0.05647876635912207,0.037374382880421116,0.019169985362502886,0.10727211855153013,-0.05061596186596481
0.1196379,-0.004947663764757684,-0.026004357071336026,0.0004580097666103132,-0.02069502452592151,0.03608121045284425,-0.011625271144413281,0.07581783930843097,-0.05198274536201522
0.1201034,-0.0024875351005694663,-0.02457711330904369,0.009794039231636749,0.05896499134364433,0.03785853032048181,-0.034908008482482086,0.019119765073304113,-0.04722786046709003
0.120569,-0.0026089988620145743,-0.02217268180144327,0.005085327273287811,0.1226978,0.04749848748216032,-0.03834807614987855,-0.0476731528073622,-0.03963001024186883
0.1210345,-0.0034621697367934927,-0.017622521851562375,-0.008565322007568217,0.1226978,0.056883367104728425,-0.031238318860054227,-0.08535473937002111,-0.03195147236885856
0.1215,-0.004671510515144778,-0.012705025916087026,-0.0279120627422831,0.04934260892637622,0.06609430911003582,-0.01982448807974626,-0.1073870253009066,-0.028250174083912977
0.1219655,-0.0036052587238496686,-0.013548678317682352,-0.029589573207552292,-0.06476532786551438,0.07127507531044935,-0.010959284500879086,-0.09059635781951372,-0.028390060841158825
0.122431,-0.00013109999458744785,-0.015817245295550227,-0.022166753506342524,-0.16393117048417993,0.07124167047876738,-0.0017232327521550163,-0.05723688875113877,-0.028854393725596117
0.1228966,0.006101450211828539,-0.01541753508368328,-0.026827174122397268,-0.1941841872625458,0.07358105789958007,0.0009824408169247548,-0.03825577193305337,-0.029728546491631674
0.1233621,0.01232990699607683,-0.012379241406924072,-0.050221944927227,-0.15681326554462374,0.07722701031169112,-0.0020557623536182844,-0.04068640687446074,-0.03003237585930759
0.1238276,0.021416034496735386,-0.007617899251439842,-0.08140749070171538,-0.08916452086487117,0.0785717556142012,-0.004861252777741916,-0.049896747948196804,-0.03132310074856016
0.1242931,0.0324046913246856,-0.00298908412342881,-0.10679410720125679,-0.042072856363994646,0.07827649747641507,0.0035527750786164135,-0.03169758091784741,-0.02769440326061374
0.1247586,0.038487753288046524,0.0008050197282791366,-0.11682203288046523,-0.013252178909654053,0.07471305646416629,0.010003606576093045,-0.0021539374151893042,-0.02169477426473446
0.1252241,0.038465221732700845,0.002137258956339605,-0.11934134987800125,0.011404966754668294,0.06501259628569783,0.010175942587674949,0.013124227235015077,-0.02118047735701383
0.1256897,0.03655556380009337,0.003355581007233375,-0.11590703666417997,0.054810912378926824,0.046300073857026613,-0.001100003707113324,-0.006048626407306738,-0.0273594
0.1261552,0.03936039723452889,0.007971991703586662,-0.10464299244548003,0.11535189433145614,0.02691698495546077,-0.025198204047155493,-0.05007646266183988,-0.036896004756798495
0.1266207,0.04015394112906777,0.011248740731851883,-0.0836784790417567,0.18754195885250313,0.022493063699006954,-0.04788981291378974,-0.08972018628036231,-0.04754501129067768
0.1270862,0.0405399126407798,0.012563496388348628,-0.06386589165045886,0.23046154875729352,0.0324102965405553,-0.0359010402455768,-0.10483018916504588,-0.050396581941743145
0.1275517,0.042760042841487544,0.011929173473860702,-0.044836204215821046,0.23902490810288052,0.04969554872152837,0.011038666471238046,-0.1029272204215821,-0.04722496736930351
0.1280172,0.048450146903148125,0.010464852223620686,-0.02930958392284024,0.207230387415765,0.0635756317976333,0.059688082373205345,-0.07932898566930262,-0.04135571274409374
0.1284828,0.05579994349227184,0.006723534947604106,-0.014152305588771065,0.12618460683765872,0.06484982081416531,0.07929085592175424,-0.03148671149751178,-0.03483082148013165
0.1289483,0.06552320922717096,0.001958724378765354,-0.001068329159325322,0.034981336332804855,0.0569242881511531,0.06582709878776784,0.0030145278787244785,-0.02986628599226908
0.1294138,0.0786848007650669,-0.0001293268514389273,0.004511715003967184,-0.05582081633358974,0.05307128080665393,0.02847003823058289,0.02146183777773452,-0.026525718428279183
0.1298793,0.08177162571654825,0.005013272656939848,0.016120398373488092,-0.12445843268395651,0.049369827343060155,0.017975759993245834,0.02061593020925313,-0.023053895507295113
0.1303448,0.07487441293953558,0.013385470174554753,0.02108705612408262,-0.16058911584225577,0.05154990526183213,0.026421527409573927,0.04117360457046179,-0.022065339238172946
0.1308103,0.07030425690972303,0.017631260471095263,0.023635270204994525,-0.12999225146073354,0.05839062142454889,0.04011264353081912,0.05759349182890639,-0.02456890428490978
0.1312759,0.1530378723190478,0.01466796357515281,0.016527548529360794,-0.04814762707328034,0.05191128241804414,0.03945529726127887,0.061016263777710085,-0.031710782184120684
0.1317414,0.3787923880024415,0.01517352788773596,0.016316893554606086,0.048251695494995805,0.03796342444173167,0.036754793747703726,0.030064262607061118,-0.044661687555826834
0.1322069,0.464265651045978,0.012710464359793576,0.011962210862275635,0.10816069266964333,0.025479932586826903,0.02748735716269628,0.00018461147407445385,-0.05062086408331555
0.1326724,0.38538745446580386,0.010058098587018253,0.012343350706490872,0.1261383179907735,0.026402494836939374,0.014511341468979484,-0.010022359784124855,-0.04535599250215077
0.1331379,0.2718733984133507,0.004737102443231017,0.01500384877838449,0.09894220353614003,0.027880549321324718,-0.007954998635620882,0.006236151486057068,-0.03161021788445236
0.1336034,0.1842554627983458,-0.0031337014517420544,0.02103726029034841,0.022427440199548114,0.017118339469190207,-0.046833864886035956,0.026519819128954767,-0.013297473526898942
0.134069,0.15299966329165415,-0.0068458613209992705,0.02395548491397517,-0.03660381038298321,0.0028297239155866804,-0.07219316398670338,0.02725158396299781,-0.007917112700153937
0.1345345,0.13453590908547627,-0.007866271095730895,0.02184969711875028,-0.04951176812116628,-0.002808142191461787,-0.0809241121222508,0.02371195780853821,-0.014140815679286356
0.135,0.098381134142914,-0.0065143268335024086,0.014796223178796617,-0.028565475470836925,-0.0027414170215547,-0.06805364145232558,0.02511315597134415,-0.02638407316649759
0.1354655,0.06475832069744372,-0.005129027060210388,0.005030229797549676,-0.018326162450043305,0.0027371753062990305,-0.05913188069219663,0.0306927985346964,-0.029343873428224143
0.135931,0.04329696955487251,-0.0050709932382029515,0.0014586055462173465,-0.02401904809550842,-0.000662885626921078,-0.034789094816535304,0.05019240259006123,-0.021212236681927833
0.1363966,0.02403526294174323,-0.00596258681577101,-0.00533771546848575,-0.026232197068289886,-0.011514898834025818,0.004128498315504988,0.07249722167101193,-0.008784771218352739
0.1368621,0.011103994358050873,-0.005481814351583913,-0.008425276879658373,-0.011388600565939183,-0.027195256945248263,0.05694326212611,0.08555708092864174,0.0023313195324456493
0.1373276,-0.002801467664208038,-0.004183001503990324,-0.010594297744014514,0.02748650507695121,-0.03916499262513257,0.08384832782382098,0.0649106436157194,0.005657404657055164
0.1377931,-0.016777713893960787,-0.003532943539815777,-0.011569384690276333,0.06681481826698397,-0.04192769056224257,0.07182225548659188,0.04605896265465754,0.0032196388807687877
0.1382586,-0.039076911708278386,-0.003989038449092334,-0.013249433227748245,0.07523048924079881,-0.027921494146333985,0.03679936803796309,0.04404234240460396,0.0013841254740351392
0.1387241,-0.051784318258338145,-0.006515124329869326,-0.01162919768775447,0.04912240099385648,-0.021552612271713432,-0.007993664477180194,0.035775582735518334,-0.0103186275497735
0.1391897,-0.06845109450638703,-0.012535938804714663,-0.014867531433017533,-0.0018256193675599375,-0.021175423260017964,-0.046353413004499674,0.021366164812264082,-0.016403879623803193
0.1396552,-0.08482557769863558,-0.012889099898895126,-0.01545376557300434,-0.06368886943061083,-0.028077271599996328,-0.07329399913224581,0.0057897911553557325,-0.015726971802206075
0.1401207,-0.09335564022219436,-0.013545309374296807,-0.01727119109961119,-0.13224732967083497,-0.03277973449836318,-0.07872042924844,-0.0018445685228183676,-0.018664086323595994
0.1405862,-0.09869472301868938,-0.012538446301864755,-0.020628271106856954,-0.18929346143173156,-0.02794760147197011,-0.06485894452898872,-0.007200112113086747,-0.018060735396262125
0.1410517,-0.10317904799674553,-0.00829224218752031,-0.020741555319047107,-0.23081997026315756,-0.009417287625011374,-0.03128230001973475,-0.014591383506593414,-0.007927686756564167
0.1415172,-0.10368503676395628,-0.00509348783063554,-0.01440153274619747,-0.22537855181451283,-0.001339984949443426,-0.0010717041437244114,-0.00816966913129818,0.0011808611026851885
0.1419828,-0.09411124391038742,0.0007800392773177314,-0.009588593141599317,-0.1781105986531987,-0.005680045190808006,0.037675876329304456,0.017861141092390627,0.010613998184927106
0.1424483,-0.0957395696718487,0.0017537810437807124,-0.016800417692914436,-0.10101429673421287,-0.014178772924179826,0.06472022527720171,0.01848724674430488,0.013852027075820176
0.1429138,-0.09026172789922841,0.0035524173193590245,-0.033762812919528686,-0.03451831930375566,-0.01261871340320488,0.07122563903854838,-0.0020940481176973274,0.014393129018129593
0.1433793,-0.08666086442914542,0.005419552310940479,-0.046832678404664936,0.017361082009417418,-0.0032830384452976038,0.0637571785281565,-0.020498585007352018,0.013993068390757679
0.1438448,-0.07907011262506282,0.0048338379535469485,-0.03967854681434987,0.08318915847664528,0.01405902489050529,0.03659614781629652,-0.018548353380102266,0.019386279243270306
0.1443103,-0.07956205732285604,0.008953050690460582,-0.020490564062038988,0.1297589101380921,0.029772954833224077,0.0021213598124880132,-0.0010650297630681433,0.0036647329039083175
0.1447759,-0.07429914239644994,0.010890492612673061,-0.009074040901384488,0.14256486113585362,0.0395431369366347,-0.02718039454018476,0.0347788077100468,-0.009447516702165577
0.1452414,-0.06361816953759822,0.010262829216297342,-0.0059617172805575165,0.12439523140794063,0.03952578723352388,-0.036090869537598214,0.08103479005621553,-0.02160452996214825
0.1457069,-0.05150732876985764,0.008009649538578165,-0.001737005384834059,0.08327487008668194,0.027978241385213095,-0.023980028769857636,0.10018673341827039,-0.026110805419028455
0.1461724,-0.033251644920534104,0.000982794148612304,0.010376623869503623,-0.02320372603696883,0.002026878741095648,0.002604608905121031,0.07047600869724716,-0.027310225268330802
0.1466379,-0.02980088045660889,-0.004350959079592136,0.037374223874968686,-0.1446632541346453,-0.018767554032731244,0.025438973826310274,0.028621626326560817,-0.029721885922205385
0.1471034,-0.02711600586107991,-0.0019779941111015106,0.06209008052984463,-0.2184482160635686,-0.027694854945440675,0.030907221582421106,0.004704172386786025,-0.035847143167643696
0.147569,-0.022222884263467087,0.003911010375980487,0.05864425679933488,-0.22673594481554213,-0.02630075879957766,0.02109698586421465,-0.024875841503921945,-0.04283734024829875
0.1480345,-0.022725554961575592,0.0024115822558368216,-0.007445478956226223,-0.20001964885748996,-0.01729610051945495,0.009447142087547555,-0.02431358068531228,-0.04942512572373669
0.1485,-0.020105718485749463,0.00239617797325292,-0.10268752842933067,-0.20446972656243004,-0.012685053848186092,-0.0009223761076770113,-0.016014355183239622,-0.0854440389872888
0.1489655,-0.02021780991641766,0.0024027192461389645,-0.1369846223875272,-0.2086297757956522,-0.009020250417911695,-0.00795758723854284,-0.014543170250747018,-0.10250928060868723
0.149431,-0.024236151508234424,0.008734577547593677,-0.10782056230444265,-0.15889752786376649,-0.019358034687925862,-0.028545139255040167,-0.013612791837095402,-0.12456343517358788
0.1498966,-0.030772876445811122,0.012760475041543087,-0.046945198595731964,-0.06964737001255641,-0.043233381018252505,-0.050637898595731964,-0.0021562698463840693,-0.1404643968664588
0.1503621,-0.03932572735523832,0.015482719659466732,-0.014602056813109617,-0.002416885985080112,-0.06123567978635857,-0.0660808430326823,-0.0037332196594667315,-0.153104409552646
0.1508276,-0.043776550576664755,0.018036304103550276,-0.015182889135585865,0.042901048740325305,-0.06455572034782876,-0.07210994578261473,-0.026125713359294932,-0.15132359589644973
0.1512931,-0.041454072374080025,0.019721093093520006,-0.03745280425910091,0.09693646197144182,-0.04842566565447816,-0.06833706300709909,-0.04798480955385908,-0.1348834284746991
0.1517586,-0.03643595677054252,0.017558446561603495,-0.04993376835941196,0.12136914032905248,-0.026144357568442977,-0.05765239500346574,-0.037512964589149655,-0.11797990535631843
0.1522241,-0.03392714880637699,0.011119381881333741,-0.04855598111600918,0.10959397718830886,-0.00969517240401163,-0.04571185036745023,-0.020976814145329762,-0.10530815744772114
0.1526897,-0.03698938422935806,-0.006315027476363467,-0.043436623542732936,0.07807063512949189,0.004782721599710188,-0.029284911610551467,-0.03209488816298859,-0.09137698612479578
0.1531552,-0.04398995294071737,-0.030349083298263885,-0.041357434667306736,0.051795664068858764,-0.0011487368546612823,-0.018002533282026664,-0.06248018422178393,-0.07849203482122674
0.1536207,-0.04854284127034398,-0.04535804762206389,-0.0409336730131081,0.04159636287455288,-0.013268810138555222,-0.015024703175859954,-0.0800641,-0.07293690714172603
0.1540862,-0.04966889246585501,-0.053117046232927505,-0.03296289297988379,0.019357100796276696,-0.026249755406211116,-0.018500695975913115,-0.07894747314169728,-0.06940060730236414
0.1545517,-0.046801990997710756,-0.051319970249031094,-0.02132395087240202,-0.010898491640919257,-0.02376902690560617,-0.020916918182622805,-0.06099684802703929,-0.059337825711599894
0.1550172,-0.04421205793908369,-0.046906730628556256,-0.013500361283786776,-0.037846865973392124,-0.01449682674663818,-0.0181812191961962,-0.03880114634667802,-0.04325691242676722
0.1554828,-0.040446653934073554,-0.04168021478725683,-0.008833145182980546,-0.0754114428891493,-0.006609716280863824,-0.006494678966030381,-0.018381303659610927,-0.022986730795835845
0.1559483,-0.03887655214064492,-0.03454319517974461,-0.008262183614379569,-0.10938348614001123,-0.0026129853006569828,7.129403243274937e-05,-0.006962072287591379,-0.01071114211136294
0.1564138,-0.04124535260242195,-0.01127392678635802,-0.012510761017058503,-0.14717832923720614,-0.006022727814309143,0.0020266309323036277,0.010908661772809101,0.0008906504237743763
0.1568793,-0.04532720256320238,0.008098866780173549,-0.017477821499138107,-0.1594257901350237,-0.01112656742758641,0.0030045267120694195,0.02851762671206942,0.006329732572413592
0.1573448,-0.04713045805142406,0.022064917751480954,-0.019718849894372805,-0.14080589611084074,-0.01370689790792359,0.008667568047427745,0.03349109002493111,0.0037379102281928692
0.1578103,-0.038667293537537055,0.020672754220763836,-0.02184189286349959,-0.10267041346692143,-0.016931454491761602,0.011881338774777686,0.008483702154154315,-0.0012808178711382302
0.1582759,-0.019057587909138772,0.017220179068637972,-0.03251745604543061,-0.03972269663704715,-0.03112869752839413,0.007812302471605867,-0.02070004152494678,-0.003847838744189544
0.1587414,-0.0034967414323291246,-0.0017883219401175444,-0.04133396831377667,-0.0008796414550881584,-0.04602666780831918,-0.004769180485029386,-0.04007205122395298,-0.0068467126539511714
0.1592069,0.010724867396257222,-0.020841979111519995,-0.05032573909945431,0.014834261058030946,-0.059042305377036496,-0.017033695133722628,-0.05607885081471708,-0.007431657530506423
0.1596724,0.022787855662048762,-0.04864512272755863,-0.05093430896159766,0.019305293675602526,-0.07082768909713533,-0.023506115011294806,-0.06992902738538942,-0.017457641621387462
0.1601379,0.03333199320989292,-0.06646978783843976,-0.04666641349361047,0.03135574727097158,-0.08162295410439706,-0.024761378384232216,-0.06465699600388239,-0.023482831026656947
0.1606034,0.05591068397297773,-0.0847639,-0.041261499533042006,0.10025954398064721,-0.09775230035021851,-0.025198408480469135,-0.04667091310853479,-0.028615705445242147
0.161069,0.0728559525326884,-0.08295277774566098,-0.04384234212317401,0.159598677262317,-0.09425911136148067,-0.011582201713184807,-0.03935403849222123,-0.02838822005869649
0.1615345,0.08014916843954546,-0.07605662087897493,-0.04806334394323099,0.1774346775383221,-0.0884527877678681,0.004218082405024861,-0.038511677237033026,-0.028329415064198064
0.162,0.09008725340389893,-0.06862940083714078,-0.05463103560259929,0.12056506713164772,-0.07416238138025175,0.027916096977287107,-0.03859052029402982,-0.03234621314168954
0.1624655,0.10727360865321663,-0.06744943649677479,-0.058818175295180006,0.00813255636028006,-0.05369938101935126,0.05020712312043865,-0.02991660802580168,-0.029835542310780186
0.162931,0.12168631092900843,-0.06746172338596938,-0.059066392760962205,-0.06058189123300968,-0.049015519907353935,0.06336847299451173,-0.023248859953676967,-0.014736996239577645
0.1633966,0.13396928224666474,-0.057014186927981894,-0.05680744777259019,-0.09333642533793775,-0.05522761862537699,0.0726865369583132,-0.026354909312688496,0.004181583924804917
0.1638621,0.14407999948792585,-0.03427042089236,-0.04748338764551784,-0.10607501172980181,-0.06338993453046396,0.07901954508925017,-0.03274257019768244,0.017166288929139642
0.1643276,0.14973179228450456,-0.016594693977093487,-0.03442289096943472,-0.10518769012314025,-0.06988007060380844,0.08154879529216333,-0.02382239675795354,0.01506097145010291
0.1647931,0.15166751814930274,-0.016282278832876224,-0.026796314025297738,-0.08993256856262342,-0.07537079027754212,0.08112464362986056,-0.000877015868705657,0.0029972328118128334
0.1652586,0.153753488810048,-0.009033308746228614,-0.021981212590735683,-0.06603025980854181,-0.08303383076421124,0.07230533112613259,0.013992672718374469,-0.0036375517433315328
0.1657241,0.1539178,0.023336261873776975,-0.019330927051687034,-0.04318467599089804,-0.08917388319543021,0.05167959771046238,0.014655199508500546,-0.0007911472967530033
0.1661897,0.1494928061920395,0.07710448877114544,-0.00789931593833939,-0.013658294641298037,-0.09100181993179333,0.0214116720867421,0.012185535470545432,0.009261945436442097
0.1666552,0.14557428861588845,0.14223001870937424,-0.0020132427390879993,0.0031397671976748165,-0.09420785795600796,-0.012336941065698725,0.008592554180356385,0.02715890163320686
0.1671207,0.14105988612560896,0.16852475253584054,0.008334835235856677,0.031408706781389475,-0.0941245197153774,-0.04055207211780159,0.009894183952031368,0.04917480039407302
0.1675862,0.13448666264852052,0.16101245146402662,0.015042246907119089,0.06454312063368223,-0.08849037383301439,-0.059735229536863374,0.009760075679354831,0.06929695548636283
0.1680517,0.12273082341289937,0.13149204682579874,0.020497329046474822,0.09532690002203976,-0.08746187587123425,-0.0678656468478385,0.00814377213124977,0.08551580750304803
0.1685172,0.10344119248101165,0.08733450729052582,0.025933437036086564,0.10720277811387326,-0.10514626689363045,-0.06281948529241595,0.008709298200337817,0.09770111560238863
0.1689828,0.08685631548414251,0.04215282741114776,0.024939880831990648,0.06687522423760114,-0.1334991484937084,-0.03785084750389988,0.017094122755978533,0.10437572275597853
0.1694483,0.07860885019102944,-0.0026337887035817772,0.020562822327687625,0.021363141360344323,-0.14548542380419313,-0.014314576184115857,0.026871473995222574,0.11610479122776991
0.1699138,0.07828945052048639,-0.04232483962084597,0.01652231519636349,-0.006174477567272941,-0.14536901736727256,0.0023691350518815456,0.03226683432824519,0.1311235808681183
0.1703793,0.07916432154951489,-0.06603506505934016,0.009542967367716492,-0.01562948368394369,-0.13720690774723265,-0.012944195793359273,0.018726807542005803,0.1358045399687207
0.1708448,0.07557159041125076,-0.06714043846951574,0.00387754788894514,-0.010654932877116437,-0.12781061632567833,-0.05550407693575369,-0.0008949494269156573,0.12019010120096973
0.1713103,0.06399887335783083,-0.06074932015889379,-0.0027916664411554515,0.0026171422425234963,-0.1110382337165769,-0.11887382953217666,-0.01071687176162988,0.07907697199169325
0.1717759,0.05031689336796245,-0.061637210227726176,-0.012957356252493939,-0.002377920726975356,-0.09266652789061168,-0.16892988540120432,-0.0001482836278004938,0.03745972534182696
0.1722414,0.03272761912895746,-0.09074825235848115,-0.0259261369967282,-0.0584394405617653,-0.08518429266775839,-0.20005138415591422,0.01886772803022857,0.003334991246989441
0.1727069,0.023529392737654194,-0.11600101790152985,-0.03141247674259285,-0.10265353484914823,-0.09122899699177003,-0.20381448840825891,0.02572270898772742,-0.008413975714756385
0.1731724,0.0033251241529482774,-0.1521290911847315,-0.03638179268381197,-0.12289891951059081,-0.10587850511407203,-0.1715135302943862,0.011225426357332445,-0.02643610999228677
0.1736379,-0.015273144588851057,-0.17969249578474233,-0.04150193201092798,-0.11191572988214682,-0.1163643672978374,-0.118514895797515,-0.010552401948589512,-0.038991179557681825
0.1741034,-0.026847708882807332,-0.194685849412236,-0.04741513411701866,-0.08726537623740405,-0.11534515517721136,-0.06000251988466471,-0.022137531118528016,-0.04479941776561466
0.174569,-0.029812309789368815,-0.19248649566299011,-0.0500218394877962,-0.05745133827977581,-0.10162514377847041,-0.04292256172022419,-0.01311983068207978,-0.0520937308601121
0.1750345,-0.025126049870868368,-0.18557897342259572,-0.05305181683235605,-0.02569678487016486,-0.08505569420690938,-0.07866555555428574,-0.0016192234420540962,-0.06861848541708067
0.1755,-0.011563218724526229,-0.176958327975271,-0.05770587372311357,0.023070629215190153,-0.06992807883065931,-0.13128810587148756,0.006570836497097793,-0.09723700609452425
0.1759655,0.013984935387492802,-0.15009741324888853,-0.054152829516040314,0.06939730134933113,-0.06844993380216041,-0.1539384779164204,0.008123113039336894,-0.1262526042861201
0.176431,0.029997864995562826,-0.12269474993555221,-0.048749437266685784,0.08852380728225215,-0.0735956959422133,-0.14507136070442087,0.010239939668881879,-0.14035142126889427
0.1768966,0.05897520692484859,-0.06867718366851833,-0.036430014144403285,0.1054301024817845,-0.0771404583130939,-0.09897309359565634,0.009045858087295076,-0.15107442121660491
0.1773621,0.07462305198958456,-0.04271560374065896,-0.02985248649030083,0.09975680454150622,-0.07106088343123404,-0.05105628626432424,-0.0035134435881642966,-0.14057100715305543
0.1778276,0.08380402412390885,-0.02815268242414459,-0.02320419632406601,0.08424422179295951,-0.06156342035689978,7.199520147866257e-05,-0.026307486994968207,-0.10859608591792844
0.1782931,0.08800303583378138,-0.0022628430966874563,-0.012180242602492581,0.06408606415083631,-0.06329748829961719,0.036042241275030175,-0.05079516499948614,-0.05284357274120478
0.1787586,0.09065723229444146,0.019656164980422997,-0.007837439686767934,0.04812645556686633,-0.06718314778299977,0.0367730983703099,-0.059515440078308016,-0.0056826691133692675
0.1792241,0.09800856434177822,0.01865934653098041,-0.020015791232130764,0.03319006192520334,-0.062049897895110596,0.010310606662979827,-0.05673817855274059,0.041157258912112714
0.1796897,0.10411112958586455,-0.0019730493960377527,-0.04151998219401841,0.022147411381749405,-0.055075537616154795,-0.01816794457786361,-0.05470399013804515,0.07515709214223674
0.1801552,0.1079513747006208,-0.027456014929568465,-0.07764804251410438,0.00959535519018322,-0.0433868333893111,-0.0501016966113699,-0.05911568156136875,0.08786209774123252
0.1806207,0.10764047754688587,-0.03335166072860401,-0.09226377628943117,0.004064057624011071,-0.03671340261742219,-0.06095606563004677,-0.06069184220162318,0.07478998942779848
0.1810862,0.10512865726088362,-0.0443230674245633,-0.10453045557064435,-0.0059830903440591145,-0.017524721434148006,-0.07493399132166813,-0.06722094450506748,0.03876191508297384
0.1815517,0.1039981291278195,-0.05246624434085201,-0.09172261495645838,-0.015369454617476613,0.0026583045438592656,-0.07222699935087726,-0.0651984963015378,-0.0015018049967077032
0.1820172,0.10602014129779558,-0.05688417100127641,-0.07629211623969363,-0.02391692969485633,0.019707599772449746,-0.0703684445422845,-0.042028293738572406,-0.027826108349825806
0.1824828,0.10724792870945904,-0.04080635635490432,-0.06116067536232997,-0.02840894820565881,0.04810542961621558,-0.07761584445405172,-0.003501408149245516,-0.03749586818496521
0.1829483,0.1000046409848788,-0.013117622786222798,-0.0476340184061407,-0.027431614026058593,0.06983408073253668,-0.07928563263968398,0.023593185647022445,-0.026533813140246307
0.1834138,0.08708495142862761,0.017554677856824887,-0.035555158570905,-0.027671953949518234,0.0806081967223503,-0.0718105602946204,0.032548325714313806,0.005017965336401655
0.1838793,0.06510040069816546,0.032922616345883865,-0.023742855047639257,-0.026217888557881295,0.0722556125483412,-0.06051679346164645,0.021071210505695784,0.03346025639447945
0.1843448,0.04616048321772227,0.035953010364426545,-0.014348723861054116,-0.024096612744901415,0.054982456913545086,-0.059304635854229376,0.003949529436378204,0.04497566339404447
0.1848103,0.02442367850731842,0.041032688505164186,0.0006703457703274411,-0.02692376689411928,0.03661847758823394,-0.07149077701032837,-0.024240652732682503,0.04094917409320099
0.1852759,0.006585467981672779,0.04927610092567053,0.012562459283588082,-0.03503208100191701,0.02986154916506916,-0.08797760185134104,-0.046673574586080194,0.024192072115261712
0.1857414,-0.02487957351660698,0.052355260423068865,0.028536498088235718,-0.05074926411764762,0.03130499810634224,-0.11109311318627486,-0.06125440947358959,-0.012075850887654773
0.1862069,-0.04626643007081139,0.03610664493840128,0.03463725926958643,-0.05940390148042869,0.03488930864276874,-0.11526012258584982,-0.04404095490028796,-0.030684055611013547
0.1866724,-0.08104995732192957,7.463467968373623e-05,0.0386831778044057,-0.06752317338545907,0.030033474481669473,-0.10485702541483041,-0.020392580527286673,-0.0466742443911886
0.1871379,-0.10594707733391263,-0.04116967443175174,0.03637304964882199,-0.062131042505591934,0.010637478428927925,-0.07981952784363124,-0.020057020705288323,-0.05469356447421041
0.1876034,-0.12264615748248738,-0.07053254189151335,0.0383869446374684,-0.05445470794811235,-0.005377281663070929,-0.06570569326449088,-0.032770807795487016,-0.06676706176179424
0.188069,-0.13601038283260528,-0.08594877887004168,0.04124194848667331,-0.04990236736358106,-0.011487928673855355,-0.06575228018718204,-0.04010080170951302,-0.07256166717296599
0.1885345,-0.15971314643646986,-0.08831464089762661,0.04784829872349326,-0.05050317004570375,0.00479619497988679,-0.08042870551462204,-0.04243019412522526,-0.07503176076325403
0.189,-0.17451012624463777,-0.07733137283224588,0.04800089081691223,-0.05477447630329999,0.03103412825096839,-0.0898865070594327,-0.05554911531940411,-0.07960816032496429
0.1894655,-0.18549287760572705,-0.03466708681379139,0.03592119360264249,-0.05952156520250558,0.05572533258545067,-0.09278349440143176,-0.07824032358455581,-0.10190944199364121
0.189931,-0.19268123380619068,0.057699452238554674,0.004695250199082323,-0.06652401254473676,0.05743909615721451,-0.09108601984959366,-0.08132216171938468,-0.15523260102309205
0.1903966,-0.20489033995072933,0.12376055621100959,-0.007923940189264905,-0.07569520080981428,0.03591863523617167,-0.09016476200164236,-0.08935111944514483,-0.20226404831940503
0.1908621,-0.20347314780068423,0.1515210593981153,-0.028645864613555904,-0.08797454322535854,0.028558481131175865,-0.09357757215721862,-0.0675459904815034,-0.2427645083108603
0.1913276,-0.19101702249948577,0.13303334912648815,-0.03930425513282245,-0.08912389014665206,0.04342827896703493,-0.09581383102656449,-0.040812584412363254,-0.2392694057258313
0.1917931,-0.1775323235952285,0.09942973620094177,-0.04005685038540461,-0.0746578041397389,0.0686184986573927,-0.09438001360015022,-0.025014564060134435,-0.18782562013920467
0.1922586,-0.15779866335840226,0.0519221847712369,-0.04678994475680405,-0.04956799136933533,0.09186951329762835,-0.08698638682391943,-0.004687807356652365,-0.11499392121587934
0.1927241,-0.14418223832421653,0.023254364339335455,-0.04585319804412769,-0.031509714966504385,0.08894462769458951,-0.06529264126417024,-0.0030670142649699334,-0.07330392098285234
0.1931897,-0.12373191686146194,0.003746579725598069,-0.041749580265164614,-0.0201195179378214,0.07477734379544779,-0.029440055369335475,-3.856052478197074e-05,-0.04947340510093902
0.1936552,-0.11482176993882995,-0.020771327480851996,-0.026795174651461372,-0.018707478834135094,0.07040111466785197,0.008737832723441122,0.012802384480433781,-0.035743470203808796
0.1941207,-0.10105201162387834,-0.05561524479626686,-0.016002341286880314,-0.022570830078124667,0.06688614916485476,0.028302886201405843,0.03111580466545192,-0.015689512661685036
0.1945862,-0.09214529408649261,-0.0871384160484936,-0.00965181358843208,-0.02653895857520713,0.06798476026723571,0.032715363239109965,0.04293838060659683,0.004006662688149635
0.1950517,-0.0810525955027725,-0.11417471749801963,-0.007273430498811785,-0.028225080643588196,0.08226160270859884,0.019588673078445522,0.03526393175244244,0.007289082791533177
0.1955172,-0.06653876108243409,-0.12238929843365796,-0.013769725543960736,-0.027746323796072475,0.10558936174892114,-0.0052333615673749315,0.023783376203927523,-0.018060810124237124
0.1959828,-0.05113100510841837,-0.11768860338621889,-0.0223875886716756,-0.03179410563507218,0.12282516579694094,-0.022599779374118622,0.019735594364927816,-0.045742525373975856
0.1964483,-0.0259229572837119,-0.10038140354102093,-0.03595780060633862,-0.04385547135814405,0.13402029066027293,-0.024346870751805427,0.014982450624003241,-0.08207371614811193
0.1969138,-0.006330464691769764,-0.08368367385757228,-0.04412542128406158,-0.05514021949940047,0.12428747650159601,-0.0005222478363930273,0.00957999335697274,-0.10950455622323474
0.1973793,0.01368926323205524,-0.06906234818943524,-0.04385150717897579,-0.06404014038907428,0.09995878082819422,0.04070475024813551,0.008571002591779378,-0.13701221139646763
0.1978448,0.031142496155247248,-0.05780192738823782,-0.03491894289010407,-0.06338226146847724,0.08051552678170723,0.06682322496710949,0.009162992354348507,-0.14699521352055925
0.1983103,0.053556589162236046,-0.03843709164421474,-0.026698104444756267,-0.05285722612028419,0.06416860491060802,0.07360569458960246,0.0013475655578683073,-0.1445582049445458
0.1987759,0.07080502234711926,-0.023498384669412772,-0.026492443412220186,-0.0428851934319633,0.058215898678495415,0.06078896712033027,-0.0026294736883669717,-0.1348668723668624
0.1992414,0.08127187456899437,-0.013133538918803084,-0.03205415114868244,-0.03566752594586872,0.0626162643498087,0.05569149207817919,-0.002458733066155234,-0.13664024581089768
0.1997069,0.09236090196398798,-0.010691243706944843,-0.037236388234135075,-0.03463532185347242,0.0684545274597058,0.054547367219791365,0.003855106445362095,-0.158735630778454
0.2001724,0.09558281259993856,-0.012777599384086428,-0.03733652497144612,-0.035305162542830816,0.07200988762849245,0.06563936153943467,0.004214711755593989,-0.18717644900887556
0.2006379,0.08775642313050534,-0.012942511898022773,-0.03292029615503959,-0.0354162,0.06964781130808224,0.07535683148596638,-0.0032903460490684854,-0.1859987961550396
0.2011034,0.0683276022932264,-0.006305768554766276,-0.0340455841715265,-0.03111567903651085,0.06873276626153986,0.07873513231136646,-0.016256476637427807,-0.14176107358392528
0.201569,0.04913037249673307,0.004919381698611359,-0.034771453982767264,-0.022904312143106446,0.07394072180568406,0.07057820885138819,-0.028383760566203786,-0.07846475738469474
0.2020345,0.03859828868541746,0.012587824872185861,-0.02720981182792444,-0.014570177282745749,0.0751713763749044,0.05708701043540913,-0.0311572794663453,-0.0358939899898436
0.2025,0.025445897936286113,0.005693016016164521,-0.01366292842804472,-0.006668527680486373,0.06869077203521504,0.04411281166432185,-0.023920444354728662,-0.00878540678933573
0.2029655,0.010713138792681496,-0.00911907564561506,-0.003711075090499813,-0.004412809255454206,0.05485088476386817,0.05025613175768828,-0.01590340676059103,0.005827063702181682
0.203431,-0.010558978685601374,-0.02596814778023085,0.00408316175158892,-0.0037690239255486367,0.04246711305716392,0.10747834932656732,-0.0070230537764060415,0.028439140508056716
0.2038966,-0.039041874252568054,-0.04737559232707212,0.01146123038278487,-0.005879121177992208,0.03786141309409247,0.19113212070919575,-0.006251927777874317,0.05741789751882721
0.2043621,-0.07844280611435848,-0.076367920296471,0.021768873498782065,-0.004606128129745146,0.04121667187025485,0.2979925982599054,-0.013001974962038828,0.08011293903362428
0.2048276,-0.11214747858767016,-0.09198174833939866,0.028751450919915426,0.0012980272997885646,0.04899185275974628,0.4257556475616958,-0.012110172332245265,0.09382981494015268
0.2052931,-0.12234423745320024,-0.0760658857260971,0.031532549414502405,0.0113228914929041,0.057510698438673076,0.5467040926559324,0.001063503063874544,0.10257314749223341
0.2057586,-0.11753097665886653,-0.056917346789840347,0.03080498587333836,0.01874293645581805,0.057677899694035355,0.6199066691055065,0.014465978661126946,0.10354265074895226
0.2062241,-0.1011969421590124,-0.03834768175458237,0.02743314174668241,0.025533436021052482,0.04679729797784987,0.6574732112380666,0.029921987537665083,0.08233240384516365
0.2066897,-0.07208990949461684,-0.007624248465622431,0.021976972673429993,0.035392410537162376,0.0324180289477558,0.6749455894628377,0.03811435524650064,0.044121838457093006
0.2071552,-0.05611219998614228,0.008336234698312652,0.018406413107304627,0.04210129643803161,0.03419545522160115,0.6656924728736671,0.02548333160002521,0.03991035962422431
0.2076207,-0.03379035180531556,0.019212005747291525,0.008922329751606641,0.053749910575682694,0.0438854013624222,0.6314896709812395,-0.0016639587703671304,0.05333619713877185
0.2080862,-0.02351101000966765,0.010722887172531944,-0.007150548487424892,0.06150895935442938,0.04977359166656595,0.5629708511468181,-0.02565130367513724,0.08008565240835203
0.2085517,-0.029290125405669824,-0.004833088098210136,-0.02005682330429406,0.0611860124808585,0.042993035079975817,0.4637623324497175,-0.030406397948810317,0.09801068040431857
0.2090172,-0.02349751556515798,0.009137937534363209,-0.030334035243063797,0.06810056338801114,0.028821836666152612,0.376103749245942,-0.02138902262076082,0.11000186878843841
0.2094828,-0.017193126517066698,0.0381423867316909,-0.03605686558140294,0.0799191469658666,0.01612984153258188,0.297664276863885,-0.00615096813570607,0.14570184694631508
0.2099483,-0.014121796287685194,0.05470713725670682,-0.036993208646567896,0.08596031607119752,0.0105818215365301,0.23776824366182245,0.002237622340668214,0.18237841705539432
0.2104138,-0.012455783546506815,0.07210106747881448,-0.038464765597241525,0.09131250598308843,0.008638672568662875,0.13455975539665888,0.0038400648256398176,0.2436881442440857
0.2108793,-0.012530893640801469,0.07620954219424413,-0.03832188728160294,0.09297982818513781,0.01049892689442856,0.07527886497704227,0.0013892083676479124,0.27747460824808856
0.2113448,-0.009527225944655698,0.06434163669911447,-0.03014244059772957,0.09170176064829995,0.0267046193454162,0.0032607456261341643,-0.005184368866413164,0.2947059196777262
0.2118103,-0.015170944274971898,0.05509339991065011,-0.022963158924713404,0.09010920229001124,0.04049027290117834,-0.03325300308642174,-0.005539,0.29167683038785686
0.2122759,-0.008627272250642564,0.034745886915845785,-0.013342925632146008,0.08283517826875203,0.03724664661849656,-0.1035098115092026,-0.00158071413513819,0.26032041624015484
0.2127414,0.02520757833456683,0.01389949565286932,-0.009824499452538696,0.0761369323904118,0.006152909878091681,-0.16210986886363873,-0.002232971549555279,0.23682949213634572
0.2132069,0.04024799955981104,-0.007751202832745015,-0.010869160408673764,0.06859602631662033,-0.03053704109080736,-0.21246733154192138,-0.006069686841689836,0.2248599916679822
0.2136724,0.013770682267601145,-0.03357924506153329,-0.016083035817847355,0.060419876811549,-0.039885929399476154,-0.26231437542332847,-0.005065964182152645,0.21176822119096106
0.2141379,-0.0009137430430397192,-0.04380067546502151,-0.01883932384574962,0.057742522352600016,-0.02998249311181608,-0.28746729221195955,-0.0018053311968057677,0.19240440832398759
0.2146034,-0.012951853049067525,-0.04099743315055586,-0.01760528159949784,0.057117806900188306,-0.032078118400502155,-0.3302073742979649,-0.0030996090526272555,0.1499223820008425
0.215069,-0.02071083131634495,-0.010090152047619007,-0.010784750201073142,0.05945374340032472,-0.060183561078614056,-0.35994716115173153,-0.012669143180972196,0.10169282745890497
0.2155345,-0.05399943699712941,0.01840494064902165,-0.006204317067796211,0.0615771489103013,-0.10241912914263376,-0.3800721578305078,-0.019126513254238316,0.024241099610954484
0.216,-0.1088743341033202,0.013262757544481684,-0.009275481001528783,0.06011920586267321,-0.11297447317933595,-0.3837265692730052,-0.011805861452400972,-0.05148057851041533
0.2164655,-0.15715661787682372,0.005415376296359764,-0.012356312022865584,0.05651103003574975,-0.10711560887430935,-0.38401033176553867,-0.0028892197426730833,-0.10179210314855625
0.216931,-0.20256737045151502,0.018986395419883596,-0.017107328666409245,0.04999913990530568,-0.09069511659621826,-0.38754268102885464,-0.0009966890648374065,-0.1309431542963346
0.2173966,-0.22533231591735903,0.04771012567706815,-0.021405935162933792,0.045117179245303146,-0.07583710843939707,-0.39325020634645996,-0.0030178070153084394,-0.1424765203770768
0.2178621,-0.21927786361866666,0.07341835172383837,-0.02546253864831347,0.037712031953873265,-0.0675953624319265,-0.40241013362446154,-0.012177987314011617,-0.1582205500532501
0.2183276,-0.20700201323340986,0.07505930138699529,-0.03307996893847753,0.02653185863742594,-0.07417154094698794,-0.410747595958558,-0.029186472839682658,-0.18374269163920443
0.2187931,-0.18700604647438618,0.0554241466875924,-0.03696424867401291,0.011317989915741554,-0.0927994378112805,-0.4142248726993904,-0.04936021450944691,-0.22145417911099938
0.2192586,-0.16121805112916082,0.02691763194507699,-0.035018439036143156,-0.004389724199495628,-0.09340257513252884,-0.4117131808159162,-0.056305246991312445,-0.26664892835080434
0.2197241,-0.13465615993611416,0.0011464264535220035,-0.03727124452693662,-0.015013166976012312,-0.060470565043376764,-0.40697722207786097,-0.04566995501445892,-0.30543952930336643
0.2201897,-0.1111779950217794,-0.022792812114844848,-0.05011135494857094,-0.025670437378980462,-0.030507730220259672,-0.40186882252571454,-0.032975518678441965,-0.3398767220119867
0.2206552,-0.09567605780451434,-0.02727764741822807,-0.05582191131820392,-0.03303353197958721,-0.032437531920388646,-0.3989548652910663,-0.028366669411503204,-0.3563890383638337
0.2211207,-0.06929569954490858,-0.014494472480147923,-0.05120942479285439,-0.039493562027248595,-0.04677340119344864,-0.39608983674591214,-0.02249705173267745,-0.3765515084543123
0.2215862,-0.035510373381368414,-0.0028571297256595185,-0.04382522160342066,-0.04538758582799422,-0.05400347141403206,-0.38885302927679194,-0.013654443690754097,-0.4010405061198573
0.2220517,-0.006091651857419757,-0.0076234420179577,-0.04056968132535214,-0.0535256560239436,-0.04107109756499007,-0.3683363508783704,-0.01003582899102115,-0.41263457002992954
0.2225172,0.013840790963527316,-0.009958012402413549,-0.04671713714559176,-0.06482011950760971,-0.001130679992539786,-0.32937767622246006,-0.011405421938736747,-0.3931770323449866
0.2229828,0.029268718880694544,0.010395820279456746,-0.04616437692305859,-0.0733467703296808,0.03555371648352391,-0.28698397482571414,-0.0072748373626329976,-0.3594063715290252
0.2234483,0.046062685405337,0.034739932862640426,-0.03164356876232326,-0.08144805550798302,0.03816619336139912,-0.2437857691628488,-0.004450686817415714,-0.32812361304145526
0.2239138,0.05914342206415897,0.0382103323843687,-0.014959074959400964,-0.08892268264862713,0.010670030518476495,-0.20400989013227508,-0.007120224911052851,-0.30676738781389806
0.2243793,0.076905893925263,0.02185549064524236,0.0027494862105156845,-0.09971111572120978,-0.024752183993152346,-0.14153856074603857,-0.015852500291715133,-0.2784057942109009
0.2248448,0.09736864615914677,0.01486577777632617,0.009988679126468185,-0.11043484951074256,-0.033829840359373205,-0.0663345859522751,-0.0258848334140454,-0.24202278840045285
0.2253103,0.11577568367797554,0.038964172041574506,0.012091662933649217,-0.1156481,-0.035040615447327096,-0.00014328981350086867,-0.030804862664005755,-0.20529854313610912
0.2257759,0.13195991942683555,0.07584119572050198,0.015926635303286838,-0.11544925687291192,-0.03882291078177202,0.06286555530429273,-0.025221851191900218,-0.16228872313216325
0.2262414,0.13951184628043523,0.09545192407689324,0.01994628418330278,-0.11447480533455995,-0.039066523666360015,0.09867650420147148,-0.014746569723244635,-0.1259905484658085
0.2267069,0.1497404587378202,0.1050751021639546,0.02348052270310102,-0.11887245242984336,-0.03581938666692075,0.11146204287739574,0.007348406124089879,-0.06359677585006997
0.2271724,0.15711849571705822,0.10190778269380318,0.02350360780272741,-0.1242295938418865,-0.040397664299000206,0.09671441091752556,0.023807447620293964,-0.03765907131516206
0.2276379,0.16552034299847754,0.10069413558380527,0.0221563435337297,-0.12623690275972585,-0.06263340345802121,0.07441421519838673,0.03958423385479468,-0.029259573762709847
0.2281034,0.1650743428782608,0.11781939529456484,0.01883991705056251,-0.12285789605547227,-0.08854405229803121,0.0640681670441537,0.04081641845018702,-0.05549106081690365
0.228569,0.15699153039932826,0.13345851853837382,0.01417904931509334,-0.121095073219152,-0.1050664080472327,0.060610805434266196,0.034280497373941794,-0.12032314506849066
0.2290345,0.14603473068620298,0.12343305314248391,0.007910873750897348,-0.1229967691279862,-0.08653927569960729,0.06260057458098676,0.02377481571660095,-0.18684240342120012
0.2295,0.13739535258042065,0.10019138442021747,-7.351152690014445e-05,-0.12576538272914078,-0.05595477750017917,0.06486422303430926,0.026166163145105163,-0.21956096261061672
0.2299655,0.11996877310556242,0.05195927789263362,-0.007369549190509067,-0.12548806090975886,-0.024180120200535858,0.06390123484959812,0.029527626060160756,-0.190695521173946
0.230431,0.10358095822462302,0.01933534279345454,-0.013135664012306413,-0.1227567433625917,-0.030249714749796226,0.05934903893765283,0.03134850442493887,-0.12742031440512927
0.2308966,0.0947079939123301,0.015196850363828115,-0.021965596631592317,-0.1140103136613949,-0.0614559198583182,0.04334150083690964,0.017097570817703384,-0.038365540629980176
0.2313621,0.08328358570522489,0.052805908299812625,-0.026837172481717717,-0.11049850207911006,-0.08066077950847324,-0.0020325590169464735,0.002753251160187072,0.020397922151534523
0.2318276,0.08327507937205193,0.09582253144941329,-0.028101931088824826,-0.10492733945676416,-0.07889795393498725,-0.06445402968972254,0.0011280661676541877,0.060451924715887756
0.2322931,0.08589847007486624,0.11201624736597007,-0.029249597639528717,-0.09970070987120426,-0.05298028624477077,-0.12242622405575262,0.014711025263090274,0.0779200972102096
0.2327586,0.08853863531292652,0.1129152221286126,-0.030414608908169393,-0.0963249600550486,-0.02718270894429868,-0.153498067620334,0.026620194417100732,0.08236765842854284
0.2332241,0.08867574396504622,0.10835523388283079,-0.03253191930559991,-0.09667087448713854,-0.02141965141784672,-0.16105647477883,0.020392004214153617,0.07110296759606173
0.2336897,0.08600779626176068,0.08822783506304667,-0.03433039111114397,-0.09649850409133366,-0.02104980705537158,-0.174525261198714,0.007156933087021387,0.05501315149965174
0.2341552,0.0816191824156827,0.0512220790409577,-0.03385512480336058,-0.09443739120784134,-0.02297873724961476,-0.18682819722160993,-0.0028036884294512913,0.04982863280896154
0.2346207,0.07909226900389568,-0.006274058523335362,-0.0337377,-0.09037049804862442,-0.012117155937724245,-0.19937284406227576,-0.00880782749026079,0.062048729641994
0.2350862,0.08155334649599263,-0.07087405678873106,-0.039978566239981604,-0.0870264917005232,0.0072733172114298845,-0.20643765286397978,-0.013264606367987123,0.08021445101040646
0.2355517,0.08762144329392732,-0.14157300533475886,-0.05136984990094658,-0.08332380633805248,0.025165065670551705,-0.20962057814854979,-0.013215307552212324,0.10530218780201449
0.2360172,0.0932454264386742,-0.17428006133113044,-0.05912156626460159,-0.08084418839747096,0.028374268049325736,-0.20789152700529254,-0.010807412893593377,0.12382669141221146
0.2364828,0.09857084633409909,-0.1862746081410852,-0.06607315937913599,-0.07359887647058982,-0.011627736036978507,-0.1844316963582382,-0.012556424338693572,0.134262282268387
0.2369483,0.09905075772700622,-0.1829422043472744,-0.0678759950004188,-0.06712621065146919,-0.07409292285232374,-0.1362812566328897,-0.01758768915149287,0.11398574078480136
0.2374138,0.09652782406916802,-0.17752290228847678,-0.07207001641333027,-0.06129404813833601,-0.1283970924681769,-0.07573896573848825,-0.029134284688324533,0.061957628897886925
0.2378793,0.09459018145891349,-0.1762864143601975,-0.07658565805478203,-0.056963355623259555,-0.14882504832869217,-0.05838855478498623,-0.04319454262737389,0.011814044496447901
0.2383448,0.09549345312249174,-0.17839395855151532,-0.07538129583667767,-0.054253540632524765,-0.14159887502006605,-0.07314190226639977,-0.05042062624563523,-0.024166052543507684
0.2388103,0.10110058490396957,-0.17517369751309506,-0.0678551535715735,-0.05183538507857035,-0.10964490185176928,-0.06560276798780358,-0.03976529253928518,-0.03931990510374597
0.2392759,0.10552977422068173,-0.1670167741846374,-0.05966538322918874,-0.04663740722414784,-0.06541551025470976,-0.03580338177351933,-0.007852313910139266,-0.05037939277585216
0.2397414,0.102115669136581,-0.1597275167730395,-0.05467926509962527,-0.04220936980074946,-0.03782701878502082,-0.015964708060918386,0.03078451609587796,-0.028949161752824158
0.2402069,0.09531335809166555,-0.15229790944841734,-0.05579758767401928,-0.040858821911853804,-0.038819004118959846,-0.023677843437944435,0.037242579436099585,-4.312768457735445e-05
0.2406724,0.08381068011403618,-0.12608285004201478,-0.059016148495483374,-0.03730801954956057,-0.040552748495483376,-0.028653924810790977,0.03447870714416507,0.04441379051960818
0.2411379,0.06703789106573614,-0.08333143714713397,-0.0703736370063925,-0.028885095344768807,-0.0405078901919881,-0.019632501473258044,0.022282023416897445,0.0907888769399106
0.2416034,0.04939271330593663,-0.05445850879856065,-0.08589458430525637,-0.021733838636978316,-0.040420953326484155,-0.00784345438576865,0.013979343198400999,0.1258251554720765
0.242069,0.03332106116567732,-0.03889907644808506,-0.09941804483770757,-0.01746832927216248,-0.03837567522578027,-0.0010055506643496782,0.011503669435184516,0.14432788119311882
0.2425345,0.00609661378905053,-0.02549468540438764,-0.12249514998768145,-0.009768253562876113,-0.029670772446536032,0.013349997624749258,0.01487759708395031,0.10640753169409467
0.243,-0.015235633027394335,-0.01541047705483855,-0.14474833015924915,-0.003076409560483938,-0.02762819713185482,0.015239196648337273,0.011582146151197376,0.03285753828016715
0.2434655,-0.019114470280869593,-0.003498097458837758,-0.16405616265738288,0.003748153101510343,-0.03574131058433043,-0.009032216690494426,-0.018447294405755755,-0.01576027426555281
0.243931,-0.0002123916801419429,0.01521517587921283,-0.17732431731361903,0.013484791188670403,-0.03639699752936435,-0.04693243259807925,-0.06104297865888867,-0.03206972952853269
0.2443966,0.03220422677524146,0.03469638195197997,-0.18340251451842846,0.019095391908138436,-0.027357696370221406,-0.06625774222547541,-0.07226408724705323,-0.019757624375085808
0.2448621,0.06450420645073587,0.058246516819455287,-0.19140262697196417,0.024927486386391667,-0.011141770470820402,-0.07028055585251224,-0.05017925876579593,0.006836372671967527
0.2453276,0.08540446865808007,0.08144207035175394,-0.19848428263536616,0.03240534596262003,0.010036136194186217,-0.07947308012018775,-0.01988131594219055,0.014813528733601486
0.2457931,0.0944952687912941,0.09921017728862754,-0.1992029517966272,0.03994527659347057,0.025007584395647046,-0.09466024538476467,0.006581847470235583,0.001015682648259556
0.2462586,0.09846696956896944,0.109263507909926,-0.19101139288705626,0.042924052176727075,0.026993434784484713,-0.1016107217456965,0.034755988945293324,-0.0079205701571255
0.2467241,0.1069482855445254,0.12195319321118664,-0.15832819431606127,0.04483747408625732,0.026395172844746576,-0.10667179773706222,0.07983698780746319,-0.01873249598136644
0.2471897,0.11892233478694039,0.12443550913795833,-0.12494674902350539,0.047009623178451344,0.04013999397551148,-0.10767434725861251,0.08982694908620417,-0.031652549729143234
0.2476552,0.13375124525378818,0.11920090385777077,-0.09726276984142797,0.04987786094129839,0.07489042942213428,-0.10885191197388315,0.09271147040186171,-0.051440352489319115
0.2481207,0.14546881702902292,0.1137745343306754,-0.0826528439439428,0.05127756161069745,0.10412230619237198,-0.11030494244792971,0.10507320560672015,-0.06800518985316069
0.2485862,0.1516208050657983,0.10353859319902312,-0.0676710240308629,0.05630612995613445,0.10450976874653967,-0.1103291308318398,0.10865404806172582,-0.09157883675711134
0.2490517,0.14323566859283685,0.0949676064763411,-0.05547956157415228,0.061383354555467694,0.07844459065645445,-0.10658184412723518,0.08278324234471768,-0.10438165839721451
0.2495172,0.12289666389979555,0.09095081151186939,-0.046449743010914105,0.0636149,0.05730875575593469,-0.09843659573028538,0.03394412506596687,-0.08890394021316658
0.2499828,0.10930374098607898,0.08990519606709937,-0.03978398348465207,0.0636149,0.05678594803354969,-0.08876473073445632,0.0057125859254702725,-0.05831984419023095
0.2504483,0.09565044836986956,0.08769733973327122,-0.025321098885009562,0.063564694845458,0.07444087525757,-0.06730586740026234,-0.010396781527102432,-0.004315713624861498
0.2509138,0.08941462655969898,0.08543286141206921,-0.014360314340984257,0.0630268153530173,0.08361948939457631,-0.05153345251813998,-0.013725650205387532,0.02890660363735712
0.2513793,0.07540607178741136,0.08428389356795733,-0.011288364486782266,0.061638447459851205,0.07791709119114988,-0.03482431924726256,-0.02927520702281184,0.07517764079885672
0.2518448,0.045743214784111634,0.0799925072032346,-0.0189753639706215,0.06156559437774599,0.0621623702889552,-0.024899958391572833,-0.05249030376883584,0.1193491639706215
0.2523103,0.01634277194411103,0.0674917097652748,-0.027079027975369062,0.06292507841376886,0.05100566781221983,-0.021034414935005404,-0.06711919790379309,0.13789838174938038
0.2527759,-0.010064498726316533,0.03154353728316887,-0.03938387762636817,0.06424401477886416,0.04630649827397546,-0.01594165680641813,-0.06535682468267032,0.14009067216829624
0.2532414,-0.028105049867219487,-0.009089542557326328,-0.047877625999035424,0.06334456253319513,0.05072757493360974,0.00015071485715499947,-0.04630641020923526,0.1384813527665616
0.2537069,-0.03410178905273997,-0.021332810630316047,-0.04437960257159641,0.06184537773681501,0.05372594452636999,0.014018137008280486,-0.02944061846534953,0.1338588290956656
0.2541724,-0.0421435201130443,-0.020669571583730593,-0.030062840871993922,0.05880291377014301,0.03837260196121068,0.029523181639809316,0.003751744815249413,0.10710268731508428
0.2546379,-0.0521579451322429,-0.012295737387322904,-0.02188655066854387,0.05575204535007839,0.010111428429222987,0.03360991094878879,0.037282874992575966,0.06608429381000323
0.2551034,-0.0694001554344681,-0.007281017198231634,-0.02313447430516181,0.053271717198231636,0.0034702469378615442,0.037373048610323624,0.06330534904762669,0.027560974843467177
0.255569,-0.09827540994633446,-0.004844503197878822,-0.026005854848373602,0.05076591279151529,0.0327803611123956,0.04591049523264467,0.06980076590837583,0.0014520616254541396
0.2560345,-0.12705885992253022,-0.004234206283253767,-0.024591442205710873,0.04981319371674623,0.06296261917182308,0.05917490912443981,0.06010887578992838,-0.0028343416736505977
0.2565,-0.15183675063329144,-0.0047431899328717626,-0.02097883610740518,0.04934646805370259,0.07954410508591298,0.07575171355695363,0.042071307353282926,0.005118784026851295
0.2569655,-0.1694792884829395,-0.006464682559301118,-0.018809297791510783,0.047816711991674865,0.08340593708988699,0.08556244127965057,0.02374322745109939,0.003972485944233974
0.257431,-0.17622210601992538,-0.010516608228235583,-0.02183999398007464,0.04265939294722664,0.07294939544076533,0.08693299843271704,0.002975802885359421,-0.001994606019925358
0.2578966,-0.17108294005329513,-0.016196828088847225,-0.026979159946704877,0.03779063306670238,0.06050708965334869,0.08585105179260052,-0.004327256361503822,0.0031445599467048784
0.2583621,-0.15861726308847135,-0.028939089062835474,-0.03127236754976729,0.0337871103860606,0.051116650180630434,0.08817314909400296,0.007525724554791669,0.017729025264577904
0.2588276,-0.137609999780529,-0.052731000219471,-0.03344007606140964,0.02921431120167467,0.05447866778960351,0.09232054794748748,0.029477690333566356,0.029068991508722872
0.2592931,-0.11967057102993402,-0.07043211193939607,-0.033687527206926166,0.025169598960672394,0.07007132554285915,0.09364108333438191,0.0410257170306699,0.02653748162077849
0.2597586,-0.10048633204693819,-0.08162700822924493,-0.03175914956497922,0.020226479831012896,0.08109671997947751,0.09366923633065956,0.04810477883325282,0.021893808822879772
0.2602241,-0.08467306160809193,-0.08439403090722049,-0.027191822314899777,0.016508362621058773,0.08193087191159089,0.09709643703670558,0.05518823341127642,0.019160338158078816
0.2606897,-0.06494688182609076,-0.07984436039363703,-0.018921015086998408,0.01165124507636426,0.08817844289422781,0.10398519694240951,0.0671334011057284,0.006812843325456182
0.2611552,-0.03743095908769709,-0.06446017381526946,-0.004207711870739518,0.004498505891073319,0.10038219561124447,0.1148644350508345,0.08784049967501154,-0.015321527775641199
0.2616207,-0.021196520469153008,-0.05174313376048184,0.004991768419624182,-0.00037176927425629897,0.10159974425249343,0.1256874478634197,0.10678069149670191,-0.024926911346643706
0.2620862,-0.001256065599111175,-0.03712378116822052,0.003592210805621846,-0.00579962600701256,0.09674168340887719,0.1472238685196035,0.14703088457191876,-0.020916714803729242
0.2625517,0.010600790921183243,-0.03096430369731248,-0.0017972861110215025,-0.01103518185728439,0.09458586629405936,0.16785802630634303,0.19076299113376108,-0.006133968873549954
0.2630172,0.009667764633562637,-0.03257510865486584,0.005595863238947493,-0.01964531739068681,0.09071740997771471,0.18789103619436653,0.24276097031891014,-0.00720958887053556
0.2634828,0.0001270597982357364,-0.036347434163691184,0.015975696561325598,-0.026698749373887408,0.08383153718941612,0.19582235843768545,0.27103288228535344,-0.023682041027663178
0.2639483,-0.011938319206537562,-0.040895151489656605,0.02172886784979086,-0.03283268692341852,0.07353506471835787,0.19428927766202944,0.29390134454303124,-0.053361934730792634
0.2644138,-0.013650830149918199,-0.043849444384402386,0.018267439394315625,-0.03878555635137371,0.07133886501291903,0.18732456639173184,0.30852101628517753,-0.07014376323922981
0.2648793,-0.011076515693006113,-0.04411881297030675,0.013490383267239234,-0.04290061806983927,0.0796419140100614,0.18269517678208586,0.3138156205437571,-0.07324135702930189
0.2653448,-0.00396549750363314,-0.046082373716374435,0.011968053375528727,-0.04992044855814171,0.08555529815400291,0.17825294847046835,0.31178481840717526,-0.0681819135021149
0.2658103,0.0006447199703770319,-0.04959860262503853,0.014310383875512481,-0.05661826836145045,0.06483160519724446,0.1756950052324662,0.3096021407169053,-0.0625945503880756
0.2662759,0.002972610446613692,-0.052865430247887854,0.012655335723584678,-0.06564386158772893,0.02212341186262949,0.17120784229123473,0.3067993989080468,-0.06403372885438265
0.2667414,0.002320784429500536,-0.05378707704699964,-0.003064031678141465,-0.07560869422849445,-0.01975945856917849,0.16173010577150554,0.2939021673374574,-0.0877306479646869
0.2672069,0.0018317462618362185,-0.054328519814539344,-0.030598941843061517,-0.0866823787620704,-0.048797760222317375,0.1457146611761094,0.25867315911073047,-0.134875994764144
0.2676724,0.009397562565165295,-0.05164929511634095,-0.05342934731379807,-0.09388298890826627,-0.05825595977977498,0.13530070137424316,0.21910473869743258,-0.16133216523891034
0.2681379,0.025072977480797887,-0.04654605138720877,-0.07623577673958762,-0.10015416046936543,-0.07084466955152208,0.13157913564440163,0.17325179097482862,-0.15849000158047127
0.2686034,0.035921253278246884,-0.04296505472658283,-0.08890317534804512,-0.10276316855355609,-0.08126390097234545,0.13173250929590805,0.14452392497068778,-0.14712201535604685
0.269069,0.04871266588935587,-0.03919392541049351,-0.09764405969045893,-0.1076095785522723,-0.0922376718342709,0.1375230620112507,0.10585588192241363,-0.11927592507185096
0.2695345,0.05672244520855455,-0.03652307471170594,-0.09685427739572272,-0.11138118311890507,-0.09278700993803969,0.1494989887753908,0.07562920964958755,-0.09657069702753107
0.27,0.06539986993457707,-0.03584562221902621,-0.09213983125093393,-0.11235416251624993,-0.08735065229883121,0.16195406994176811,0.05371426752040886,-0.08296608234987207
0.2704655,0.08573286422707349,-0.0354162,-0.0817734050309355,-0.11394939260669334,-0.08431081948651326,0.1747001949690645,0.015256268370595395,-0.08595177665131563
0.270931,0.10230692951867963,-0.03426927202559812,-0.0725426849081675,-0.1139696,-0.09587290303423673,0.17102806079297594,-0.019804768405727168,-0.12997643878137807
0.2713966,0.1196938091608915,-0.03193114885488856,-0.058812423409034205,-0.11245606513985142,-0.13459033920336766,0.15700707098402195,-0.06576638219790966,-0.18945215508560678
0.2718621,0.12601506380562438,-0.031140992024296953,-0.05196439754390693,-0.1114025226990626,-0.15618780232228469,0.1512126660183103,-0.08525683889387586,-0.19432482810356844
0.2723276,0.13194191736350339,-0.03172738706591242,-0.04465880503197112,-0.11096773532956208,-0.13905371157600072,0.15230537896261237,-0.10342059320857025,-0.16361077173953933
0.2727931,0.13719221344130214,-0.032678795305754016,-0.03811145948435917,-0.11110756331231864,-0.067818663261244,0.15080630961334268,-0.11010807205937478,-0.13242960815939206
0.2732586,0.14261880468407698,-0.03265696822802567,-0.02560020874350538,-0.10961035978589981,0.0078889,0.13491604144150784,-0.109815973357955,-0.11326394263459205
0.2737241,0.14313128718655738,-0.031855838440327876,-0.014397312210601455,-0.10787812671710399,0.025675631520546048,0.11688103254666707,-0.10931401281344262,-0.10380824814338833
0.2741897,0.13637220042312692,-0.030574766807708976,-0.004332141433828644,-0.10499981523067028,0.0078889,0.10070862389533483,-0.11576503166505925,-0.08381584262057146
0.2746552,0.12478178374988048,-0.028893091232784877,0.0030054915619744434,-0.1009998389586837,-0.015912751648169573,0.08740474901020956,-0.13283191300245167,-0.0605422876397037
0.2751207,0.10684439703523378,-0.02625773933287882,0.010328623002045309,-0.09674503456100088,-0.03836650189933385,0.07197423970371848,-0.15580422383594678,-0.04534052133424236
0.2755862,0.09085743732313079,-0.025191936727294844,0.015124734727173203,-0.09368081238411861,-0.04702610838387533,0.060250490413951405,-0.16193258881805464,-0.04747212654541031
0.2760517,0.06435851136957903,-0.028541761177598775,0.020441305135125716,-0.08898180951738327,-0.06071075679534123,0.04700468716218571,-0.16474777841642116,-0.06228715936290408
0.2765172,0.04009404837634297,-0.042613256441519275,0.02441301483605611,-0.08531450063838569,-0.08039273498147176,0.037510006623991406,-0.1688853303104979,-0.07946289571149552
0.2769828,0.009427190316338062,-0.06199856633352262,0.027385325001183493,-0.07990589996212823,-0.09986562403015517,0.02301329035420984,-0.1821100587150006,-0.08996516633825659
0.2774483,-0.011504712976519902,-0.06202727594337229,0.027406446789968304,-0.07460109962710085,-0.09340061804137982,0.00942803442285358,-0.19484404716286746,-0.08690024662165884
0.2779138,-0.023501597240863963,-0.055243762656067376,0.027711502110687826,-0.07029654149069627,-0.08609903732781347,-0.00016671834774220704,-0.2016886507311198,-0.08404761827313019
0.2783793,-0.04433095199406496,-0.03440089145150269,0.021614059025193068,-0.06237511010167483,-0.10125154097480693,-0.017434055350730428,-0.20092605840750288,-0.09108931711489879
0.2788448,-0.05730804304429583,-0.0169240662087927,0.014346283508966894,-0.05777013925866821,-0.10812618340109059,-0.02850181113144851,-0.19646150870402526,-0.09598677895852338
0.2793103,-0.07383572774461247,0.007625712951891621,0.001931220092483712,-0.050818653806539466,-0.10432049506909304,-0.040788663353038074,-0.18899766251169534,-0.09547523408291166
0.2797759,-0.0982213786873574,0.04469702720913609,-0.02860051946762808,-0.04216613641214869,-0.11266413770713589,-0.06242258616204764,-0.17685301667770284,-0.09034579850506196
0.2802414,-0.1116714106146313,0.05901006827596285,-0.05878603064503074,-0.03788228938536869,-0.15375010254972352,-0.08570280965548167,-0.16406106091442096,-0.08895083160418038
0.2807069,-0.1157135072041914,0.05236948102168558,-0.07495433099755612,-0.03384019279580862,-0.20629710019685976,-0.10475832185769283,-0.15236789592605104,-0.09010571634405469
0.2811724,-0.11698747617526467,0.027893056604557754,-0.07653577617526468,-0.025537366773147226,-0.25302402730890666,-0.12017773399332479,-0.1396245092584627,-0.0883778729784029
0.2816379,-0.11274312765551392,-0.01654710909554902,-0.07016543536609013,-0.014525700482329028,-0.281740771989655,-0.13021209756069185,-0.12406680170198311,-0.08877496903019716
0.2821034,-0.09489893910214973,-0.07035404533529237,-0.06670550154080687,-0.006036898732192702,-0.2893330603411912,-0.13388857750381117,-0.10967236902937337,-0.09303918619199335
0.282569,-0.07033189685753807,-0.10911850733476056,-0.06934188568869859,0.000876935240923973,-0.28678147166763945,-0.13750405381250144,-0.09927218604691829,-0.08735775254392394
0.2830345,-0.051619773075403545,-0.11506249077193441,-0.07219919154201385,0.006151933584385488,-0.2762370687802899,-0.13563016384733795,-0.09541544986251939,-0.07337651102626272
0.2835,-0.01788734469833986,-0.10498611847012158,-0.0701297770107956,0.012633961352059358,-0.2531205341288578,-0.11794763398631497,-0.09097724626349449,-0.047775541886954515
0.2839655,0.025414324539874897,-0.07751050303281269,-0.0612998488306646,0.017110085631644192,-0.21942233422384635,-0.10700974555938947,-0.09016244836436244,-0.027497722660463502
0.284431,0.0669543839686985,-0.04023717138382824,-0.04840673556397517,0.02118452454571934,-0.16227038015412398,-0.11864077989824609,-0.0920379955300572,-0.017914665490883483
0.2848966,0.09744089386495097,-0.0018502515790126428,-0.04568261637062049,0.022357609719072497,-0.101211537833504,-0.14006720131744996,-0.09479772031318227,-0.01213164501133901
0.2853621,0.11008516952910141,0.03181944734389402,-0.05603769399945623,0.02424219445369815,-0.04052353027057029,-0.14348705934498154,-0.09289258221852074,-0.005850708319452774
0.2858276,0.11170899427872223,0.044269307909963015,-0.06523974382059078,0.026948703407810196,-0.003444518844928084,-0.13753282026878147,-0.09180997863687591,-0.0017909448882847045
0.2862931,0.10608064639961645,0.039304604595570725,-0.07381647322966864,0.033234250824274336,0.03416720170826948,-0.1341813968779403,-0.09246160289142603,0.004210331310306082
0.2867586,0.08653351377550857,0.02178882392241364,-0.07823133406931872,0.04075100573099281,0.056574177759945166,-0.14909065383753153,-0.09966594505740319,0.007535009621307744
0.2872241,0.06923054054245963,0.013617979428365158,-0.07919261831427069,0.04411542900028144,0.06017899367851505,-0.16086631425014988,-0.10747634375361631,0.009217257049973691
0.2876897,0.04011357953981636,0.00497322458121072,-0.07616287510483191,0.04756109926671496,0.03702869198740039,-0.1628328743715469,-0.12266716834806175,0.014412137342752119
0.2881552,0.016145554121518545,0.0019383312827334239,-0.06847811463124102,0.05101193484980798,0.0006252572151649073,-0.15365753794345433,-0.13482835441347535,0.02303242786163727
0.2886207,-0.012042803049628325,0.0014694752285344152,-0.05531438442696924,0.05740643262681579,-0.028344969355067206,-0.15409159398886316,-0.14122255498745143,0.03310099080156517
0.2890862,-0.03332583273748787,-0.005615485647530763,-0.04432735680103235,0.06169226187071359,-0.020919857516046903,-0.1679561661899903,-0.13261597622318283,0.03851382841821117
0.2895517,-0.04314469091441627,-0.017398031891538306,-0.039277741878347136,0.06225333948082378,-0.0040876127810476085,-0.17581125273153303,-0.12139450758928548,0.04103867766370704
0.2900172,-0.04419569804834739,-0.03142700062622555,-0.043182187905054174,0.0616007,0.009647311913970122,-0.1701205433803014,-0.10818993065913003,0.04072754648835039
0.2904828,-0.04667003058010775,-0.0399264515943165,-0.056683905059072476,0.0617468515943165,0.0209034977406011,-0.1381925497358483,-0.09783327992699663,0.04635029174032324
0.2909483,-0.049606428744054076,-0.04107673414215581,-0.07138587870695996,0.06329123702798425,0.039552532576341615,-0.10008647941212093,-0.08820812280078547,0.056805460373936585
0.2914138,0.0401492385003344,-0.041783775000450066,-0.08384582501035157,0.0639345125006751,0.06847120321641995,-0.0711792983809884,-0.08091782339494051,0.06337460705174212
0.2918793,0.2559913396168131,-0.04016283196068981,-0.08864368285731697,0.0673287836935492,0.09844690185459447,-0.05366721902143547,-0.06175164486927408,0.04128887074778276
0.2923448,0.2919370435043791,-0.039630364751480913,-0.09190715583253942,0.06964316554449516,0.10554728902910894,-0.0537673118546714,-0.0499503250630744,0.018831189060707708
0.2928103,0.1312459197074545,-0.04442876930214742,-0.10731002183298664,0.0558764068651032,0.08446386517685253,-0.06485853657804375,-0.049316330722116816,0.01480121259526071
0.2932759,-0.02377463567182091,-0.04061343375140375,-0.10535160451924781,0.06749371079030404,0.07622007475039438,-0.06328292390175813,-0.04057942345869689,0.03259177618865001
0.2937414,-0.12199128357828674,-0.03856015787104608,-0.09445964348819615,0.06778358066739183,0.06259588120776298,-0.07098280637463249,-0.024455800409435534,0.04424258452809342
0.2942069,-0.14642733884122394,-0.035844336180037066,-0.07891710665844548,0.06829611276399258,0.053009736640587016,-0.08754779568377019,-0.01931504917430463,0.05050100720769166
0.2946724,-0.1584448084298767,-0.03175555694411558,-0.053864001813001654,0.06948054127846413,0.04898774214938359,-0.11648125419714768,-0.008842923484744452,0.049678508429876714
0.2951379,-0.16002612232059438,-0.029231712920287707,-0.028332229309051993,0.06926089125155188,0.06492102413208935,-0.13023897752172625,0.004509126650113333,0.05284084374224063
0.2956034,-0.14050670723408037,-0.027062878766814766,-0.0021514411842423094,0.06833139090006347,0.09001734903279134,-0.11722597260088857,0.01442379706598965,0.057488345499682646
0.296069,-0.09336749598153603,-0.024147062142435876,0.02132507117873252,0.06501724496112057,0.10987029936698509,-0.07751137333464658,0.01645153056873424,0.05333290215591407
0.2965345,-0.047200895714783024,-0.022004872749672,0.031268056154249824,0.0605043575808159,0.1092965930761366,-0.04873622351396787,0.01410768439494814,0.03672619813001386
0.297,-0.013485981815079977,-0.019361039888451517,0.02982879647072595,0.06223778181721249,0.07366116112530567,-0.04670292374597347,0.012325068183853765,0.013293184867014099
0.2974655,0.005526917689484016,-0.014615330761814224,0.02635264845129824,0.05751565248126798,0.02024038016119879,-0.04415604764530429,0.014846381773186685,-0.023562057904415734
0.297931,0.009635715621677815,-0.01234946134571173,0.03033233954082295,0.05461914212349873,-0.020852495553440414,-0.022746085860508712,0.023298761091246876,-0.06655754932047679
0.2983966,0.017096727663460695,-0.004909271967515061,0.052432633746110395,0.05259726162362098,-0.04216147083694065,0.017282388346841246,0.032332330996322614,-0.10516644981548788
0.2988621,0.022709097636491482,-0.00022295459109411596,0.06672136441134495,0.05166178444137966,-0.04845334540890588,0.03798610435372715,0.032763621110344913,-0.11637448653304235
0.2993276,0.03589464888814812,0.006923173166277762,0.08226885271389404,0.0509183025555926,-0.04490001788914816,0.06573171054279477,0.028145119166944458,-0.10971422428577259
0.2997931,0.052346540172393284,0.01440100660513541,0.08607901149277651,0.05070271439213289,-0.03125142177591906,0.07919662338876435,0.028628891809791192,-0.07594031544157406
0.3002586,0.07449074492930811,0.024466393500340782,0.07803760775425923,0.049534833062514196,-0.024336316371223538,0.0776425457094748,0.03195990897294534,-0.011038072186168212
0.3007241,0.09448260160172017,0.033516001178457974,0.07059040093196448,0.049526900117845794,-0.03613380224987207,0.06995864875721818,0.02570344934644716,0.0389387525980085
0.3011897,0.11716390113209896,0.041501068077137916,0.06343799755069533,0.04963286726787652,-0.062214254160380844,0.05196468987560877,0.018396551711076174,0.05304966376609853
0.3016552,0.12827931467603793,0.0459362983239026,0.05956110154254331,0.04834888223887545,-0.07631745006473295,0.04047628622878781,0.0172885,0.05150430154254331
0.3021207,0.14228020343971137,0.049781112626142904,0.046325735566536984,0.04632081656126522,-0.08595053534023854,0.014428279635727266,0.025020570906775515,0.02199931171790252
0.3025862,0.15389801960876412,0.049593356684994615,0.035396952048738564,0.04556495668499462,-0.08800411497250807,-0.014120660771412129,0.03395157806757804,-0.01795410863702334
0.3030517,0.1619020832175116,0.04836044204912842,0.03262957756141052,0.04418770281457655,-0.08898710744453953,-0.039858979535663794,0.04374334861292271,-0.06024583289699435
0.3035172,0.1628720605288454,0.04266784512362315,0.03573551117344358,0.03858541804944926,-0.09457808281007332,-0.05358227857829466,0.05382557292582611,-0.08158314905704653
0.3039828,0.16081079195394343,0.033833836945471915,0.02911004889847468,0.035051814778188764,-0.10238141284212907,-0.04798740673213222,0.05912597783271685,-0.053314410604251614
0.3044483,0.1588455572822159,0.026246297661505387,0.011809204540751503,0.034420037983881206,-0.11036649699180356,-0.03808329827429355,0.058936975967762414,0.013119526950186377
0.3049138,0.15396019609114783,0.030473805537652353,-0.0009479888744811383,0.03407494042449644,-0.10799159674239962,-0.03770390802548825,0.045534229102350735,0.08292315297103156
0.3053793,0.14788002147357618,0.03890430447554658,-0.003870151907493729,0.03209892281319087,-0.10100858556402512,-0.04345370514535393,0.03216759238852154,0.10795365367331818
0.3058448,0.14473020333353862,0.04729228748435858,-0.0010512033335386317,0.029539961389077076,-0.09256360806374409,-0.04662605665887162,0.022653731960256943,0.09917672557148781
0.3063103,0.14450872523944988,0.053737478591747954,0.0027586552168878385,0.025775647605501363,-0.07384278472621789,-0.05663087073551571,-0.00023281814718047677,0.04824163367719191
0.3067759,0.14288532066000634,0.05061384132001273,-0.002371716605921847,0.022415141320012728,-0.0602871625621087,-0.0735561719858773,-0.02516905352487629,0.003722079988283578
0.3072414,0.13691750265731123,0.04116660764064647,-0.004162817205019903,0.017859939456010634,-0.0513682252750941,-0.0848458540037193,-0.0362796856043696,-0.009144492296717937
0.3077069,0.12810776575693206,0.029210408933973045,0.010939655856766326,0.013769660951096042,-0.04476085230561668,-0.07446283933739765,-0.023536941740315658,0.008160438421560766
0.3081724,0.11626516035889704,0.011743866322217269,0.04320261884639552,0.011486838923776832,-0.03599539355846235,-0.041848175190284255,8.686091402781721e-05,0.03839163303736996
0.3086379,0.10707591212953216,0.00010232437669401847,0.06588247743213614,0.010870192409785784,-0.02876245767081745,-0.014858584819571568,0.014013818595309967,0.05418862827319052
0.3091034,0.09500573143064805,-0.005539,0.07785515628094587,0.010364818706094781,-0.018493758290462146,-0.004922070352389859,0.017430139195227474,0.05846841055237547
0.309569,0.07496556209955009,-0.005539,0.0703220714225856,0.01010136392263263,-0.0039416415192948156,-0.013667889709872365,0.0050140878867898225,0.05215606730653455
0.3100345,0.05020598383175722,-0.006644317617706996,0.0626341737073992,0.011671022160656536,0.008322817617706996,-0.014643959810631192,-0.013728460579439421,0.04286903351803039
0.3105,0.03173385396746483,-0.0099093665457314,0.06595786402169011,0.014021855539430852,0.014638306692609756,-0.005429858281155622,-0.026064917771471463,0.0372691445331303
0.3109655,0.013172427180640328,-0.015252080870259001,0.07744576065269425,0.0142089476518964,0.01601955873073807,0.012681163934327918,-0.02821430638263447,0.033383983390818696
0.311431,0.001879255513531062,-0.020019076036397975,0.08031316687128592,0.01208223553661749,0.01628426446338251,0.034825547757442954,-0.026297321487794168,0.030060831402572874
0.3118966,-0.017197419136715634,-0.03469073123276507,0.06980353965934538,0.0076623170387575094,0.023154665449872616,0.07956340737368604,-0.02161459787512449,0.020947007706705878
0.3123621,-0.025717794046245118,-0.04917542780170036,0.04566232230851497,0.0026920066872989697,0.033379132262089474,0.0761552235683113,-0.01678642208808432,0.011574586845832707
0.3128276,-0.02978978427957592,-0.06523418396110484,0.008306534698131803,-0.004850923610211486,0.045944367174636465,0.011532063364050564,-0.01307327768476536,-0.0022261556136571616
0.3132931,-0.02579084063822884,-0.07269382002933292,-0.0133609001955528,-0.01096564010755404,0.05231702022488572,-0.04344023918577364,-0.012498920902225118,-0.01301512017599752
0.3137586,-0.022456600058527617,-0.07356363318509437,-0.019159654567295837,-0.01415495501201271,0.05898558775239021,-0.04155560083090613,-0.016992998724376995,-0.01823399911056625
0.3142241,-0.02694590052349625,-0.0748729944251969,-0.018589100746906766,-0.015298788850393806,0.07038230328771279,0.007622526287461939,-0.03922249236151712,-0.019977442534744986
0.3146897,-0.04423996597326868,-0.07607047968107564,-0.017596376255139493,-0.015819535617290763,0.08154601872430253,0.07286287601032224,-0.08299134063378634,-0.022711770557648035
0.3151552,-0.065503470171068,-0.07727346265086164,-0.0155519036979779,-0.018027564250590284,0.08903276585031893,0.11320701296224724,-0.10823289736118863,-0.025716921043099493
