Time,Rectus Femoris right,Rectus Femoris left,Hamstrings right,Hamstrings left,TibilaisÂ Anterior right,TibilaisÂ Anterior left,Gastrocnemius right,Gastrocnemius left
0.0,0.017759730244365238,-0.032795239511269524,0.175505346968245,-0.012039923251878254,-0.12491376375522709,-0.08055479300751302,0.08843406952838521,-0.03834714650375651
0.0004655,0.02089092439617994,-0.026662020119799734,0.20448474961734237,-0.00995420468352945,-0.08130296893561001,-0.07573185143362395,0.001316546355711649,-0.036875400812216075
0.000931,0.03085146933074734,-0.01058128566874831,0.18716769856792081,-0.013398008345758954,-0.07913045464597872,-0.0567536668862878,-0.11752914603089613,-0.036012713893541444
0.0013966,0.047571323121556985,0.013170602624455107,0.12667685029805303,-0.0123984767394973,-0.12353934942370373,-0.006860442146796288,-0.20065364620243895,-0.03788248139159784
0.0018621,0.06793897560751216,0.026094893886144038,0.06583508763917574,-0.01565784626375469,-0.156912902037952,0.04609604985638968,-0.19435974137542106,-0.04046039932068267
0.0023276,0.09269907074703043,0.03237256609484904,0.030224016952575483,-0.019737925501342308,-0.150833652283263,0.09513109220682914,-0.15035112377710522,-0.0411231
0.0027931,0.11428579088349368,0.03578468933069049,0.01870911731822435,-0.024296738506410665,-0.11758825476421014,0.132389281686523,-0.10940615263856429,-0.0411231
0.0032586,0.13170011929963762,0.03789131327240887,0.02657360684883914,-0.027386392263493622,-0.0798103411473631,0.14250079213137995,-0.06502774058998002,-0.0411231
0.0037241,0.15152382591644897,0.03602709914461762,0.05776735868050994,-0.02679084710649669,-0.03196315377671066,0.09037288471575936,0.006647365725844305,-0.04124821961680246
0.0041897,0.17522745750099042,0.03284943348662963,0.08282663509014121,-0.028881780957189858,-0.009835902965464622,-0.016089763920465756,0.0571856777761094,-0.04745153206736216
0.0046552,0.18757781231438342,0.02955399532877027,0.13325050813750022,-0.028123793038527967,0.01737963737568276,-0.10905141723476239,0.08290126404554272,-0.057907074938700676
0.0051207,0.1993761102036499,0.019287162740312114,0.1530003101870179,-0.029400593117166647,0.026092517351420572,-0.16440206177551114,0.07628363874725842,-0.0622990808557025
0.0055862,0.2061307484256803,0.009938038533213704,0.15299803206399007,-0.0297093,0.0302933660777623,-0.19055648812797835,0.06853917294289695,-0.06359618558809192
0.0060517,0.2096460387494018,0.009582557297905445,0.12298213665957293,-0.027418887247984157,0.029159122272944798,-0.21103084709222167,0.048769447339542124,-0.060408212980267446
0.0065172,0.209189320113338,0.020539449052589188,0.07421773180962779,-0.024871599811103345,0.02586551315702979,-0.2110147266666363,0.030097008687449783,-0.05361698627628025
0.0069828,0.20484951243243307,0.03402448700388517,0.011135320009258489,-0.025321711456682286,0.02416585301463181,-0.17385322992650823,0.025436207370790935,-0.042963114772857365
0.0074483,0.20001926774662954,0.03751774494109583,-0.05632908083408443,-0.029087573098996688,0.026953632163818787,-0.11400127121365036,0.030941242689449727,-0.028824578859186437
0.0079138,0.196220394624835,0.03211018530917975,-0.09222817514332209,-0.031238628366475042,0.02837577535866867,-0.08373807163352495,0.034161983449403875,-0.018370058167624773
0.0083793,0.1953778567679723,0.022841982037879478,-0.08223769412120717,-0.03220156975229106,0.02669062793349063,-0.08277513024770893,0.03548606371062722,-0.013555351238544665
0.0088448,0.19467953432987467,0.00886191384873872,-0.032500205429557345,-0.029012318367660918,0.02082188855670844,-0.10260140149481202,0.04108320406360463,-0.009373934329874675
0.0093103,0.19385246487922797,0.0035918015866801506,-0.007620375603860256,-0.024244058156716815,0.0169528,-0.12338281314007334,0.043392426283957744,-0.007606940483088204
0.0097759,0.1935574330767217,-0.002308746577891461,-0.009095534616391489,-0.02217892342472641,0.0169528,-0.13105364000523576,0.04531008905747169,-0.008787067693113191
0.0102414,0.1946695371600233,-0.0061262490799851655,-0.01676736770950519,-0.022701677250528716,0.020447547890516,-0.12055046274095994,0.049180703680059334,-0.009849503029498833
0.0107069,0.1981306967365046,-0.0039236929858607016,-0.020700456726980437,-0.02380300216248082,0.019660967578932848,-0.10827917251776054,0.0579909280565572,-0.012838639435206451
0.0111724,0.2002738296440626,0.0010428558606536578,-0.01807336164382201,-0.024385961575111227,0.007361796572528447,-0.1269661982862642,0.0676662061442713,-0.018636818215147465
0.0116379,0.20001534745862115,0.007169148515085955,-0.013063884477836863,-0.024346479559412226,-0.015178505117990938,-0.16404026511133052,0.07260708695466582,-0.02790948677271613
0.0121034,0.19877198222952286,0.010756454695347133,-0.023603583866058157,-0.022208330554626676,-0.04094318352611265,-0.18879969787007578,0.0712533854695347,-0.040917522317683
0.012569,0.19199234485459757,0.011038932329660807,-0.06581306272189227,-0.020377517088358513,-0.05962759883808921,-0.16009313194121802,0.06017744563011615,-0.05285658631178538
0.0130345,0.17573529974405222,0.007508152092085182,-0.12516566293808565,-0.017341002476402207,-0.06451261707972984,-0.07752043193860987,0.04812766225489932,-0.059358615371566316
0.0135,0.16808506209169524,0.003773487173678733,-0.18648874084680886,0.0,-0.08133996552292382,0.015138371828853962,0.04500517575280699,-0.06362622767842158
0.0139655,0.1614066099222077,0.0022687078814631247,-0.22329529758393682,0.0,-0.08502466422455962,0.07002740657568395,0.044618826240275966,-0.06699535799679779
0.014431,0.15961579151717153,0.0038605,-0.23867995871505063,0.0,-0.08388234235973614,0.06818962509895637,0.042429190408075294,-0.07313658980916937
0.0148966,0.16140942093516147,0.0018275929757157116,-0.2284533296496886,0.0,-0.08003805832110268,0.031333844867957344,0.0339869131989089,-0.07969709349625838
0.0153621,0.16610622137875344,-0.006569995797065482,-0.18335781868792073,0.0,-0.06568094525443259,-0.003530151069910817,0.01724458853921741,-0.082039274875858
0.0158276,0.16564284944997196,-0.011581420987411844,-0.1412982943079613,0.0,-0.030874237466743643,0.0061901959208991286,-0.004826831774704935,-0.08405083262793013
0.0162931,0.16350932512128738,-0.009716752872112409,-0.11978455011623729,0.0,0.021331923394637964,0.04074766040191329,-0.025887213759175225,-0.08415650837376246
0.0167586,0.1558407927944153,-0.011967067818544216,-0.1341683457062079,0.0,0.106546076397897,0.08217791100098173,-0.052930771613941247,-0.07340010016706931
0.0172241,0.1501926255152657,-0.017364278557567423,-0.17119527825277514,0.0,0.14809157267917128,0.09297218292209124,-0.06347408699492436,-0.06147614992304882
0.0176897,0.1418835451485912,-0.022989563711933485,-0.2331794492912583,0.0,0.15907441652273258,0.08896732351184111,-0.060599348895098375,-0.044603132289606454
0.0181552,0.13454400002949188,-0.018918952533195626,-0.2755717334414702,0.0,0.13033482665290974,0.08835907115305114,-0.03307322902390009,-0.03175783341197832
0.0186207,0.13302933190071017,-0.01148523572739427,-0.26816095447990546,0.0,0.10050394887559323,0.1069615428082145,-0.005024376497639305,-0.027523244476361168
0.0190862,0.13118604543264378,-0.00041505578318368945,-0.23330381828964256,0.0,0.050550599065526315,0.1186246369058451,0.025729363702068648,-0.0243381
0.0195517,0.12987487343265916,0.005155483074708317,-0.20630333926365957,0.0,0.0071484269753188025,0.10914504103799756,0.03125343607949709,-0.024987410693126225
0.0200172,0.12976567393110017,0.007325580710357934,-0.17625253828043844,0.0,-0.03705405472320318,0.07477673930176441,0.001089571128596022,-0.02815042617745014
0.0204828,0.13187301478120508,0.0049702392092874316,-0.1523277131227096,0.0,-0.05180566223497175,0.04329018375360516,-0.02940527723041314,-0.03286103532591308
0.0209483,0.13548261324270006,-0.006499296317338442,-0.12366774349777172,0.0,-0.02574717366583341,0.009699105599609107,-0.06771458888779176,-0.037721220521013205
0.0214138,0.13743622529113314,-0.01791738391042572,-0.1262416999413402,-0.0006824166640797367,0.09261010990890549,-0.006440076543655318,-0.08125706414522703,-0.040198172793849525
0.0218793,0.13245501251898192,-0.017953150993217093,-0.16042664529325373,0.00240284404592712,0.2811190326973089,-0.024340858447327914,-0.07045466221356383,-0.04551100380471735
0.0223448,0.14594157373956088,-0.009792243594095125,-0.19452397148369127,-0.001562943508241698,0.4237977398868274,-0.04907786651162907,-0.05439436983963744,-0.053270144044311095
0.0228103,0.1488195720268962,0.004359791833626446,-0.19873650713845964,0.0,0.3907347205277287,-0.07366302149870475,-0.035278906362604244,-0.06531246794370942
0.0232759,0.13942385866300785,0.009159183561566137,-0.1463669997765543,0.002736574972257039,0.19666948612273763,-0.08136163376444953,0.007464786270135105,-0.06302183819974462
0.0237414,0.140559765565697,0.0017371391550381012,-0.1085397722693274,-0.0015394603653990887,-0.009550834693321929,-0.08136777389664127,0.04235673117967525,-0.06293114718973832
0.0242069,0.12006020373427595,-0.027698744945725037,-0.08075337965230854,-0.0016857737669910382,-0.12791669267244438,-0.04863792589800142,0.03139247395972831,-0.049742619149931576
0.0246724,0.12416398824090162,-0.04391082007314259,-0.06307747351045409,0.0,-0.1735768165586071,-0.028975485339033807,0.01352940384927781,-0.03610216438796257
0.0251379,0.12083171942830297,-0.060203514801315465,-0.02602665707039798,0.0,-0.19526784007111686,-0.02130705833001069,-0.006970563956777445,-0.02500219787868702
0.0256034,0.11966432503427055,-0.058941230443078516,0.03196863733177485,0.0,-0.21030292503427053,-0.004268502033000888,-0.023787559401484797,-0.017850325308434865
0.026069,0.1193408,-0.04106857733619475,0.08433735271663495,0.0,-0.2087905712657784,0.0491062240045709,-0.03595652389004849,-0.014854434690115555
0.0265345,0.11930723565419683,-0.01806630184536595,0.1238166647359687,0.0,-0.1696400652157553,0.10436859750847245,-0.03673668031143287,-0.012241811884732277
0.027,0.12208923931481418,0.0025284221661211036,0.13658385182192562,-0.0030152572395057762,-0.09275645376951996,0.11509107593564108,-0.022705104617275887,-0.015203395555844506
0.0274655,0.11279709263491958,0.0054412187343500585,0.1380057187376955,0.0,0.006622512007866409,0.07661902900301391,-0.013042480917809431,-0.015169392922330426
0.027931,0.10779257956724525,0.00458194569454262,0.06602367714531567,4.3608692993913766e-05,0.14028028679688678,0.010134617571849244,-0.003796035270255753,-0.021631742833637103
0.0283966,0.10277756478003004,-0.00443084446259302,-0.07967622581325533,0.0011145553725610494,0.24106581107481395,-0.03743048709374952,0.0010217631943536722,-0.029476346130692357
0.0288621,0.09946601006873484,-0.007868106495331392,-0.25608251635484813,0.0,0.24226013273133068,-0.0427063753221781,-0.0009486252019605891,-0.035416122793630475
0.0293276,0.09121568713396917,-0.004375126440277712,-0.3863055439908813,-0.0026970752553091516,0.11208176374419392,-0.023312335023146356,-0.003524266393285768,-0.03887719694949755
0.0297931,0.08641936063270224,-0.0032676898265821073,-0.4072517474687492,-0.0019297302195542586,-0.07096795106378023,-0.01977194205403645,-0.0038766589716379366,-0.03804771324326175
0.0302586,0.08245992552114557,-0.01682101217699106,-0.3478956133704517,0.0,-0.27353420728515687,-0.024793741491884562,0.00821087164317158,-0.03493024656651993
0.0307241,0.07891981389687609,-0.03034076346405361,-0.28939229321591803,0.0,-0.40416447165071345,-0.022379425670055797,0.02304881828879527,-0.03316555694843805
0.0311897,0.07627595163474606,-0.03019618652568233,-0.2650968692409612,0.0,-0.4242363668358253,0.0023649424368879972,0.02494173039914178,-0.03129096122895333
0.0316552,0.07440186193120943,-0.024140999089935083,-0.25047573107772325,0.0,-0.35692610021033416,0.024781622121406895,0.018795298476273665,-0.030762599696645028
0.0321207,0.06668474844431518,-0.01673792891740614,-0.193879673429124,-0.0008105584269610692,-0.21171452304004829,0.04471823931951011,0.012440315112852741,-0.030150539831969535
0.0325862,0.05572206943491245,-0.01948806973975971,-0.12362773709678651,0.00011644176644750238,-0.048936489632898636,0.0326680244582787,0.005583940820862467,-0.028321573054467183
0.0330517,0.05208053359203453,-0.010491619250593057,-0.05284649341331208,-0.0008426168374816943,0.1741693475009854,0.01591006107227205,-0.0067712923341240756,-0.027391203918841207
0.0335172,0.05085141439736931,-0.02193976469240015,-0.010122211011515602,-0.00035177984913601403,0.39300000236259436,0.0007461637064992627,-0.015717977708029372,-0.025291213284568643
0.0339828,0.05015091095625814,-0.05003301503359819,0.018441423288299893,-0.0002766069598832969,0.47290370792073105,-0.007734702336631366,-0.019008097167467555,-0.023848227577581163
0.0344483,0.048118385219972075,-0.08216081304716329,0.04425593946408675,-0.0005326493921168129,0.36249516800287757,-0.012641091999335942,-0.01591465600464841,-0.024959102603898838
0.0349138,0.0480188818313463,-0.09471754078091299,0.07505328056881579,-0.000349934710130322,0.1787660570072406,-0.02434670143296302,-0.0102388,-0.026755898081455454
0.0353793,0.04762267271450794,-0.06891616995366266,0.0998110571914167,-0.0001820530459097297,0.04143470909233798,-0.03212373642746032,-0.001259188047556203,-0.025328833336159377
0.0358448,0.044939599844778334,-0.04097103942195807,0.10459483255681815,-3.942100025186673e-05,-0.054930765330301196,-0.028875730133494138,0.00025000500186965816,-0.022788078999748135
0.0363103,0.04092030947955641,-0.020347594051984403,0.10107780975847096,-0.00031565506497865454,-0.13658269535339318,-0.02662497156133078,0.002155102462760689,-0.021114099581620784
0.0367759,0.03582301746684603,-0.011533135459082114,0.10935387327434089,0.0,-0.17596254506353703,-0.02330041310013452,0.0005543521833557537,-0.022222203207340228
0.0372414,0.030466683431543476,-0.012111021701839643,0.1200020760243968,0.0,-0.12434480454752711,-0.0032288853775487934,-0.005705492312670348,-0.02356129374248013
0.0377069,0.0212984957204836,-0.011730950164405826,0.1264085276118151,-0.0005129695473298669,0.022678539094659736,0.029494799669858268,-0.01975019382658025,-0.02940158308697589
0.0381724,0.007509070028094555,-0.011669874203111007,0.12526497736651304,-0.0028960353351856747,0.20459460167804516,0.029481158883997244,-0.028636005042141834,-0.035130851296684876
0.0386379,0.0002453600319439385,-0.005074382367028043,0.1146415567585522,0.0,0.34825999943030433,0.013365012658079661,-0.031156318632179998,-0.035803799570487634
0.0391034,0.0016251912504486499,-0.00917668510275247,0.10005922621477388,0.0,0.4081723152152693,-0.011673593350074316,-0.02268705568395998,-0.030515476691806584
0.039569,-0.00046215198613227675,-3.1571169418781074e-06,0.09679838122308657,-0.00014433848714929585,0.3878170121676667,-0.03369646018153441,-0.003913414428339351,-0.028555024884414148
0.0400345,0.0024233409332328763,-0.015552657652335973,0.0976732376686563,-0.001533903529656207,0.27545031611555265,-0.03501367585283974,0.007703782241632175,-0.030036645914015832
0.0405,0.003754499352201214,-0.047567896692614145,0.09204590698225902,-0.0012388621800613515,0.10963003134238172,-0.02191209971968853,5.442142610605867e-06,-0.032275298530050726
0.0409655,0.006786473199614467,-0.0749268371763737,0.08582342797466608,0.0022636102017904074,-0.0874339269745833,0.000557282162577397,-0.022821206351700835,-0.03173116532523755
0.041431,-0.002212460182989288,-0.08664200441831924,0.06445440570529512,0.0018206019226527418,-0.26203149380392554,0.021591600612156404,-0.041525798771738086,-0.031093256564815746
0.0418966,-0.0016841509548353685,-0.06398199119583098,0.062204268335939214,0.005197649045164632,-0.3914955950409622,0.02638621583203039,-0.0454610344926819,-0.030705094722656538
0.0423621,-0.0018231327416596695,-0.031728691679121825,0.060535989938909976,0.00505866725834033,-0.45516788922415335,0.027220355030545013,-0.03656363253438219,-0.030427048323151663
0.0428276,-0.00297251339931773,0.004800167709204737,0.06960871339931772,0.004159018668365888,-0.4922454723950148,0.036147672934971745,-0.01864725234469786,-0.02804592992266398
0.0432931,-0.00538378351662686,0.014489363553176423,0.07762363237586502,0.0029451209327507047,-0.48555930085371674,0.03990138701349523,-0.008388674716664173,-0.02603929085520046
0.0437586,-0.009823662326113003,0.0037954621736547758,0.07565349381414646,0.0009852679622759017,-0.38250686151462576,0.02344328250664808,0.007411960162523006,-0.022571237673886996
0.0442241,-0.012768517710007136,0.00581003704930717,0.06979684311580042,-0.0034960232204713287,-0.15869509742906754,-0.009163164816960712,0.0397201778311501,-0.018067907167659863
0.0446897,-0.019771852722623072,0.006755047581373286,0.036619063786993825,-0.006855122800564446,0.17303470405007942,-0.03194138760959558,0.06939941720189743,-0.017226197626168605
0.0451552,-0.026441089439313226,0.006279798334530002,-0.00611787012875282,-0.0075532,0.5020558522456078,-0.0407048915318088,0.07413342097603041,-0.014640408215593939
0.0456207,-0.03318179834644794,-0.0011693249756369003,-0.07089475775809059,-0.008386487065766978,0.6756176987090259,-0.03958830231590945,0.06903215080944912,-0.012549792953906127
0.0460862,-0.030693999976728066,-0.01897047793009258,-0.11531992156844337,-0.011206088161599804,0.6169290237715583,-0.029969723735815332,0.0522707580042852,-0.01806628219502073
0.0465517,-0.03596307158700013,-0.04693691523409565,-0.16546155904477614,-0.012120790316773291,0.38180063565717925,-0.0149386,0.021548442210150034,-0.021657423825981157
0.0470172,-0.035565844923324534,-0.07035276081659263,-0.17946403612341386,-0.012002587596394509,0.066659484561754,-0.01138266611471758,-0.007099552535030263,-0.02311716578585082
0.0474828,-0.038477835725911416,-0.08505686045467419,-0.15901101279836097,-0.007874324294783212,-0.1897656090442406,-0.022127239838163452,-0.022077625038671896,-0.021184949240535766
0.0479483,-0.04744588383134408,-0.08977587309650414,-0.11822286766268816,-0.00431407110715708,-0.31625550068389974,-0.03771604160894213,-0.03437595463985904,-0.01933571586192601
0.0484138,-0.04696274407441287,-0.07709087716867695,-0.05919973771050839,-0.005703769284573784,-0.3165158098094328,-0.04276767896496141,-0.03342742293534867,-0.020645973956219418
0.0488793,-0.049625196427482796,-0.06042394081423715,-0.015915386676532663,-0.005092475795207971,-0.2185343303850623,-0.043102671936151346,-0.027035807429736502,-0.024073898357011108
0.0493448,-0.051748624775626265,-0.024148066335230676,0.013631414374305153,-0.005355151102570503,-0.07680417899282578,-0.03689223186323933,-0.00931431698305717,-0.026442147987941478
0.0498103,-0.0501427359674811,0.014853159592968413,0.017076331576776155,-0.007081615142884326,0.012988329059149616,-0.029970880317962884,0.009864085056320287,-0.02416515530186577
0.0502759,-0.046839889778887436,0.03832379932664492,0.0030382214171207314,-0.011004547455828854,-0.012310470638944472,-0.028283069755947028,0.018168650314463547,-0.01671916920033616
0.0507414,-0.03390105776003949,0.03340572972492057,-0.014316392985553832,-0.00861234027924426,-0.1082628,-0.022077261658806236,0.028119814270150457,-0.023551691895899524
0.0512069,-0.03368962494397348,0.01579448293366431,-0.03798593676121747,-0.010879386101687169,-0.12228707275085159,-0.021104461713191407,0.029514128990845184,-0.024886232166868513
0.0516724,-0.03255138933335938,-0.0013333845900919965,-0.06743530185790496,-0.010811363081981601,-0.05011476511471573,-0.024636873661207627,0.02535036215302912,-0.026059774852403864
0.0521379,-0.03086759185890704,-0.011147311243295037,-0.09348159922622876,-0.007987632949862032,-0.017133258525285293,-0.03259640426598487,0.006539870536099756,-0.02605436472882421
0.0526034,-0.03462197480043191,-0.022782326334733028,-0.09934210273170968,-0.010279741733189364,-0.053584532942755295,-0.04295708973750844,-0.01019361470638663,-0.025721841733189362
0.053069,-0.03570903783095944,-0.032912640116194714,-0.07462782742016844,-0.0107816134928783,-0.07819897090891899,-0.04730486517915622,-0.0171383214359047,-0.026523748676162265
0.0535345,-0.03314302536201792,-0.03127397427144883,-0.037550002914204676,-0.009860209671427013,-0.037698009581041685,-0.0442581385049374,-0.007558989962039736,-0.02883168731899104
0.054,-0.03282292058921864,-0.01934326269809645,0.0,-0.01007384255738573,0.07427607299270576,-0.038324298837406595,0.001494374598541154,-0.02759158743995828
0.0544655,-0.029943400474199452,-0.0075102729853760465,0.0002734537721959739,-0.011432158153644085,0.2247501,-0.03325303450605804,0.004074424378837424,-0.02426798311259667
0.054931,-0.025606114629772383,-0.004841192670587852,-0.0023065917463796987,-0.013987611439120784,0.33211660604528065,-0.03077775936974051,-0.0009531212683898105,-0.022543111706737246
0.0553966,-0.022367355485252358,-0.005665570474421106,-0.0012419657108606295,-0.014717101669763064,0.3086115147627895,-0.029206475319891154,-0.0062558573501146466,-0.021659409722220177
0.0558621,-0.019102801392489738,-0.0059747187430226655,-0.0029521194737913846,-0.014020781285273568,0.15553427334077582,-0.02719278550349425,-0.007181867576129003,-0.022888152502790932
0.0563276,-0.026112141844221358,-0.0074817048250891,-0.0024486937676923273,-0.0157474569829242,-0.03028353219404316,-0.023983757901069196,-0.006002945007382435,-0.023602246005874912
0.0567931,-0.03405014504375356,-0.005678454812841802,0.0,-0.021686525691163916,-0.14440667409372912,-0.021784745853016506,-0.01328498827551904,-0.024839871544180422
0.0572586,-0.03920449991874825,-0.002407709367275872,0.0,-0.023187058555797894,-0.15409482990656048,-0.02060715930633706,-0.0207313198699972,-0.024395680008125177
0.0577241,-0.04206147117727677,0.016421672919152697,0.0,-0.021962778316457817,-0.12299721907072829,-0.02012723010125308,-0.032622589754574494,-0.023458608417710903
0.0581897,-0.037386255062670085,0.03326402569719235,0.0,-0.01995542883788373,-0.13052763817299837,-0.019519754249902804,-0.041766838040517125,-0.022849522468664955
0.0586552,-0.026566432927892323,0.0337051073029083,0.0,-0.019398348326313302,-0.19487038446129082,-0.017174180091651763,-0.044619371996139086,-0.02339425235199231
0.0591207,-0.013561780563544207,0.017943485019415808,0.0011919597182278967,-0.01748969998725302,-0.2885327529355528,-0.015828749735420762,-0.03232710996368667,-0.022961788238668318
0.0595862,-0.01112869121099525,-0.014254743429410681,0.0,-0.019111449284054928,-0.3547630582103845,-0.006534078017148773,-0.021102902176086943,-0.021178240960761735
0.0600517,-0.010402303124747499,-0.04362460942634412,0.0,-0.02055665568960739,-0.3485097158796505,-0.004555506366615087,-0.011097309491362586,-0.018889955711280212
0.0605172,-0.010071680497150282,-0.0718218232352754,0.0,-0.02073585004165621,-0.2587460500416562,-0.005789126639755974,-0.007451320623409085,-0.019112758922458967
0.0609828,-0.011398135985539976,-0.09038015468335855,0.0,-0.019126452370717282,-0.13606214349777632,-0.007799594941253225,-0.004063121761236293,-0.020521110392301693
0.0614483,-0.017583481930625363,-0.09493984928421063,0.0,-0.020055531287317203,-0.04149606114305565,-0.01068850380224408,0.0003795213470247209,-0.02027722748507312
0.0619138,-0.016252846375455533,-0.06996584482496886,-0.00024184168338092993,-0.020959317519253572,0.0034628053565458543,-0.013504820680483039,0.004854357712403928,-0.019009609061734357
0.0623793,-0.013725927565456297,-0.037820472868302084,0.0,-0.02294051266748043,0.015452577283856747,-0.010348382825809611,0.004853902146773798,-0.01770638711935721
0.0628448,-0.010312646048531457,-0.009152094550629375,-0.0006615712318984369,-0.02218434663746188,0.022931282719570106,-0.004106778496982714,0.0005081197339963566,-0.015090361464325307
0.0633103,-0.0077859530976516446,0.013089574720215158,-0.00040574511801373675,-0.024753033215146703,0.05137286290590022,0.003064227285851211,-0.007711659896976423,-0.017727825767524387
0.0637759,-0.003683944441986036,0.03850199703946141,0.0,-0.02844611871470637,0.05484621972476967,0.0068996971905455435,-0.017989085226601288,-0.022070690723720303
0.0642414,0.0013897761043152434,0.049151868439495115,0.0,-0.02575214202610215,0.024545534979437466,-0.0031686095643728937,-0.028642370450743387,-0.024371157862202345
0.0647069,0.007326188322981799,0.03885369916571301,-0.0027366154827964152,-0.01934234184782577,-0.0012355837873899477,-0.03007982433229847,-0.03844111313664548,-0.02433931547006147
0.0651724,0.0047467360097921225,0.03232583378984033,0.0007689631818854538,-0.014513921033170278,0.006830002219951795,-0.05850376390783325,-0.048793675938555506,-0.023967870650063255
0.0656379,0.007141598393484913,0.049240629103976405,0.0,-0.012587026505909173,0.05596970160651509,-0.0741783347510239,-0.04996421566272722,-0.02098622048227248
0.0661034,0.007090795363524994,0.0690302575594626,0.0,-0.011321770101935878,0.07693592628875459,-0.07577015652660497,-0.04850207749150534,-0.01885319484709618
0.066569,0.008432097804903964,0.07917242075046099,0.0,-0.01303528045965661,0.06347539803004311,-0.0686533633395484,-0.04753298013133046,-0.015483279474678162
0.0670345,0.009012224790817532,0.0710995366663346,0.0,-0.014869105713716472,0.05624322327821169,-0.06335456994355013,-0.04820646619052363,-0.013532191429425291
0.0675,0.014218012677735134,0.03919513135281528,0.22196931470622278,-0.01957536839013038,0.02412740010282174,-0.05755261170755027,-0.04982299172811462,-0.01622390847752886
0.0679655,0.016458355955923973,0.007911932929342102,0.22959302581324034,-0.01937295843131459,-0.03452880633613548,-0.05326719040850763,-0.0561384207062263,-0.019654007894870276
0.068431,0.01732515142938697,-0.01336403650776819,0.22846106307560565,-0.021744165934379604,-0.10049942017055115,-0.04135491885893162,-0.06221109780313881,-0.02106667824251105
0.0688966,0.021453723802324152,-0.03267492038064531,0.2274357,-0.0219883,-0.17471032420297566,-0.01814604391586846,-0.06090543611531091,-0.02398172913840272
0.0693621,0.027278861811735555,-0.059567194527307014,0.23129783324597622,-0.020297552074906064,-0.2533109413780112,0.009952084790477524,-0.04840077422774935,-0.02460421041498121
0.0698276,0.03097744079856359,-0.07888488386371405,0.22332678248252363,-0.01744181813269493,-0.2829913309043676,0.024230377334131338,-0.03595368358920744,-0.0242013135995212
0.0702931,0.03017895485572036,-0.08452775167350378,0.19634663664625915,-0.015542819356965045,-0.27256818448139897,0.02856783871393009,-0.023011287303086374,-0.02353233871393009
0.0707586,0.025546763485033864,-0.06613844379535198,0.15667795318756741,-0.015623915849115145,-0.2406767577807022,0.025101900976169104,-0.015774411188466474,-0.022606088879047415
0.0712241,0.020567325608919183,-0.03265712008133426,0.04578122781381507,-0.015630530857055822,-0.19585394148081953,0.020782869726040754,-0.0031572922675191847,-0.02166875910227705
0.0716897,0.012022451106688344,-0.005286452193360092,-0.05385803750673341,-0.015588873926795062,-0.14960825758668564,0.011871270140002025,0.016732810866717487,-0.01995210108667175
0.0721552,0.011213177791978852,0.007581313194092309,-0.12097081532251694,-0.01748022228470695,-0.05691131334746392,0.002914235402113455,0.024505581895456516,-0.01826287779197885
0.0726207,0.0114882978003392,0.014481396503668613,-0.1490220526403867,-0.018812942774220704,0.07210091007377539,-0.0016535024791191396,0.02322999421062046,-0.016823185039835285
0.0730862,0.012494688579776658,0.018590351258338213,-0.17586019506081568,-0.019337791576590765,0.21680383160769018,-0.0006010665066207733,0.020583575553744248,-0.012646218732507502
0.0735517,0.004695787435335976,0.02979505914685509,-0.24040235399426585,-0.021812789443558547,0.3312929751515073,-0.0019103411438377393,0.013632828564387531,-0.01103658570302005
0.0740172,-0.001851401308734688,0.037359414399637074,-0.29008110104698775,-0.023856120366445712,0.3933704072221724,-0.00339460104698775,0.008836001832228563,-0.01200358146578285
0.0744828,-0.006116655614023126,0.04586046774090278,-0.30349164635874504,-0.02513881223923383,0.4113030582328278,-0.004976056021307011,0.011160400084265632,-0.01431309978933592
0.0749483,-0.008675684383400366,0.050485591476018235,-0.2927621352026616,-0.02575378332319476,0.3403010689773294,-0.00908869080612467,0.019262939615705178,-0.020044763385128287
0.0754138,-0.00536319699223698,0.03328982105434114,-0.23288059534684954,-0.022451998053455362,0.1366276140746155,-0.016469341728651696,0.022721169718231345,-0.026180264286874342
0.0758793,-0.0005038223445971758,-0.00982534386797235,-0.18134069200300268,-0.02025795104374768,-0.04889064058239595,-0.022524281858219284,0.029995050506629067,-0.02860539911453649
0.0763448,0.0009342765792597495,-0.04596852414836105,-0.16012894637142827,-0.015983790400991495,-0.17354295155696078,-0.02191104042320932,0.037643171606535554,-0.02993432992820738
0.0768103,-0.004915437402887242,-0.07898987631661411,-0.1565653860900689,-0.014330389849885165,-0.1872419571457184,-0.021734744922519766,0.027954176502198225,-0.029392558837296495
0.0772759,-0.006124390461878185,-0.08147623520398982,-0.12926968552367998,-0.014300280591585314,-0.13190407861131367,-0.01939201661185909,0.014996556083601457,-0.027409021872799224
0.0777414,-0.00010293620070356583,-0.055894566808748304,-0.05654786228343418,-0.013836447834538768,-0.05864503060804473,-0.01715497401446521,-0.0003519553318431588,-0.02536595269913359
0.0782069,0.0020005675960471443,-0.027520765127197304,0.018772488559733302,-0.012847266201976428,-0.02761797549268487,-0.015714588356248376,-0.009083976567464,-0.023815275841202552
0.0786724,0.00256782005144853,-0.0018313619592584944,0.08195958921501258,-0.01325499240891663,-0.017026115582742436,-0.010441041549896595,-0.014810056774725664,-0.024915946419178388
0.0791379,0.0014243524430299528,0.003047439218969262,0.11885803426173001,-0.016112013102572664,0.07563840476457188,-0.006318191661999215,-0.014038143291635972,-0.025878011867055333
0.0796034,-0.0024276820398175768,-0.018582859195627906,0.12438378160023608,-0.01851267849083968,0.21070671020710846,-0.006603622172542833,-0.012007317960182423,-0.026925558092907677
0.080069,-0.004771608258616849,-0.035655369643247475,0.12078577498548378,-0.020225807226289742,0.24781650212271916,-0.008128608258616849,-0.01014899150271747,-0.02732340309698132
0.0805345,-0.003805487624908231,-0.04495094814093156,0.09757057614692226,-0.021447390515316498,0.15557175717755525,-0.01464288480387715,-0.009735378602554447,-0.03111221028485847
0.081,-0.002262846649549362,-0.02840872791801197,0.04499162800765903,-0.023605720822925717,0.053162768222202894,-0.01694517731903041,-0.014854750509334498,-0.03168950110831606
0.0814655,-0.0025944559254075434,0.0018783255297241687,-0.03110521906004275,-0.023111699650998498,-0.00014933799545578137,-0.01658126537234244,-0.018808425097636187,-0.03314558745118191
0.081931,-0.003580452255488461,0.02922532126501671,-0.11399139114815654,-0.021447349552985707,0.011337772922608631,-0.013477424002721016,-0.020628707324716784,-0.033785994222826896
0.0823966,-0.00272810418590113,0.03893366890225049,-0.1790187124968699,-0.016822634638487623,0.06897328300333769,-0.01217370262513684,-0.01927708923004614,-0.030328805040668916
0.0828621,-0.003487349878590257,0.039386521862177656,-0.23407995676128368,-0.014245208198875429,0.10290434344288552,-0.016659707125512895,-0.019383538206650987,-0.0295950903340509
0.0833276,-0.001426883898374267,0.02375207689762347,-0.249135668666454,-0.012239046970029165,0.050456150207543446,-0.02135178049672781,-0.028450218179825012,-0.0310521
0.0837931,0.0028470282424192753,-0.004777914389596552,-0.21143756664650404,-0.012522530828201579,-0.015933934773415422,-0.022618931873088607,-0.030936453362282415,-0.030828630767713666
0.0842586,0.007371585105192322,-0.024393156179219565,-0.12295729534886024,-0.010214965821210484,-0.04487545829399078,-0.022539756407073876,-0.039338855951365256,-0.02890194045488059
0.0847241,0.011081394324579533,-0.02613960556631707,-0.020145292779239408,-0.007954840791457227,-0.04129798108903134,-0.025298510638751034,-0.04599588770680544,-0.027354212293194558
0.0851897,0.014634830554259265,-0.015226404168611103,0.05459716416740945,-0.004755412690860639,-0.046502182638564815,-0.029382013007796755,-0.043057473614351846,-0.029952769287272682
0.0856552,0.01785827749695037,-0.005405978242985847,0.07160994199111569,-0.00121372399512059,-0.08242313200331422,-0.03012840100453407,-0.03143518923532139,-0.031575635733491605
0.0861207,0.01916369882935246,-0.0040296816227978274,0.03338722454469983,-0.0009887724744685623,-0.13126595622171042,-0.03277125175597131,-0.01781463167701059,-0.032071052926618854
0.0865862,0.01571475043988897,-0.02030385446435547,-0.02986839151285627,0.001582458047254764,-0.15071203214761286,-0.03217360804893301,-0.009726491512856268,-0.03198055134204825
0.0870517,0.01277478603318815,-0.028202012939800826,-0.07266833209870602,0.0014291433886469153,-0.09553299851178863,-0.028341938496105362,-0.002222197767682956,-0.031660229421835065
0.0875172,0.011640154024769594,-0.036517527104752076,-0.07286272693499016,0.0019561512533696488,0.027378343358619738,-0.033419837785874575,0.00532988097473239,-0.03170318938878583
0.0879828,0.013352265371653769,-0.02978565653716538,-0.05103861066312682,0.003052195760157639,0.14316093498314988,-0.03454467179493823,0.009163247880078818,-0.031848591927608985
0.0884483,0.01407939757976629,-0.014297062774233983,-0.05058216505443332,-0.0014709850622619922,0.1543127898560513,-0.041202150070017186,0.008925687575851953,-0.033194712564182424
0.0889138,0.007619931520978662,-0.0028026974578195226,-0.055442797705164734,-0.004112131697330192,0.05139204864520004,-0.04558696067612838,0.008247034910552632,-0.03230630677914794
0.0893793,0.006772290832382308,0.007529038450181465,-0.04152882369441615,-0.006424020592928463,-0.09243825165520293,-0.046092108918602166,0.008949872019164544,-0.03125854809578154
0.0898448,0.006248777560910973,0.017715283216647913,-0.010706394808213709,-0.006754752087895188,-0.2205011965021226,-0.04470298231071164,0.005512665277371219,-0.028937186810523968
0.0903103,0.008158802283850696,0.03703304357089052,0.012187202283850694,-0.007284975570962674,-0.283472344710786,-0.04172613885162424,-0.0019604371397511575,-0.025545948858074652
0.0907759,0.012904919809466973,0.04999722021361555,0.017262512403234863,-0.008788954176838271,-0.26901057129356065,-0.0374028506757965,-0.00841271805894609,-0.024231054176838268
0.0912414,0.015106653730554576,0.05162554315080529,0.018983222830649033,-0.010047113698389419,-0.26092447633000865,-0.03539997716935097,-0.01095837054758413,-0.02457795684919471
0.0917069,0.018869390796682636,0.03488319235051073,0.025177875079847603,-0.012197224103571212,-0.2263603914874173,-0.031163651792857575,-0.009613879913690657,-0.027611436155356817
0.0921724,0.01887255771744964,0.010919644446070551,0.01557137862853604,-0.013317624074345091,-0.1014749773943295,-0.02961487152818967,-0.006929014235905165,-0.029275337076043715
0.0926379,0.019651234385230858,-0.01102409313505514,0.006256606539678251,-0.014169652860679246,0.036861681199285005,-0.034198605070825276,-0.0022128043597855014,-0.032046365614769146
0.0931034,0.017737938305851193,-0.0335346359172134,0.005809000173529277,-0.014698894809907064,0.052506836851238387,-0.03944516366934945,-9.112508219849265e-06,-0.03436138442972119
0.093569,0.016077844047828402,-0.05384201738586667,0.02432650621772826,-0.016470621459849424,-0.08281591074850464,-0.04412325598933145,-0.005803823287023915,-0.03622484520366696
0.0940345,0.01396757121200195,-0.06085569548219448,0.04686409359008276,-0.017868688646039133,-0.23503293033211642,-0.03789568895772764,-0.009758632746863435,-0.033891399441059865
0.0945,0.016277498956234038,-0.05680566049233453,0.0,-0.016769294193001,-0.254779494193001,-0.032704956928662474,-0.005609663208763667,-0.0327122945765944
0.0949655,0.02003803043109888,-0.049599629323257774,-0.0015309604758680503,-0.01510166174134067,-0.11574878660384375,-0.02862119205809045,0.0024724077703858964,-0.03315257182786575
0.095431,0.02169151389700373,-0.045410420323032864,-0.0023056926926653407,-0.012052503870362153,0.09117074230423398,-0.02602923553473177,0.003360953825403869,-0.03492928082802237
0.0958966,0.020923241676184718,-0.039717614963708535,-0.0009490653943606734,-0.009680877009568418,0.2585143395238455,-0.027439171135184584,0.0032252455124459727,-0.03863547054100013
0.0963621,0.02079201224900746,-0.02611999339648685,0.0,-0.0082246,0.3713844214401531,-0.03133896258366418,0.015677766509923564,-0.03906006258366418
0.0968276,0.021536272990612983,-0.014708069259909917,0.0,-0.0082246,0.40686070232060084,-0.03109087566979567,0.034780384976424224,-0.038811975669795676
0.0972931,0.02368628819555966,0.00230223179385374,-0.0004864372722165444,-0.007683787970397724,0.3474552676574987,-0.027550329075034196,0.07034978950580754,-0.034806267207174765
0.0977586,0.026220105887272374,0.013599008577753372,-0.005541041661463423,-0.008393123539797235,0.20507903100223465,-0.025667290943813037,0.09433673640642729,-0.03371180000929227
0.0982241,0.027599215493700726,0.027357788153767548,0.0,-0.006688542450983654,0.10100880053050323,-0.0292190849758938,0.09444356986484331,-0.031493387905952505
0.0986897,0.03101682130051831,0.028727040981744174,0.0007584867843583315,-0.007607785622990364,0.05550573430570142,-0.03264628024475942,0.05257761275771719,-0.03091208991192115
0.0991552,0.03135746975950252,0.023326034586014868,0.0,-0.008969689519190685,0.033288436598598564,-0.03886487157626195,0.012422258468411263,-0.03415380382897184
0.0996207,0.03567474199294102,0.016738019524017548,0.0,-0.00927638234637799,0.014046316181169048,-0.04207239013850558,-0.008287709662523129,-0.03587811932504626
0.1000862,0.0390699032017167,0.010435381443439595,-0.0003839298425812442,-0.008799540314837512,-0.0319794532283875,-0.039344465534284286,-0.01847546852988961,-0.033929658567571325
0.1005517,0.0472794495557307,0.011061512018708258,0.0,-0.00867122522213465,-0.0733501,-0.033848625222134644,-0.037715749392972564,-0.03284376289257849
0.1010172,0.05080735284993501,0.01487491606241876,0.0,-0.006792642487386264,-0.07287247236518977,-0.0320846735750325,-0.047883898621546565,-0.035067763212483755
0.1014828,0.05089711809235005,0.017144621533796228,0.0,-0.005141644837830727,-0.057707046688140445,-0.032509085349096134,-0.04831199814969028,-0.03584781416830857
0.1019483,0.049686670550497844,0.013705143431294396,0.0,-0.004566134110099569,-0.060333478722669615,-0.03269636588990043,-0.045260743431294395,-0.03488173644039828
0.1024138,0.050808986263369486,0.003479152885849853,0.0,-0.00510727205692045,-0.08981705311476865,-0.031004977684080316,-0.038080072153280346,-0.0332591721051004
0.1028793,0.05438096549139776,-0.002565653189344844,0.0,-0.005519382581727909,-0.10630302924112289,-0.028806836620678306,-0.032172608969967854,-0.030511495775847882
0.1033448,0.057097962235072644,-0.009866060543822705,0.0,-0.006331281279453472,-0.09716846999975563,-0.02534062054431144,-0.02831040814732165,-0.02625071591200464
0.1038103,0.05664735507396479,-0.027262327792974363,0.0,-0.0072546337848705565,-0.06230312293860315,-0.021800160006146558,-0.020679187582034228,-0.023022983161836392
0.1042759,0.055328112877111535,-0.039536594849155386,0.0,-0.008790287122888462,-0.02486183474679203,-0.02248489783699371,-0.01364624161917294,-0.02494051071410525
0.1047414,0.05434337975300153,-0.037240579346694405,0.0,-0.010517067851800921,-0.009622684679798557,-0.023429326129397802,-0.009364276197598772,-0.02383352626579974
0.1052069,0.05425773962419126,-0.032292617933051916,0.0,-0.01148611084556967,-0.004267490262814959,-0.024274440563713116,-0.008740668402812842,-0.021758695899946105
0.1056724,0.056836228641703214,-0.020993143594516574,0.0,-0.01216402858704516,-3.031522610364302e-05,-0.02317324282590968,-0.007249879053335691,-0.019905314238864522
0.1061379,0.06150548880680482,-0.0034046059676233692,0.0,-0.014019454892486294,0.0016811365949908614,-0.021228932807587805,-0.0011615170250456922,-0.02081603659499086
0.1066034,0.06741885273320163,0.022408673609155105,0.0,-0.014433233424305785,0.002842797387475303,-0.019652536816699595,0.00780231252410821,-0.026960085377638287
0.107069,0.07081213001890604,0.036296847135163256,0.0,-0.013709657730380532,-0.002369289065986219,-0.019203125492158767,0.004116895473252717,-0.03413243454565333
0.1075345,0.0679987166526132,0.02251421242399934,0.0,-0.012532768620496673,-0.02831337025337283,-0.02056705033500731,-0.01734443137950333,-0.03981666150507417
0.108,0.07060277598653572,-0.02159439194204692,-0.08162618723664551,-0.011667768523592807,-0.07488229129276029,-0.016563503137170765,-0.02885339069775012,-0.04209063336999063
0.1084655,0.06529143437460634,-0.06314584175854261,-0.06783895096616299,-0.011084003318311329,-0.14054786788029586,-0.016761864555503842,-0.006131859419989082,-0.04499550663662266
0.108931,0.06610132148071457,-0.08647593704379261,-0.06297877721589518,-0.010126348331607775,-0.2044749885296388,-0.019053726850893207,0.036695035922768134,-0.05312147314910679
0.1093966,0.06525019156167278,-0.08306880339862051,-0.058223764986764424,-0.009308149370036661,-0.23217209221471186,-0.01850167468501833,0.062165687510013175,-0.05923086498676443
0.1098621,0.06505809099461055,-0.07082755744291493,-0.054372125705537004,-0.0077790797378737295,-0.21960183057814708,-0.017749688743263183,0.08207540668692778,-0.05442551125673682
0.1103276,0.06515507810728635,-0.061244309549424586,-0.0542153,-0.004018731356281937,-0.1673543925462108,-0.01780166864371806,0.09831445429681328,-0.03409553480283972
0.1107931,0.0626414703566376,-0.061836556130985425,-0.05223969269827464,-0.003151848837273121,-0.10332530559851787,-0.018704471490033292,0.06486626997883904,-0.019862335811692076
0.1112586,0.06191129343413258,-0.08040659776961902,-0.04403855141813353,-0.0029410872081043786,-0.031400866315134605,-0.022922865583973006,-0.0014328665656856534,-0.013852256735332615
0.1117241,0.06276926661110606,-0.08885293273862452,-0.025665166906683072,-0.002290896854058558,0.020420803618864666,-0.025549367379606294,-0.06895271471192026,-0.019390672301170534
0.1121897,0.06753641552106943,-0.06567341611640831,-0.0030761683068519846,0.001047162934715884,0.08279266152135693,-0.028892360729537235,-0.08802867619493636,-0.025059963330625733
0.1126552,0.06710089912703748,-0.028179967394078697,0.015145876685899836,0.00257110885516968,0.1513739691821923,-0.02634903522446846,-0.06483936386038046,-0.026609527917651973
0.1131207,0.06694740354775176,0.03245001241749828,0.03338930421070243,0.0029265893567447143,0.1778767882454524,-0.027743892904496477,-0.031151690596361914,-0.022140930241807005
0.1135862,0.07218273342472875,0.07192462193692753,0.04505985129391478,0.003346099907363176,0.13712134124390105,-0.023177728077355114,0.001085885947763287,-0.02005222728430116
0.1140517,0.06506155501283567,0.11342609420741402,0.047114109349808926,0.004125147662547769,0.04987682966865724,-0.028498871714731214,0.03492777994685861,-0.0247075721547516
0.1145172,0.06366676700369404,0.11621576255907533,0.05331337235350072,0.0025753319116248196,-0.011805560217941944,-0.027723917672580704,0.04624138876190711,-0.03276661405955094
0.1149828,0.0616007,0.09476490918191043,0.062006722316510283,0.002135470004128087,-0.06066622236600992,-0.025339655386779295,0.03740818458187716,-0.034429015368623195
0.1154483,0.06180110013086388,0.06368563999561573,0.069246401046911,0.0014530423907536066,-0.08410269869136124,-0.021637599770988215,0.021297013157386743,-0.02497471292837496
0.1159138,0.06189715740378287,0.04403571651075832,0.07293408507816057,0.00035836453339277137,-0.09015032356418576,-0.02003766244323303,0.01193235275129989,-0.016994996822162226
0.1163793,0.06130174967299378,0.01950079950453603,0.08191783588377632,-0.00037943528921955647,-0.07133546455223197,-0.018618517386968514,0.008163200455826853,-0.011781936022506233
0.1168448,0.06107438524422887,0.0032299460190938134,0.090873463595838,0.0004218099897152177,-0.041579211851978076,-0.020156626414446776,0.0061878528130525695,-0.008296345060383604
0.1173103,0.05822807061438713,-0.011388070585365787,0.10445658347175056,-0.00040748835010788145,-0.008324353100957006,-0.019246829482247506,0.0058747,-0.011820909437789382
0.1177759,0.054333329755244054,-0.026898014153072837,0.12021148417532337,-0.0014784100667516213,0.029254058728905942,-0.01734751327947223,0.005224759955498919,-0.013877850111252702
0.1182414,0.05170418750021702,-0.03898846394652756,0.13637605749830722,-0.001607327499869786,0.07335958539136234,-0.01631932539448747,0.006238896447005009,-0.014382894999392335
0.1187069,0.050754018950702647,-0.04627074504632882,0.14607058392454028,-0.00215220541448647,0.10326119076465642,-0.018071114345022656,0.007895837733405596,-0.015978915671056478
0.1191724,0.0502727615060201,-0.04722616672326085,0.14799624623494975,-0.002474769246989951,0.10239966903612059,-0.02230842074026728,0.010773661716889461,-0.018266382205200552
0.1196379,0.048821869782363574,-0.041145330217636424,0.1360316590652909,-0.0015106,0.0484154730952226,-0.02656661812128626,0.014380915789161376,-0.01971420741350921
0.1201034,0.0496800757992566,-0.0336410064174788,0.11384688223016916,-0.001091208871481671,-0.02440887620934886,-0.027803462086937944,0.01571877982990129,-0.020480924200743395
0.120569,0.046367743444832105,-0.034914926220671584,0.09399091326410812,-0.0017072015562666141,-0.07638068100568637,-0.026852397288669567,0.015029483870789125,-0.022051524510632647
0.1210345,0.042656050816166684,-0.031751858907168744,0.07485094931075209,-0.0030272960412583345,-0.0874977803798104,-0.02344026088653958,0.011704996364995815,-0.02228346106005831
0.1215,0.036871626716433015,-0.027624656602841236,-0.00024851218086779334,-0.00622605434732392,-0.07576653097612666,-0.019136757376314928,-0.0007883245369961369,-0.022378690215633722
0.1219655,0.033198496048564244,-0.026204926863281085,0.0,-0.010662761513759668,-0.06838938115526444,-0.016532301635170273,-0.018333383021782747,-0.02077769604856424
0.122431,0.031431570526579,-0.02929700266503542,0.0,-0.014343812489509087,-0.07486810806921033,-0.015796038805956588,-0.036149750449974434,-0.019010770526579
0.1228966,0.028394258471487726,-0.04063050647667713,0.0,-0.016871284887753354,-0.08727477873923979,-0.015411326137025408,-0.05727633477259492,-0.018875839418543244
0.1233621,0.027718323705871625,-0.05652158177676146,0.0,-0.01958421135296621,-0.08645014123529055,-0.01528204123529054,-0.06215598147064187,-0.01631236494116217
0.1238276,0.026576193993859697,-0.07665119207297226,-0.0026282116007956594,-0.021019364938943196,-0.061061537804914134,-0.014735137804914134,-0.047683308124631306,-0.017140935884026702
0.1242931,0.0293736,-0.0962851757488898,0.0,-0.0223239,-0.016276135177995685,-0.012892127275333063,-0.040180545449333874,-0.01960390889237105
0.1247586,0.0293736,-0.10490490910575172,0.0,-0.02313203231969212,0.010838968075762935,-0.012277932658833207,-0.04108570101175019,-0.024151108772283696
0.1252241,0.0293736,-0.09932858032092955,0.0,-0.0223239,0.007614454724823299,-0.011979105903721135,-0.04200658819255773,-0.02812535103562029
0.1256897,0.027806131478701864,-0.08112999558061511,0.0,-0.01981604375100021,-0.024801149061822257,-0.011356931478701862,-0.026949264421095645,-0.03027488626400973
0.1261552,0.023606441424037988,-0.050919678316963125,-0.0020120833745512403,-0.013704943225507145,-0.07147831079077979,-0.012446299116178304,0.004861353166291003,-0.03116124322550715
0.1266207,0.02094309530853991,-0.024697816514339083,-0.002471258162940765,-0.0063973085318865235,-0.1082456418119541,-0.014000838684314038,0.025947261315685963,-0.029544743400879266
0.1270862,0.017341666264494748,-0.002560814255549711,0.0,0.0023515508024292797,-0.12095620780047542,-0.012894487210423482,0.038367739575245315,-0.031126886429227202
0.1275517,0.01302714591278858,0.02338593988873533,-0.0015345568533933294,0.009788715954745833,-0.10916547507889014,-0.01284576601493653,0.04352742205733836,-0.028419760880414053
0.1280172,0.011753111496245118,0.04611532649878759,-0.0035381526697340067,0.017692796332075916,-0.0518072037910423,-0.01021490884576537,0.03790485189552115,-0.02407561891670299
0.1284828,0.007260857127539983,0.06563940061075123,5.194233782730307e-05,0.024417093662329074,0.013795800223217093,-0.007643350566651962,0.014314421585897812,-0.027652173832566428
0.1289483,0.006395635536152494,0.07645460938994118,0.0,0.030200016533698526,0.02981676199509207,-0.007590247107230499,-0.00693706642241273,-0.028404729606804183
0.1294138,0.00527971763540942,0.08205738436808938,0.0,0.03663619418754348,-0.000992617803423346,-0.0075532,-0.01949467855563285,-0.028689467521376525
0.1298793,0.005707076750438751,0.07761674157324468,0.0,0.03643424723493048,-0.06756445849180712,-0.009117870720848954,-0.006591681505011141,-0.029157695678383392
0.1303448,0.005074514000316706,0.0744141324004334,0.0,0.036246148398533164,-0.12827790449897072,-0.011610860500237529,0.0027379495045130667,-0.029363846499920822
0.1308103,0.0051683528090035675,0.06416415112346968,0.0,0.026038017758661783,-0.14491209893840376,-0.012286213202250892,0.014057216854021407,-0.02858421485651869
0.1312759,0.006181022725244942,0.055556456835417996,0.0,0.010848044429839823,-0.1274436182980387,-0.012539380681311234,0.02013323635146965,-0.02896392836770988
0.1317414,0.007388111940845946,0.03747225342847929,-0.0007345203735012017,-0.028292127014257557,-0.07440625582041402,-0.015081922089792992,0.024359026714239645,-0.029494316865310514
0.1322069,0.005850950421697661,0.0310537482352985,0.0,-0.07599763990627285,-0.026045194284197833,-0.015536109977422656,0.025937433690862176,-0.03002125042169766
0.1326724,0.004333682669222257,0.020541725042817392,0.0,-0.11592721778438754,0.003973606474804393,-0.010870837085206598,0.020938258638407196,-0.0285344
0.1331379,0.0016878834186408206,0.011515038712281052,0.0,-0.1402057986418782,0.02840777349463869,-0.007446921580520399,0.017203078087840436,-0.0285344
0.1336034,-0.0026302328539248446,0.003747967146075155,0.0,-0.14090983395000137,0.05524117681377071,-0.006277919712354907,0.013783312080308271,-0.03250180453513605
0.134069,-0.005640088113029765,0.00038109428251606036,-0.00026691315660209877,-0.11411489054343346,0.0653676953651938,-0.008353807104256946,-5.219465642432067e-05,-0.035551698730368134
0.1345345,-0.007968951076848255,-0.0025003427788219245,-0.001438600669737848,-0.07090202888471231,0.06324158930529451,-0.013356922989113035,-0.02069352728501023,-0.0383190754111849
0.135,-0.007429738689884305,-0.004803532247368306,0.0,-2.3121486033176035e-05,0.05592488173522482,-0.016558940507556755,-0.0089482512322548,-0.04012925695465948
0.1354655,-0.011508364728323858,-0.007083105337010499,0.0,0.0,0.05711426667502386,-0.014117685935668506,0.0458036322783861,-0.042627375402344854
0.135931,-0.01061500265527937,-0.00776923561274732,0.0,0.0,0.059501473021808686,-0.012253,0.08013367715169842,-0.04156279613874108
0.1363966,-0.011146496187252655,-0.009736544498276638,0.0,0.0,0.063144810223356,-0.012549780541273424,0.06727222359776341,-0.04757238518380594
0.1368621,-0.012518545689218017,-0.013749814570222625,0.0,0.0,0.06364367227808906,-0.014372431466172977,0.015275401418534318,-0.061679446730750764
0.1373276,-0.01465019998179884,-0.017822841585325704,0.0,0.0,0.06656071489391847,-0.013397158414674294,-0.04634324951195423,-0.06865494055318248
0.1377931,-0.016456374402701177,-0.019490041309711156,0.0,0.0,0.07156223129477195,-0.011729958690288844,-0.05634644785826693,-0.06587635711817626
0.1382586,-0.01758239487143781,-0.020838892288394376,0.0,0.0,0.06868938172098636,-0.011212204102849753,-3.444199687308697e-05,-0.061120714980541384
0.1387241,-0.01862458850649658,-0.021485953261215364,0.0,0.0,0.054283854890372164,-0.013491475154845627,0.08136777429846609,-0.05984185388059788
0.1391897,-0.01961782309330626,-0.02522712701371385,0.0,0.0,0.035583856283593174,-0.017999338560366982,0.11995046927991879,-0.06093115896942732
0.1396552,-0.01904666620073237,-0.02769222457972931,0.0,0.0,0.02539655851281646,-0.020770591479363127,0.11468659580659132,-0.06593902667643366
0.1401207,-0.01759387022965947,-0.03026739623299538,0.0,0.0,0.019424007036179296,-0.02177996432127357,0.11513212275208923,-0.07639793780217972
0.1405862,-0.017141733397695556,-0.033582737137270884,0.0,0.0,0.021232374802147753,-0.02117717506595075,0.13246226895214847,-0.06178034325107317
0.1410517,-0.017033436624015366,-0.03759373373651089,-9.426090026480018e-05,0.0,0.03123904199473747,-0.020165633744008687,0.09758487778351584,-0.004057580251737873
0.1415172,-0.016251219489029987,-0.0368195166534399,-0.001829682691549852,-0.000801428730171025,0.047628339264606745,-0.020226600215549114,0.0015484712698289748,0.04300421293056467
0.1419828,-0.021821675757179956,-0.0377661,0.0,0.0,0.06255390691964306,-0.0236667,-0.08937564347864782,0.04546983866420999
0.1424483,-0.023569756997555365,-0.0377661,0.0,0.0,0.0654675203072307,-0.0236667,-0.12317338519031013,0.02099565979282816
0.1429138,-0.02486342985228843,-0.03372709218754009,0.0,0.0,0.042592139465420606,-0.023367517536927892,-0.11008866596836753,-0.00040673590385831423
0.1433793,-0.027930219078930497,-0.02551694973085353,0.0008042040158925419,0.0,-0.024146774502845345,-0.025109028450225012,-0.07134991626420377,-0.009748569611000528
0.1438448,-0.02171129608610365,-0.017580302043919818,-0.0010054185572787686,-0.00037446672590959323,-0.11099959702109191,-0.032371523908479374,-0.025527011992847043,-0.01057677089096394
0.1443103,-0.01839736595747436,-0.012484528746476507,0.0,-0.00029956790061102037,-0.20827814792175736,-0.03893647251174856,0.04266107956649409,-0.013242926836229362
0.1447759,-0.015527148862514058,-0.008405511223832356,0.0,0.0,-0.303723965613902,-0.0414774447641604,0.09074374463231857,-0.02083749808232859
0.1452414,-0.01357464975858421,-0.008411925916394796,0.0,0.0,-0.3846263248792781,-0.042193856132681,0.07900475356704245,-0.036967387734637994
0.1457069,-0.004889040128030977,-0.006524348765481753,0.0,-0.0016677514061154048,-0.4283782977548387,-0.041458857059738216,0.04649414294026179,-0.03956363810674493
0.1461724,-0.00536032741970849,-0.006942195161426343,0.0,0.0,-0.44503575198389933,-0.037203411290567416,0.036186741564106936,-0.03400343871027591
0.1466379,-0.0032944860044696223,-0.0034132543311601155,0.0,0.0,-0.4137354491745193,-0.03271712185104266,0.0568443299204698,-0.01940904899794997
0.1471034,-0.0014150717064743753,0.0018524834321112355,0.0,0.0,-0.3186667558357821,-0.026854422858606307,0.08698826928534843,-0.0022732906370580477
0.147569,0.0024617461046171187,0.007177436985883879,0.0,-0.0007912415452504984,-0.1698872246357515,-0.0221612831170849,0.09719576122836554,0.008015314650726864
0.1480345,0.0035282560820109003,0.00784307478482234,0.0,0.0,0.0205049267320705,-0.022622685405527882,0.08663225299415056,0.009020752054169662
0.1485,0.006484017928185955,0.004215742869282273,-0.05093389141410318,0.04433859091809966,0.28455279059750904,-0.023779365977003343,0.05903580605633112,-0.0015074921704954806
0.1489655,0.010679451426530241,-0.0014310944646453107,-0.058328502979936574,0.025063562696838827,0.6672745640328545,-0.02369249300175351,0.03647701253360118,-0.00954160699824649
0.149431,0.01495813169161412,-0.0066807263240177255,-0.0639897643810006,0.0028271657859671043,1.030903425852083,-0.024883879700969884,0.012340607669313936,-0.012427265582888172
0.1498966,0.017613577619633402,-0.008537717532585974,-0.05866990923680652,-0.01908982470171196,1.104952417280461,-0.03023154866748676,-0.013661320312686069,-0.01737115195337678
0.1503621,0.021406165654733286,-0.007212641178393445,-0.033290875572959865,-0.03151871600888099,0.8065131765141195,-0.023730665421869183,-0.030691087917290596,-0.02666960207951784
0.1508276,0.014993529146569953,-0.006892536809832562,-0.015790695335838375,-0.02666877450300514,0.33183437300345464,-0.032300864817499456,-0.06169261167002013,-0.03435494010222522
0.1512931,0.019087564038409385,-0.005731913954690322,-0.010161322863191342,-0.012594398262124192,-0.00661844991628094,-0.02749838720389355,-0.09251604806884414,-0.03785495929451291
0.1517586,0.019457155529607004,-0.0048676,-0.0031633574117321656,0.0041689340487892695,-0.12809369623574968,-0.023332054020849483,-0.11273082437392082,-0.04194895552960701
0.1522241,0.022091022823250046,-0.004695571153071226,-0.004432932935908211,0.009856183041746697,-0.13269895810481575,-0.01830180954921585,-0.1085963518553583,-0.04484086842295302
0.1526897,0.02379080762751275,-0.007462703389798981,-0.007462046227375622,-0.0032263665661695024,-0.11506541209637608,-0.01535747203369337,-0.08539404256436499,-0.04651250470187307
0.1531552,0.025151941848100986,-0.01287841832607596,-0.01129637165162706,-0.04005622791874344,-0.08331063579289293,-0.015343272510886059,-0.05153652626606666,-0.04490758074882383
0.1536207,0.023725862488937176,-0.01915012601287897,-0.015236013432385405,-0.10949686248893717,-0.02969022825160987,-0.017547913006439486,-0.024055918261681648,-0.038036993283807295
0.1540862,0.02450578894610787,-0.024539391657373507,-0.017876217832056215,-0.2116410986443672,0.014715445122534707,-0.019315299765506586,-0.02383406183345152,-0.03391378712148823
0.1545517,0.027345372032404752,-0.02855950321944285,-0.019816569550312715,-0.3234355801064121,0.018185072347314604,-0.02117455287616767,-0.0385108498679453,-0.03392408569832742
0.1550172,0.02919846047339746,-0.03147330067628209,-0.019688439864743584,-0.38581685615534345,0.0005764803598994753,-0.02342901436899946,-0.043543921623077006,-0.036483780743910295
0.1554828,0.030124115968881968,-0.033000370025931695,-0.015330021008039018,-0.388844115636624,-0.02892031178217378,-0.027678936976401967,-0.06321732886230252,-0.041656585994294636
0.1559483,0.03190323258851901,-0.031407295926435125,-0.012998114455137605,-0.34111899389467115,-0.04006790685602411,-0.030939393691992147,-0.0722863741623627,-0.04592882394092577
0.1564138,0.03330350581414485,-0.026395885035692592,-0.010763075631510948,-0.2564553143601472,-0.035819745654690725,-0.031466813550173264,-0.04251562517846297,-0.051777708546002325
0.1568793,0.03822704801034848,-0.022822353722816848,-0.005422854568004409,-0.17613087731694096,-0.017542276794824015,-0.032067209890817766,-0.004762921704702649,-0.06103980009952318
0.1573448,0.04007059324390865,-0.019553806257616116,-0.002595952538918802,-0.10428991419348597,-0.0129244,-0.032427715326680595,0.012536921584296716,-0.06595969817111581
0.1578103,0.04160790137398712,-0.01889239677242339,-0.005725580689415229,-0.05261140322757661,-0.051660351761126336,-0.031108014404194154,0.0024803368773298243,-0.07148500137398713
0.1582759,0.046041664889857024,-0.01653920992657135,-0.0053980251835716205,-0.022576250573141828,-0.09923397001428735,-0.03077948474299973,-0.02043756541814492,-0.07374888474299973
0.1587414,0.045295744714344874,-0.01604192980956325,-0.006641225476091877,-0.015614403001176292,-0.11017405852231772,-0.029039004333471372,-0.03411269456971984,-0.07200840433347137
0.1592069,0.042549099769257026,-0.014815541786446769,-0.014950303978179282,-0.023426003747436308,-0.09902969495636431,-0.02332829449487836,-0.048749533084955894,-0.06962663544661168
0.1596724,0.04067835996072868,-0.01176231982327905,-0.026362400245445766,-0.03157709970546508,-0.09700549241963222,-0.015545379734918574,-0.06196084043198455,-0.06906778002945349
0.1601379,0.0394193408947573,-0.006126205769213187,-0.034118303589752964,-0.021801899113148403,-0.11437373063576338,-0.007060339107877937,-0.07562481281785882,-0.06992574628738388
0.1606034,0.03692141298655577,-0.0015976981588584312,-0.03468952090375802,0.00818392551904035,-0.13661561131768696,0.0009803697561516418,-0.08140498802015139,-0.06456289031536415
0.161069,0.037123294470314316,0.003688926363416687,-0.036759,0.045861621280814086,-0.15013757662496768,0.005748876834449855,-0.07328892327029123,-0.05299433878381871
0.1615345,0.036470418239438,0.00979117672533896,-0.037227164829375874,0.07994029944741354,-0.14057229183100808,0.004626136478876009,-0.06396240745394229,-0.05565820880280998
0.162,0.0359511581180472,0.01627556925218646,-0.000984143796848523,0.10891394194405049,-0.10253427938038961,0.008978515974403294,-0.060926140419268644,-0.09174208720358316
0.1624655,0.03424419452082847,0.0209546916330877,0.0,0.1325391058440489,-0.05354684912209022,0.02709290009522678,-0.050979039189811934,-0.14055752553418166
0.162931,0.03257175940792386,0.024102640541863965,0.0,0.14390820148019035,-0.03402722182020824,0.044100923250186407,-0.03800252462995241,-0.16649744059207613
0.1633966,0.03183050812196367,0.025484723755752635,0.0,0.148911651268218,-0.033298145618235256,0.048266096886453246,-0.03750173874797578,-0.171739151268218
0.1638621,0.030093965978793998,0.0282881544339296,0.0,0.1502055136084824,-0.01514152284948771,0.03319577533991985,-0.036452679587276396,-0.16912213195758802
0.1643276,0.027557797106851523,0.031108805915350216,0.0,0.1386615972876733,0.005972232289077777,0.01183927416873778,-0.002862176596705658,-0.16407549873424754
0.1647931,0.022775129483438277,0.033362537015364596,-0.0014515674263941413,0.10731197905481156,0.007821188105906415,0.004379550759584269,0.07613429898862005,-0.148052722436596
0.1652586,0.022998859189179998,0.033414456632015435,0.0,0.06817692995951843,-0.005206859189179998,0.018325234469375364,0.15775874760802155,-0.12130388777714764
0.1657241,0.02328116240158399,0.03440247582848087,0.0,0.030630770897581962,-0.005489162401583988,0.03399302071084824,0.19615181630717,-0.06399658794082898
0.1661897,0.02392063778504019,0.0345769,0.0,-0.010786053673110065,0.009496675696394265,0.0494361245562335,0.21442763680828372,0.05903550890241298
0.1666552,0.03042181990910168,0.028660328343786887,0.0,-0.03394801127985562,0.041668005034197146,0.05159352198073935,0.12920311846286223,0.17208921514901773
0.1671207,0.022339168778991277,0.015971528114699485,0.0026515579159053235,-0.03351703231459748,0.053710580548960156,0.0609339905621153,0.00532537759835431,0.18996427292338924
0.1675862,0.0246738,0.014852882836714498,0.0,-0.009382417903893782,0.05627026876103549,0.0558434813272484,-0.05356196552511075,0.12821937978953277
0.1680517,0.026654539418419998,0.00867800787741066,-0.0001384992979539279,0.03188712481157983,0.02818183510287432,0.03790429172828889,-0.03036402736365312,0.06331685631766895
0.1685172,0.02590919352555893,6.376013411606759e-05,-0.0010365613162351768,0.05414729461335023,-0.01999665861670679,0.00904853313615348,0.019040401424041477,0.05500421572841131
0.1689828,0.027376494009880296,-0.00733715806916207,0.0,0.052590450109987474,-0.07740795185906742,-0.024620149890012526,0.04763591469130116,0.07550532558151243
0.1694483,0.028696267875703636,-0.01681285833468911,0.0,0.030372338557901758,-0.1324883808085774,-0.04658911398874185,0.0581380881886573,0.08638307875703635
0.1699138,0.028179551615518186,-0.029232224973614614,0.0,0.01095509140191718,-0.17420372161889264,-0.05101375243615203,0.06054132582126973,0.08250378280383437
0.1703793,0.02676423245070636,-0.039551879864772925,0.0,0.005798190332401627,-0.1887471010088575,-0.04657796481648051,0.05711435086197781,0.07795814384226035
0.1708448,0.025570949455088324,-0.05068064528564934,0.0,0.006897265819026284,-0.19260881591395348,-0.03913020671236013,0.04575924691216718,0.07438813163805257
0.1713103,0.024358448951996067,-0.0614175594320354,0.0,-0.010557486852617474,-0.19321484895199606,-0.029878874599967225,0.03757284064342317,0.06266712895368143
0.1717759,0.022446022633488712,-0.065241461046144,0.0,-0.04308029513428386,-0.1663341746614766,-0.016469551261266386,0.0334069687102065,0.05095720919750551
0.1722414,0.018443536094445757,-0.0659648,0.0,-0.07034963855998166,-0.09872954996117417,0.026428126537127724,0.01898735150477286,0.05536084697751233
0.1727069,0.013775167062637537,-0.059552194734767055,0.00034991166157111934,-0.07861250430601537,-0.015095423065310755,0.13199644447001785,0.002574059134611434,0.0785272317203134
0.1731724,0.014536517442655337,-0.03846113669484706,0.0,-0.0741396081383992,0.024434790150742704,0.2682474016729308,-0.00179128896966997,0.08672389249767236
0.1736379,0.014880300555096659,-0.016818686517959043,0.0,-0.07115566518640891,0.02202898485266907,0.3517883521399328,0.002828630372817822,0.07608182133155013
0.1741034,0.013942966795015626,0.0063517603921067,0.0,-0.07369440095020832,0.0012864032977161818,0.3149892941622525,0.007705432987643204,0.050220704477674544
0.174569,0.012739980410118527,0.02348475930928428,-0.0013960624883267037,-0.08524858403093569,-0.00966924969830482,0.12741081039104088,0.008516502924040431,0.016556737796311165
0.1750345,0.008571211804386601,0.04070218427497618,-0.0017407620425839015,-0.14074131581268515,-0.002385358723572564,-0.0904620587660475,0.0072924708312246105,0.002145983324898443
0.1755,0.002633209198471055,0.051067217095535654,-0.011620821217372875,-0.2131000309891337,0.011993422782415202,-0.21757198641605585,-0.0005692966247574561,-0.0209938458099883
0.1759655,0.0015495020134434448,0.05851456478244029,-0.012411538299049124,-0.28341670838613076,0.010253619604429021,-0.24428954932754668,-0.014126413757924297,-0.03292180996045157
0.176431,-0.0003070882527469569,0.05652082147448836,-0.013413360133910314,-0.3024195649378552,0.012497480066955157,-0.22679716952636983,-0.023644322813591502,-0.02272164925854922
0.1768966,-0.001984762981634177,0.04809302707933663,-0.014168576149404036,-0.2911596206218553,0.046464262590572306,-0.20705976190389275,-0.03365100680082111,-0.008598191177039076
0.1773621,-0.002919275181966983,0.03533401123816249,-0.015477840102015392,-0.2494645341037077,0.0885319551376218,-0.16616361868554358,-0.0495640344862654,-0.007798398040849676
0.1778276,-0.004061548280253024,0.02456623673038139,-0.01561,-0.22122664782432838,0.09521352530784744,-0.10616144120573534,-0.07387756865682187,-0.011311373946260231
0.1782931,-0.005009233564146145,0.012523104901585922,-0.0149386,-0.200564134949023,0.06347819317965338,-0.01543912818319327,-0.10913233417730728,-0.0038709503990707527
0.1787586,-0.00601700604644516,0.008039424302608065,-0.0149386,-0.2001474030232226,0.03996092910395821,0.02925679484816759,-0.1262208141686354,0.0043759112622402535
0.1792241,-0.006800103586386789,0.0072175,-0.0149386,-0.21203817172773579,0.01949429099948794,0.05929019307118655,-0.1333922552921452,0.004990144620419816
0.1796897,-0.00424928396610979,0.00917861603389021,-0.014775124981585659,-0.225084805731429,-0.0005373992256265555,0.05639660495744334,-0.11878913683201818,-0.0009891087541020875
0.1801552,0.004135470542843707,0.007875250419483126,-0.014280849580516876,-0.2051213445467194,-0.045526371159646625,0.03333117950973978,-0.09135450728896358,-0.003683057486283371
0.1806207,0.015696854420491176,0.0003278702901817563,-0.016111585715812865,-0.15036758049662086,-0.11115324852253687,-0.009729926078112716,-0.0625287573674853,-0.011194643995988414
0.1810862,0.028369476135694682,-0.0024269583876733213,-0.01834851499349772,-0.11386673984329009,-0.16458138323746568,-0.04608275937316037,-0.048735293877309876,-0.017265674366658094
0.1815517,0.033266923656820435,-0.008499817786386088,-0.019088430903454173,-0.11729232734617696,-0.17360401809354842,-0.05951092214854174,-0.04163626372382757,-0.03223211466835052
0.1820172,0.032350712963292956,-0.016362436383889335,-0.020146991269982695,-0.14294750319110622,-0.1445491835821348,-0.05965396494819779,-0.03930580514371208,-0.048834891955099394
0.1824828,0.03209672332212147,-0.02523062572336011,-0.02189449169469633,-0.16327375256941665,-0.09815158303192799,-0.05078727315394347,-0.0346342399327288,-0.06516743219932769
0.1829483,0.03398168120573945,-0.02888503534289909,-0.023590272225058634,-0.14734257812902574,-0.06170271530200096,-0.034807145800475274,-0.03248661879426054,-0.06916883989650818
0.1834138,0.04108345472029796,-0.030754756535340627,-0.023555659706995094,-0.09529798044041334,-0.042098774794002175,-0.021289502474756694,-0.031339936278856194,-0.06041551690204974
0.1838793,0.05607819447593056,-0.029700841734545402,-0.021847072712070776,-0.03910325504480155,-0.023275095413816768,-0.01268384678967174,-0.026857179581020837,-0.04441281467076295
0.1843448,0.0848493643111482,-0.02663803161859975,-0.017790215175392355,0.006460035407649323,0.020446504872595306,0.001314102341763739,-0.02121126187245129,-0.03685668618455734
0.1848103,0.12258308270546456,-0.028008869346688163,-0.017683805108885304,0.03165771691779891,0.07591648978222938,0.01491776074070064,-0.016273528098869183,-0.03770649489111469
0.1852759,0.14163241764670487,-0.02605654701430813,-0.01894417313468107,0.03933046567340535,0.09088529946510732,0.009400047281754476,-0.016935679851010802,-0.03512615373063786
0.1857414,0.14535659883533775,-0.024389313750942995,-0.018247399667239355,0.019783922641442707,0.07443985004777623,-0.02902322773909417,-0.019677561872983217,-0.037483312490728275
0.1862069,0.1375105244893151,-0.026771199485056733,-0.016005664139804324,-0.02028693296660243,0.06267082200117034,-0.05956679082796845,-0.02149893025281016,-0.05555717997203117
0.1866724,0.11281084464143588,-0.03227358572943495,-0.009273463776983744,-0.06878150164416257,0.048571142891228644,-0.05952473294917369,-0.023871745310464463,-0.09476677568133532
0.1871379,0.08652128987033843,-0.04049334983319938,-0.0069250644600323055,-0.06892833691111375,0.02848909406566994,-0.02892013692699445,-0.01885963971941851,-0.14849530106930622
0.1876034,0.06486528663405772,-0.04611845254382458,-0.006284313135956145,-0.042937152112716294,0.015272730573902294,-0.012140516173171382,-0.015151111440073091,-0.17673292910800537
0.188069,0.040151801642469245,-0.0495870299678588,-0.007151457491964701,-0.028773794297909893,0.009347287192728948,-0.020667478725473955,-0.013705870846725499,-0.1923414414130558
0.1885345,0.01117538222924118,-0.0498512,-0.006907850215647938,-0.036365293961857746,0.007347751078239689,-0.03989579482109265,-0.012821629419104303,-0.18563417661903794
0.189,-0.013933036982581366,-0.047405269917696356,-0.0068818,-0.0424758044706994,0.008522021950398114,-0.04015427804960189,-0.011125847562002356,-0.14730197440633291
0.1894655,-0.029443437160095284,-0.04470542585184275,-0.00873687865751475,-0.030730324664291715,0.007941940447495084,-0.024347831411124628,-0.009686737056875295,-0.09641894022339964
0.189931,-0.04320190498939535,-0.036242966298755855,-0.00913725259427229,-0.0018096237028638548,-0.0019846906628553417,-0.009387079804090185,-0.006908799258779345,-0.0515393770383568
0.1903966,-0.06145330461748467,-0.02748517731478985,-0.01335618421133209,0.03763359296498647,-0.004273623854423699,0.012495980648779749,-0.0039345589943118615,-0.03059430300213563
0.1908621,-0.07371620988708928,-0.019169568731383594,-0.008610885530033483,0.08215513474596282,-0.006270856092207686,0.0612164633409071,-0.0031262335580925335,-0.0013265217225909077
0.1913276,-0.07958013143043616,-0.01572120142717289,-0.005913862860872294,0.13050493072190428,-0.009938071423909633,0.09185476962109994,-0.002126404807286714,0.0484566517864934
0.1917931,-0.07854086054617426,-0.016500654590369306,-0.0038353210923485147,0.15934454296855952,-0.012536248634564357,0.087437945758793,-0.001736716923591554,0.06456527309674659
0.1922586,-0.07242606133372323,-0.018466176206358348,-0.0012579613337232267,0.18819464526190688,0.001998666584200056,0.04674754207357087,-0.0012401887027697867,0.022380577091456702
0.1927241,-0.06146428247927847,-0.02266370140850342,0.0007395637481729959,0.19279100537073937,0.01082366058081645,-0.013688061697020425,-0.003240155531401656,-0.06679465116076573
0.1931897,-0.03841064338675792,-0.026431931474270153,0.004770794422810468,0.20749334549630113,0.020855037449233095,-0.07398079617201839,-0.00566641035883225,-0.1705912159360218
0.1936552,-0.017374135426501867,-0.027415187102237917,0.008028367755594795,0.2317805151346854,0.022046927571026335,-0.12860509269063333,-0.007301180653356876,-0.21021429366596348
0.1941207,-0.011897663502428718,-0.02810824857020556,0.009373778574486104,0.25271618570205556,0.00933560299942311,-0.16467937208119537,-0.008147151429794441,-0.1563096050099572
0.1945862,-0.019196552045422196,-0.02868071376041686,0.007942615598957847,0.2584408376041686,-0.007265802252303406,-0.168543469482921,-0.007574686239583139,-0.06729169425410593
0.1950517,-0.0363054787731176,-0.024273345393689534,0.004323431061086647,0.2422627477982847,-0.013067488689376908,-0.13744469171555537,-0.0036096109998314347,0.012114288844772737
0.1955172,-0.04392119833528881,-0.0245665823591583,0.0019100719042031964,0.24003834897714438,0.008196802045711254,-0.10594936433731654,0.001402189662524039,0.024405959902016047
0.1959828,-0.05457909050685736,-0.02097663417632119,4.959317323794836e-06,0.2423118428069089,0.02559350126167776,-0.06043350161892351,0.006114180262954188,0.006566475721552329
0.1964483,-0.06255957915250138,-0.016451246473879605,-0.0009129131662323476,0.25396787664747283,0.026650531033793418,0.016177589184184302,0.011306817006865482,0.01721785901108647
0.1969138,-0.06410618664906857,-0.014196270852475665,-0.0015472089440530731,0.26328557160923927,0.019125518018402513,0.09178933415246257,0.015817568695814244,0.06930732901722797
0.1973793,-0.06630355281567757,-0.01219006781163832,-0.001952794219477107,0.2577621319653249,0.03189395261994742,0.13376662040427906,0.018947719268409643,0.09564716608052751
0.1978448,-0.07229593677667526,-0.010137781427192207,-0.002968854710670103,0.23633836864098234,0.05335251838833763,0.11018977059470261,0.015137517025309279,0.07542708593616425
0.1983103,-0.0750897962108847,-0.009189041327168542,-0.0041316103072581165,0.2109516364679477,0.054014743958059996,0.04268599694698264,0.006772163924596591,0.044594135329287694
0.1987759,-0.06817891535567372,-0.008322678836822636,-0.0029605457945037577,0.1972352451228454,0.020096959013332964,-0.04755839585543846,-0.0005723601468815187,0.02275102349777784
0.1992414,-0.05789863252375954,-0.003541250172296508,-0.0005434259517733619,0.19994832595177336,-0.033293899575506714,-0.11132974836114602,-1.9912975886680976e-05,0.022184246930396122
0.1997069,-0.04623206481890737,0.0020211031809100424,0.0018830932289088235,0.19085834144508923,-0.07730730427382121,-0.13935396232163738,-0.0016210405061816116,0.032912267181275226
0.2001724,-0.0380264896064559,0.0064452630820252,0.0026351315410126,0.17015000655094337,-0.1042178053769622,-0.15027929690471847,-0.006901632648712119,0.043000712155722584
0.2006379,-0.030992330852858817,0.008890660892970826,0.004304540595313884,0.14438745271892248,-0.11275974170576862,-0.16088920936462509,-0.01854777025759593,0.05589695597016471
0.2011034,-0.03127502432986662,0.010154218247399963,0.0045319,0.1346753783506669,-0.09981031904849441,-0.15954264525780013,-0.0406051098413448,0.10681528506732874
0.201569,-0.04844119843842101,0.011924272541778223,0.003767043852242303,0.16121008335001247,-0.06716525461925214,-0.12247206314652725,-0.05222183859672088,0.18698633554786076
0.2020345,-0.0698727200573487,0.015691226307331076,0.0024781787430120206,0.19265173394506976,-0.04050850530967909,-0.06160936242860489,-0.046417304020549194,0.22216516931415733
0.2025,-0.08560132796249231,0.018426643463354177,1.6384786569662604e-05,0.21111567752225807,-0.02546371095155202,0.011015596385905525,-0.03930530089886756,0.20520566443079252
0.2029655,-0.10168972144608181,0.023498165657098256,-0.0011362180263770573,0.22991408368347532,-0.011169904738557602,0.14735586402213852,-0.027277241618644532,0.1361339351603816
0.203431,-0.10777366569466476,0.027264416858601998,-0.0008465063954921539,0.23339062325409415,-0.0030579790737803076,0.23397929645370896,-0.017861656765262128,0.09093909334384452
0.2038966,-0.10335811766684086,0.032232981155369746,0.0003791045534172918,0.19205304165020745,0.0004970963088915556,0.23799149293326366,-0.010313828266945381,0.066649970982844
0.2043621,-0.0819163122014063,0.028399305276886607,5.824555884465497e-06,0.09421601062109683,-0.005862975597187408,0.1129640402027197,-0.005356281387037309,0.05137790875597736
0.2048276,-0.05701012486713643,0.03195046708521511,-0.00021618594869094322,-0.025107248669695333,-0.009327270619334166,-0.032215616670169284,-0.0017649684484300058,0.023012505046652646
0.2052931,-0.04471286101501444,0.028466808640972438,-0.003658947439456066,-0.09729447173816226,0.0023340506093446063,-0.11547945246729296,0.0009118535550061368,-0.0017013668738194469
0.2057586,-0.03641436188401014,0.0276146569560913,-0.007024809855837686,-0.13038604931783257,0.014710157391878266,-0.14983025695150884,0.007740900435786963,-0.022072688788992375
0.2062241,-0.031721910982792284,0.026420075606883087,-0.010361244774988138,-0.15436114931900238,0.018049208131038972,-0.16857526916810506,0.013438716262077944,-0.034228894720714345
0.2066897,-0.03581221101211212,0.02478395559515515,-0.01213366750639036,-0.16526853483458256,0.018594581468281617,-0.1719838119112352,0.014529462936563233,-0.0372284480755489
0.2071552,-0.049533504327960755,0.019592472249359984,-0.01320620575678089,-0.1550501520911377,0.02753057984177772,-0.1690071804984648,0.0132601,-0.03439775366564318
0.2076207,-0.059597808805270054,0.0132976477566623,-0.0124478342100821,-0.12731501007341653,0.04458912515017731,-0.127763749615605,0.016508969601756684,-0.03603353480087834
0.2080862,-0.057521577429614536,0.005871383529551921,-0.010684551323182186,-0.10394165812775064,0.0445041350676809,-0.02797083291100081,0.023768998028371353,-0.03515534649024238
0.2085517,-0.051263828819686136,0.00033088153250951456,-0.012272104154654368,-0.08307666052303425,0.018089082866786173,0.06397226780035216,0.0362701844161715,-0.016950635083309826
0.2090172,-0.04658115774435835,-0.0022260326330702145,-0.009625735211104488,-0.08531807581689999,-0.028267973727691936,0.10789401457210988,0.04118170340295735,-0.007165548469465077
0.2094828,-0.03428508862130252,-0.004325881728932385,-0.008633111486366866,-0.08030690637913576,-0.07322557856696936,0.1287404,0.03437890235083305,-0.018692304649206456
0.2099483,-0.025744089353212343,-0.016635609134672477,-0.007685012115377004,-0.08256778080127317,-0.0998688208506473,0.11886847652530358,0.02388984641018536,-0.0629845064143439
0.2104138,-0.001960955272170939,-0.03334871659765887,-0.0063436148710015105,-0.10463999162636499,-0.11122272813017019,0.08547259654668529,0.005574345171878582,-0.1109703239483378
0.2108793,0.042875912715710625,-0.04812398634988267,-0.008565662679929057,-0.16167225754273407,-0.09935787970577374,0.016268178842930168,-0.011530401868813416,-0.14924896174552235
0.2113448,0.0823240544106782,-0.06307969762373246,-0.007393150762284915,-0.24021882792198057,-0.06458076183716685,-0.06525630225352555,-0.014644138162833152,-0.16104820421619173
0.2118103,0.13070810708249675,-0.06597637322937581,-0.008063754932163963,-0.28537633712938093,-0.00034948871890209433,-0.12494051003775568,-0.012043178248253643,-0.1532672037755356
0.2122759,0.16240977187242195,-0.05620704312568884,-0.009928637949139667,-0.2662905140409894,0.03548653752377648,-0.13138948641477166,-0.009960165172793845,-0.13117948059626783
0.2127414,0.22326924624098904,-0.027681723602028446,-0.014317454050829428,-0.19829836060068282,0.07716005945193533,-0.15324437602661228,-0.00827524054806467,-0.09921497835580599
0.2132069,0.2585236906070271,0.004110127717119089,-0.015261772036510614,-0.10811641491539742,0.07936346808519143,-0.1721306419741765,-0.006071831914808567,-0.1058252042555743
0.2136724,0.2874022310307247,0.04072753820845621,-0.015882822461448252,0.00953670284713534,0.06747272359556236,-0.13420438349317418,-0.0012375641238173698,-0.13533039168815442
0.2141379,0.30349044655009916,0.06162172034422272,-0.016625139214536316,0.08553760681648886,0.04916787155393602,-0.051049808457023595,0.0006111070883583867,-0.1486350313598995
0.2146034,0.32718233172690886,0.06902796091566114,-0.017026232583507748,0.1308720991338587,0.019172549557386915,0.07230557213431575,-0.002419112652714999,-0.1526799130016622
0.215069,0.3531824306061148,0.06553451471651128,-0.01797640797863802,0.13017136721559994,-0.004520929297677534,0.15693589899480703,-0.008710088466966946,-0.1576844955080845
0.2155345,0.36492353304513314,0.05989604936185785,-0.020449400646565426,0.10338963544239954,-0.0206426700538916,0.16219193326782155,-0.012488265884424418,-0.16288117531064777
0.216,0.3653365718754944,0.05123046012987568,-0.02347936903745018,0.058511356145985884,-0.05261154614489187,0.11968639312655333,-0.010145532552536526,-0.16085209322957864
0.2164655,0.3393427642695031,0.03425298720260833,-0.025819513051796666,0.01199551824956574,-0.07968909492239848,0.020891638286077333,-0.0011541080608033472,-0.13734977725418104
0.216931,0.2995293727890515,0.023817274258120563,-0.031019399156682156,-0.025686821212414626,-0.07057253723784362,-0.07689013117820138,0.013333842674165555,-0.08954843467612043
0.2173966,0.25733675747576756,0.015313098718043129,-0.03566361773496406,-0.039105520514199354,-0.04577838568170815,-0.11340054657978627,0.018475774571850005,-0.060399275853806875
0.2178621,0.21683489132556735,0.011878293405357652,-0.03852595549553529,-0.04683374720298861,-0.03361357809641003,-0.10681725499522551,0.018618934092255103,-0.06397724068689745
0.2183276,0.17199001165334354,0.011442425071082373,-0.03204135030935008,-0.06734846808667674,-0.05188754343654079,-0.0662125417027139,0.017185057869848745,-0.09069546736841896
0.2187931,0.14053531144085718,0.01005885929335196,-0.03606341858670393,-0.10332750674387492,-0.07368928109069062,-0.029801792774786867,0.015468999116689952,-0.12853170586056487
0.2192586,0.12057051376290304,0.006133216131859209,-0.032163682278789366,-0.14662071044995673,-0.07986018068943795,0.0017363019704349906,0.007657338556106959,-0.16178491734012707
0.2197241,0.11692443871922509,0.0034905091093020385,-0.029339309109302037,-0.16618054289093007,-0.06912425461534774,0.0018312340337977712,-0.0036318316303873876,-0.17532867718628042
0.2201897,0.10563697827419545,-0.001742811930576202,-0.027722697366569148,-0.16144453547606163,-0.0630469880694238,0.0028327019750731407,-0.016046822384162263,-0.17756725267349954
0.2206552,0.07704557417164681,-0.010224267847156696,-0.02712169100255027,-0.12970127380536312,-0.08650225364201408,0.025479449166888605,-0.020836008312081107,-0.16333183701785187
0.2211207,0.025289051485820672,-0.023867948851045616,-0.02509460877584468,-0.07477808050699918,-0.1110701985935036,0.05282610861719614,-0.01887989191761892,-0.13012671212365254
0.2215862,-0.020932286989386803,-0.029349075396434325,-0.030032850438076967,0.003357304294777235,-0.09966613012928853,0.033382621466521045,-0.018966606422021314,-0.09871929482906883
0.2220517,-0.07091337036922993,-0.03368808473095406,-0.034917070711635155,0.06083613934919313,-0.062266668567788126,0.002334888689444689,-0.015721054123092344,-0.06917424274276719
0.2225172,-0.11757229365386351,-0.037708500799379326,-0.039665101598758655,0.1050812915221853,-0.015449985118739221,-0.02422358543409712,-0.012923729971671726,-0.03810967131172902
0.2229828,-0.13134672439635184,-0.03840356206076501,-0.043245734991386904,0.11049575782927666,0.006338662198175917,-0.031229910373086135,-0.008695664334090535,-0.015746201336513135
0.2234483,-0.12959113318609322,-0.043928177946410664,-0.04672414454889901,0.10051408788593784,0.02309648984905439,-0.03323645557569368,-0.007084144250654834,0.024349691408217546
0.2239138,-0.10534387068766404,-0.04944574095749836,-0.04999519847586065,0.06850665296874,0.039842702525035065,-0.03803496774479926,-0.007728034831986266,0.05190151680064646
0.2243793,-0.06105366586031269,-0.05587151397500606,-0.0542636620886392,0.03056336720294015,0.09986302578927952,-0.0548954225805625,-0.008722578493751514,0.043443208067869325
0.2248448,-0.00665748421633883,-0.056212277637089976,-0.0580216403316636,-0.0031614356471084196,0.18507784703661315,-0.07114970258616614,-0.007826082156947124,-0.011916948624567918
0.2253103,0.031451259717901775,-0.055304521259655674,-0.06226117573522756,-0.045078448123047024,0.20195504591181151,-0.052467293189022095,-0.012068928070633575,-0.010801942105950363
0.2257759,0.06541754964399919,-0.049894296812859396,-0.06390771161151755,-0.08411264544557942,0.11667519418884702,-0.007516005949237935,-0.016716314660573193,0.050449276379459
0.2262414,0.10210044829667288,-0.03705857312083759,-0.06852887883542468,-0.10741859774753143,-0.02258552052779129,0.015698158318726233,-0.01677800617608595,0.10389450435183768
0.2267069,0.14412762236911317,-0.014745778163149151,-0.0713359,-0.13349685964088415,-0.1750789809074846,-0.010978340419621806,-0.0270237,0.10659793193436488
0.2271724,0.15778541960349404,0.011704720609693874,-0.07136644662592932,-0.15996092577044513,-0.27205492158602385,-0.058718415143412556,-0.026764058229291836,0.05460991215468293
0.2276379,0.14807509345363362,0.033814398628152505,-0.07196400789675994,-0.17310727372871887,-0.3108962261854655,-0.09427313275328576,-0.021684876429506006,0.009792994846935053
0.2281034,0.12369361870403671,0.04925039758856686,-0.07337980497974159,-0.1523713199409351,-0.3052865543924742,-0.10469554931822098,-0.010672928496465329,0.004704094674359794
0.228569,0.09641909370133181,0.057738259556429354,-0.0733013380246414,-0.10353491676294813,-0.27230117594874476,-0.10073111407392417,0.004240254618032822,0.012369271110886235
0.2290345,0.06154776313869976,0.050417704862864086,-0.07074636280575716,-0.05370514969372593,-0.2253154899946663,-0.09131693089877455,0.011873021289100772,-0.00405993178154795
0.2295,0.04311505192077528,0.05225152219662277,-0.07094416918796931,-0.04276996054830926,-0.15907051489742075,-0.06984892464921108,0.027736517206563737,-0.02872444807922472
0.2299655,0.013816432768129886,0.033712185557512306,-0.07010674537547354,-0.045190561872421244,-0.027799758182102327,-0.006974221783404947,0.035301132768129885,-0.025804427282387514
0.230431,0.000650935944282689,0.022616244958235637,-0.06184635869471004,-0.062112546480573225,0.1236825110736888,0.056919452796304476,0.045459131568214725,0.006908837089951461
0.2308966,-0.014090292246391868,0.01943900700716159,-0.06410285844658867,-0.08274890942975072,0.23475001146867486,0.12683060412830743,0.05188135143942707,0.0429077583100809
0.2313621,-0.021903541656231314,0.015039378463318898,-0.06131921784244178,-0.07283707788586669,0.26772846464274364,0.14634784563919673,0.05275552464726747,0.0325532778858667
0.2318276,-0.034633003719801665,0.011259070922441876,-0.05646641808168593,-0.019769637581035688,0.29473047244066236,0.11553536239474575,0.05250387269389531,-0.0008095361633718589
0.2322931,-0.03926320746252235,0.009198518384804743,-0.052543847065303975,0.023570858177500167,0.33221496038392734,0.02109690238304996,0.046888022674357495,0.004597328367126758
0.2327586,-0.05335267509288974,0.0153684927509078,-0.04776476245355513,0.03404223345718632,0.3826250684875714,-0.08159730410997457,0.04960332081785171,0.055968513283108465
0.2332241,-0.058512235175988594,0.02513190828679182,-0.04057076290942623,0.022142516027768,0.3900113220140151,-0.17157232517823487,0.046917834491603826,0.09457740289739516
0.2336897,-0.06586239408961991,0.015241201818578487,-0.04021840591038008,0.007811166576189294,0.3077864364814247,-0.19078553482442337,0.03820550041796582,0.09713484657182593
0.2341552,-0.0661545622073533,0.010120372553844691,-0.04375060822316661,-0.004253464585471302,0.14000586520286593,-0.14036120065333071,0.02497264494435671,0.07553613425161157
0.2346207,-0.03355060249504563,0.006262857390419642,-0.0337778915965964,-0.02051431965241806,-0.03971906283964425,-0.027154879305830562,0.016415988642417424,0.08593359113249086
0.2350862,0.005783750849296824,-0.0028618974413017477,-0.03023853372057668,-0.0453837486253893,-0.1693920013854185,0.11032459959733812,0.010639815430126497,0.0643070118208005
0.2355517,0.04390017271804965,-0.010493651216248122,-0.02777037455510356,-0.08317557495206512,-0.2077129893548587,0.19522504320208384,0.0037049598258547343,0.031633225047934886
0.2360172,0.09073313931925471,-0.019425965971187346,-0.02635977073235739,-0.1295761538864434,-0.20840807045439486,0.23562504580894103,-0.01202955135069257,-0.010914417209551703
0.2364828,0.12703393960949155,-0.024217639774583286,-0.02665017782674266,-0.13596502345499728,-0.17994826171256034,0.18857926953437124,-0.022919774136179204,-0.024127896750120507
0.2369483,0.18423841434113794,-0.029215323806258856,-0.025275631936014863,-0.10124478685030748,-0.10893103589112044,0.06341226596800743,-0.030729108615706296,-0.02838876654688807
0.2374138,0.23850374657297063,-0.03310047955083552,-0.030344511774777205,-0.04220250040257727,-0.036608226838865505,-0.06073029040926473,-0.03223811471274235,-0.03655999040926473
0.2378793,0.27343510884230576,-0.04434526789191027,-0.020704399355529007,-0.01622259525661162,0.004200957017317097,-0.1459148526627727,-0.0386481653118084,-0.05945195711619153
0.2383448,0.2878532688740557,-0.050270583738954315,-0.018094413008836546,0.007902947146170576,-0.01795287976960852,-0.16953066261045682,-0.04443740185606202,-0.10426247930969361
0.2388103,0.2863280478019864,-0.05163686102359716,-0.01687182273876714,0.02261252411876936,-0.05564262154144014,-0.14857991213115826,-0.04806562691544645,-0.13226445822692007
0.2392759,0.28314223376591974,-0.05126923059611768,-0.016381697502449184,0.03045445489937466,-0.07647287108447132,-0.10814479913637282,-0.048433184342443904,-0.13937120115304844
0.2397414,0.29164777739907427,-0.04421483584266078,-0.013899278199521081,0.037963125679627445,-0.08115964418127722,-0.01458387065456003,-0.04444281016642908,-0.14191821324513076
0.2402069,0.30546585122443093,-0.03449242689506836,-0.011623370203947159,0.042131506093322044,-0.07055931156001231,0.04665181914715557,-0.040556235393326666,-0.15071060310567963
0.2406724,0.3163310315056195,-0.02674861307069218,-0.009905227711844157,0.05420069044168194,-0.062023148606940984,0.07093601742727,-0.03678930653534609,-0.17467572977170612
0.2411379,0.33479846478929065,-0.020688587045073172,-0.007073862253911978,0.072343,-0.06452514242684562,0.04848459689794687,-0.03165701431095354,-0.22127336535596512
0.2416034,0.35927663899355355,-0.02216858888515989,-0.0054441538652585586,0.07006670689282662,-0.07004801425080184,0.011487945793773479,-0.02664805398943919,-0.25597638512829496
0.242069,0.3832199659545299,-0.02924587056031608,-0.0048676,0.0543854483856497,-0.06521112956623805,-0.017631237052701004,-0.02215327901256372,-0.278901585280158
0.2425345,0.4052632028209101,-0.03984723392744466,-0.005186509275762352,0.03868958483136549,-0.05466035893382158,-0.04494946337354668,-0.019134902240671322,-0.2988719986504957
0.243,0.4254682235980429,-0.04750800963791384,-0.0048676,0.01608950289092074,-0.04258786325944596,-0.05960684304973594,-0.01860994433349683,-0.28803265481895696
0.2434655,0.4604795761080322,-0.055620675444979284,-0.002240055523248345,-0.020331704914526044,-0.024642891497053815,-0.06024602313786302,-0.01664612776162417,-0.2140020171975246
0.243931,0.4726536818726,-0.04973100292817145,0.0006000752342488391,-0.023903149851841343,-0.024961554499139414,-0.02274719545952262,-0.01444354874949413,-0.060361654605837034
0.2443966,0.5114631901353474,-0.05294632960956387,0.0045157473753021935,0.009231421041972195,-0.029087500672517162,-0.0023686434229676055,-0.007045611843825549,0.09816062534975468
0.2448621,0.5299609313753604,-0.05255200668173085,0.00735794322662524,0.04809309279717215,-0.03644651046804228,-0.01236805238870565,-0.0063664480295836,0.16855922693575828
0.2453276,0.550184684696388,-0.05549228548357234,0.009030942741786169,0.0846271041275296,-0.038807764112679256,-0.04773376367056524,-0.008023842741786169,0.13601104203133305
0.2457931,0.5904273553610362,-0.06805681141553475,0.010205760199638727,0.09940122281857872,-0.04529548117419582,-0.08386974322410155,-0.009600439800361273,0.044482866036434886
0.2462586,0.6311101719108693,-0.08109170708006024,0.010046649560421667,0.07783150425755579,-0.0597456336880637,-0.08481721848679004,-0.009687775659367499,0.005839221772276272
0.2467241,0.6753510097224871,-0.08862828103563766,0.011323957756945691,0.04336375009581175,-0.0775814501680588,-0.06848258260066924,-0.007771813364581463,0.009789757829192744
0.2471897,0.7149053325652532,-0.08169455254633108,0.014266567824317565,0.022068567995450265,-0.08416078528271702,-0.03704184996879947,-0.003357898263523654,0.04427048556306878
0.2476552,0.7611015706495832,-0.06515833059903238,0.016995426796764905,-0.0019505022854586051,-0.09072826820928252,0.03440282767876609,0.003964702285458605,0.10015981089090623
0.2481207,0.7816829396499009,-0.04687902522387828,0.01800195513713403,-0.01723009739351747,-0.09317352149761057,0.10629298653257616,0.010168359714375469,0.13676597078104258
0.2485862,0.7803466416482051,-0.03427865670479382,0.018603700000334473,-0.023307901648673402,-0.08323443835386858,0.1258602857737685,0.012115000001672357,0.1437785232976144
0.2490517,0.7580924947466937,-0.01821701542154639,0.018349466135133868,-0.005260485778636856,-0.045592398573530125,0.050200431351003785,0.007274685778636856,0.12001962221411326
0.2495172,0.7296180219492344,0.009150515242944874,0.018913787114374806,0.020880908460269687,0.0006876653589421829,-0.03613650623662487,-0.002504402163517873,0.08536325879200293
0.2499828,0.6839308677848264,0.041703992411339465,0.018873958531137488,0.046924258408963505,0.04286699691429116,-0.12168571290142276,-0.016331064454769617,0.026962056646183584
0.2504483,0.6462629464170371,0.05801382039480885,0.018356183765990134,0.05585583454841922,0.06564893234343025,-0.15715313007667198,-0.020343780325325495,-0.005139824555607835
0.2509138,0.5899039894989012,0.06765443959552117,0.018389371766753662,0.05817148517303209,0.067365625478898,-0.17191970875794754,-0.016476442349869506,-0.025031965224440202
0.2513793,0.4762517412789319,0.06799998017928777,0.0179599,0.0492521943525267,0.01665701567850552,-0.1767290106629894,-0.0024688312478996525,-0.053865555343059424
0.2518448,0.39239545192299286,0.05438796928629304,0.01798999469276774,0.03131970149827734,-0.036646522660710876,-0.15763758369989092,0.009093773540155762,-0.062422923453468004
0.2523103,0.29587916029605466,0.034751682435504805,0.01597299851972652,0.0014635075155766096,-0.05893692403696593,-0.10528703415295176,0.016359867394388956,-0.05784461820032135
0.2527759,0.19638099240856377,0.012631192207650146,0.020486517348149665,-0.03868031757622511,-0.06159290199152541,-0.03210812673019771,0.015347301334460904,-0.030238218709772405
0.2532414,0.11257921957937483,-0.009992503689676743,0.023652568061001016,-0.09531646351092832,-0.10217184703142945,0.030127101442212388,0.013302706143903546,-0.01110130563390417
0.2537069,0.03388517032263638,-0.030512709256702228,0.02374674452317306,-0.15269985700573094,-0.14421623375869566,0.06112168280519424,0.011019749249676232,7.648172515727406e-05
0.2541724,-0.030981248714814568,-0.04366722903127726,0.02658955879341918,-0.19247504392464904,-0.1218750105055848,0.07377412517996584,0.010099982413161637,-0.012237775960077532
0.2546379,-0.11721524481656882,-0.05335242384737458,0.025102515366980944,-0.1965432832471115,-0.05046178992580003,0.053649502057386084,0.007436711507889756,-0.06239521269669936
0.2551034,-0.18738675900396232,-0.06157074237536594,0.02083535859502293,-0.1769458486078225,-0.008738207253993912,0.021408594610185374,0.0007988388506659765,-0.11723644901676186
0.255569,-0.25848101119350786,-0.0647862940769519,0.016877985681342005,-0.15384571962404464,0.004529985518673905,0.0006460239845176828,-0.010840126912072819,-0.16742524835609088
0.2560345,-0.2985894623065238,-0.05954260688232663,0.013611626169536995,-0.13886568669788854,-0.0025393618689446675,-0.0002858623784892066,-0.017991238205913952,-0.18825828788876445
0.2565,-0.3320483632202882,-0.05843726615309615,0.01180573274388954,-0.11140884069868592,-0.04077372440678177,-0.0017342366628636885,-0.014430205631919666,-0.18198495312092544
0.2569655,-0.3708741699447022,-0.06708134954780823,0.007346003329660838,-0.06375252754167025,-0.09198855060606985,-0.022334621962452787,-0.011232505931638697,-0.1434437123705746
0.257431,-0.4069134011917915,-0.08255015307101041,0.00448751259384999,-0.010075720731082772,-0.1451174273385565,-0.038401990075079995,-0.015712089711910703,-0.11022643221096357
0.2578966,-0.4425186553543645,-0.10221923633916184,0.0016161073331811449,0.04390644156491058,-0.18388122728786527,-0.03610486586654492,-0.022316236276588734,-0.08524537751286523
0.2583621,-0.48223549346143646,-0.13383352628741083,-0.0017326821315051355,0.09613915845818448,-0.16916077226904924,-0.025736563389403385,-0.023007924625464624,-0.04909945878577577
0.2588276,-0.49844590347989076,-0.16864936788924975,-0.004611303562135629,0.09837797348158382,-0.0871543688809802,-0.018657321835567692,-0.018191512657729225,-0.00594253329033919
0.2592931,-0.494527604248303,-0.18390263767935186,-0.007936658123057116,0.05777826304795235,-0.035652878062099436,-0.021210212885919736,-0.017719704823471304,0.03165992056492261
0.2597586,-0.48781663084518917,-0.18346970368714705,-0.009795785546122258,0.026811837327774868,-0.031574172734967786,-0.024227534532336253,-0.020599972244959866,0.051017384181257674
0.2602241,-0.48680639498638445,-0.14411652918773532,-0.010771434089534274,-0.01586631266042722,-0.08550923995270714,-0.04084546769410455,-0.023587401819485328,0.0490450686597555
0.2606897,-0.49444376571592985,-0.08993403400830212,-0.009215460848685303,-0.053773548564304004,-0.11333355736084395,-0.061199584301999885,-0.023295649521434668,0.03583484762635487
0.2611552,-0.5120628184143142,-0.015961045374919283,-0.008124394851551555,-0.08592130772267266,-0.09065623472911057,-0.07212252316801801,-0.018065153663964,0.01975366561980124
0.2616207,-0.5228941318101183,0.033863676964941386,-0.007184211990458944,-0.08534827833277836,-0.07331659444882639,-0.07713743869345954,-0.013916048405891635,0.004572798166029007
0.2620862,-0.5427111178319515,0.09261333913710795,-0.008303699131698773,-0.05302514774342976,-0.09943825955570973,-0.062242063467795726,-0.002252251311578553,-0.028995804694235804
0.2625517,-0.5628505088290604,0.12328833630116355,-0.010294969204338424,0.0008172041215727954,-0.1676387700023528,-0.020534612738533606,0.01097183419365025,-0.04786717009580661
0.2630172,-0.5790448634241053,0.13054791185271442,-0.01336632809153303,0.0480041956852556,-0.21203370029693075,0.0355872410424426,0.019348267522362808,-0.04284139327237839
0.2634828,-0.5907201261743354,0.1222601810404045,-0.017193255872427794,0.10483726035902978,-0.24543821790972312,0.10289900622672363,0.02978524586769385,-0.026604438727395697
0.2639483,-0.5831399533711193,0.10139743243899269,-0.018310820932126597,0.14710402218091845,-0.2450243706834157,0.11954203462459281,0.041000490782728556,-0.018837622076923924
0.2644138,-0.5663599345361886,0.0856571491282971,-0.01875500909726361,0.15083021444616182,-0.20590601825079402,0.07465340178603969,0.04764302179694601,-0.014892423636178861
0.2648793,-0.545278967708776,0.06118178842513524,-0.0203098,0.13340387190379258,-0.10678343003683997,-0.0010925699046564852,0.05900994843683595,0.0028022453105078456
0.2653448,-0.5450151755868218,0.0406717898324429,-0.018882856781594404,0.08355457003775398,0.0341393834589357,-0.0354821834589357,0.06124532248609889,0.012138184366499057
0.2658103,-0.5534677600002624,0.024013711731883203,-0.015297140183764518,0.030509983228000193,0.24198288241646138,-0.06956235732316214,0.05493238036752904,0.03251712097134915
0.2662759,-0.5639169077314309,0.00918722515059333,-0.010496141762808942,-0.013263657651830851,0.39067191255742717,-0.09370842907454224,0.045330383525617884,0.04833209046711497
0.2667414,-0.5747869225922804,-0.005944821582625644,-0.005083790716359038,-0.060071763121400175,0.5365378224873864,-0.12464381143093241,0.037888704262608236,0.05642898381761932
0.2672069,-0.5802049289781972,-0.016552505320579416,-0.0022104977267444663,-0.10114100185012487,0.5986166044677099,-0.13995632357881668,0.0357519,0.05013075837952504
0.2676724,-0.5766722487926264,-0.021845171595155453,-0.003965037257636435,-0.10896188268329352,0.5541836994951738,-0.08512241743922076,0.035443733919654496,0.029109623487844155
0.2681379,-0.5694964833989349,-0.02492045599702863,-0.006527837877522805,-0.08371841109039847,0.5030560179834169,0.0007310216170202787,0.03364977348573404,0.011938935676595945
0.2686034,-0.5545864276848484,-0.028758663169737905,-0.009236405264144825,-0.010697014545655909,0.42736794353837365,0.1392896078937994,0.027241769798007055,0.0019067046102101825
0.269069,-0.5449757078903991,-0.03234054202998371,-0.009425560738175895,0.044570745546334875,0.33192269013586395,0.1868355528168396,0.019729380750830715,0.01751665230679967
0.2695345,-0.5335966005963851,-0.038528661164755645,-0.00722484525788027,0.062768878863259,0.15540878274347128,0.146847758622332,0.005575736070597123,0.035350529051576055
0.27,-0.5248111767906591,-0.037691831766902426,-0.0037149476999203865,0.020845370231459052,0.007857854906152735,0.041322970231459054,-0.004023330380527968,0.02841147293839273
0.2704655,-0.49196976615434457,-0.04760139827697592,-0.0030304210020887313,-0.06449421333117362,-0.10976008432382074,-0.10435696843912118,-0.02686920444372454,0.024839294019309108
0.270931,-0.45082716496233965,-0.03381603912920622,-0.005204875143834476,-0.16591948329264458,-0.12893716753597098,-0.2351732435962056,-0.042614899755758016,0.005482194180579214
0.2713966,-0.419033618243597,-0.025314360360483994,-0.009318392894079134,-0.2131873025450216,-0.09513875159948053,-0.2651712171176584,-0.05032772624996267,-0.011212629324128282
0.2718621,-0.3791388572052478,-0.014103477024887538,-0.01573891581904023,-0.21277364093058487,-0.05125357967084001,-0.20000815920082554,-0.05188792888433283,-0.03497185906941511
0.2723276,-0.3359322895123,-0.006889570748603985,-0.023117939949821184,-0.17921713049836563,-0.005831931429247539,-0.10059123411824136,-0.049071041916947576,-0.0689478649648366
0.2727931,-0.29537526255455177,-0.014399928318127664,-0.02622472485512453,-0.12398059166509862,0.031037841979498916,-0.007308829376850536,-0.04215467869174717,-0.13774502191240406
0.2732586,-0.23980394943578714,-0.01184655676834831,-0.0434198737540443,-0.04992282983136681,0.08668948554397886,0.07621147715568144,-0.04516911576538332,-0.22964338239596763
0.2737241,-0.21291102393405023,-0.01615959736372439,-0.050269921476690516,0.007415012532426643,0.10292673926832596,0.13050482027568,-0.04288581690842942,-0.28165335108312
0.2741897,-0.18186554995768064,-0.020586942190152134,-0.060449867194009785,0.08106152824086729,0.1052521468745178,0.21680649075051142,-0.038831757809847864,-0.2872539796613346
0.2746552,-0.1599366963884115,-0.020451578968179698,-0.0677512168312122,0.11433488328993605,0.09159971331199215,0.26231035376453105,-0.035150271248351544,-0.2228335537069715
0.2751207,-0.13498577676978482,-0.015254299933051477,-0.07518145865423011,0.1293303940035229,0.07638281763914147,0.2605313527679801,-0.030527835191725788,-0.1284675359514804
0.2755862,-0.1067614874283455,-0.004031290551920337,-0.08341417403840684,0.11894446801849218,0.05833203139035267,0.19741578060817186,-0.024751794666726834,-0.04362417637974786
0.2760517,-0.07784341710808297,0.012403295386727433,-0.09237043913612161,0.07150582307276405,0.036993557378364676,0.06567385380341631,-0.014770037484431228,-0.02706163334717224
0.2765172,-0.060175761023128854,0.021165858784812325,-0.09583332965095032,0.02351077158532066,0.021867907460856074,-0.02132178719949166,-0.007267997474010403,-0.03360674951233913
0.2769828,-0.05696239543771322,0.03527601337492475,-0.10453813768766305,-0.02741603010387598,-0.006940859290836671,-0.058628558061985775,-0.001221628875025084,-0.009899367459012823
0.2774483,-0.06217362517182548,0.03343675582170865,-0.10852319571963126,-0.05898986011954123,-0.025333343508453236,-0.04606029811500912,-0.001834714726097116,0.01217163186503593
0.2779138,-0.07889419943856749,0.022886177311321542,-0.1103386743225353,-0.06613348561894397,-0.033169210736418805,-0.02199662334452944,-0.005351574229559486,0.008980392809471986
0.2783793,-0.10469822918847399,0.01536519826524929,-0.11168580961955085,-0.05002055917623858,-0.021706172265290855,0.00960521431066685,-0.006633888926684289,0.02172599507156514
0.2788448,-0.1357928104148829,0.01744465390669922,-0.11317853355434915,-0.026387252580604315,0.005037379925747305,0.04881112734514299,-0.0012702176720865838,0.05750239483879137
0.2793103,-0.174982395803512,0.02218245796439903,-0.11639139238920429,-0.014313855796209073,0.0307090287957376,0.08841071229962479,0.007005199088165094,0.0851952421936592
0.2797759,-0.20722189479961764,0.02660665829982248,-0.11968121148953119,-0.023288373957032323,0.03971515472166136,0.10753567770072374,0.013096925010263981,0.1084744322568548
0.2802414,-0.22147289800977715,0.029319152422950086,-0.12165258669606506,-0.03513851897895717,0.04082006854622995,0.11489503025633686,0.015563718748551704,0.12881648895302578
0.2807069,-0.21228868360600842,0.030682580347655964,-0.12200944659708743,-0.0573786753510237,0.014928398464269205,0.08697413401893556,0.015446803055803407,0.14150871548156607
0.2811724,-0.18842477992033507,0.03108528013037203,-0.12198646881342153,-0.06335686518409002,-0.01212308728202402,0.05685124794109262,0.015071482534098447,0.11733633572446711
0.2816379,-0.15633248211590675,0.03592911894929701,-0.1259121670543673,-0.08448152390225837,-0.06568093892754587,0.02067998316298452,0.019655645362288685,0.07986953284773449
0.2821034,-0.11114064104348961,0.03334619586063085,-0.12997604368313836,-0.07606182295449095,-0.10891786851151708,-0.0051471020895035215,0.019524121969196034,0.04062770955500669
0.282569,-0.07567995281591296,0.02300344377840644,-0.13322653488181255,-0.038237077108120146,-0.13255826864512296,-0.025832518226784538,0.01789878834269115,0.02880742146103593
0.2830345,-0.041325119488364745,0.006469950186850316,-0.13439134265600766,0.03337144964228945,-0.1502826251521303,-0.04574069011168237,0.020328647082687102,0.03421383003722746
0.2835,-0.022557467956784188,-0.016485475107082075,-0.13482668315377921,0.11432673419255625,-0.1430807762561932,-0.049092508871310024,0.03346024762587721,0.056696274029757306
0.2839655,-0.027216572644470007,-0.03302613024712643,-0.1350742783259246,0.14701182376292363,-0.1263058832438059,-0.03272073106531486,0.044463205868688474,0.07486654234272846
0.284431,-0.05548837481263894,-0.05904436524035087,-0.13436549896858638,0.1684032721612565,-0.15153307341501338,0.02310323246688252,0.05988062371308903,0.11016860647804722
0.2848966,-0.09207215504159931,-0.0741082585855216,-0.13282835764986758,0.1567209981389937,-0.20456421996512808,0.0819754244498552,0.06541433246047666,0.12707706940568048
0.2853621,-0.13794074346179855,-0.08011717209357,-0.128643270465499,0.13525128944345594,-0.21872340294530615,0.11807761734988594,0.053641292699597935,0.11534357956041844
0.2858276,-0.17651417741263387,-0.0718357901084301,-0.12381993446881938,0.11707142260182782,-0.17709658558427832,0.10392692205744265,0.03271805168876741,0.08962360339199647
0.2862931,-0.2057440133760605,-0.05637769895145148,-0.11988512631758136,0.09627323466816905,-0.12734961941228132,0.06851373241918551,0.018384191432142517,0.06938753090851456
0.2867586,-0.2304399670342107,-0.02498578054557207,-0.11573594786228056,0.059538517339881025,-0.06363370768637115,0.011076526202588389,0.002267175376294766,0.032967741099079656
0.2872241,-0.23283210795152293,-0.002127703465241273,-0.11387539381548217,0.04531868731745896,-0.034795238724818926,-0.027994950428414038,-0.009693450034384456,-0.005572148661408945
0.2876897,-0.22297505965615566,0.016365407794553036,-0.11172587680246543,0.054155587212010865,-0.01997089540513066,-0.08682922373180173,-0.02042051810566337,-0.07750041394662609
0.2881552,-0.21925191135721092,0.010324413746604068,-0.1064905084205779,0.07743997178505715,-0.001730282559692555,-0.1499036437965209,-0.027493468813088486,-0.15392040905506518
0.2886207,-0.21609800984901958,0.0024242392714887238,-0.10214507556139234,0.08502102570486832,0.0077836106662164655,-0.18345565835835229,-0.025265046669168147,-0.19084105835835227
0.2890862,-0.21093866921958235,-0.025567691770766253,-0.09303090988961214,0.06925864718780346,0.03759270101459061,-0.21429827132406468,-0.02406259075617564,-0.1968061882266361
0.2895517,-0.19907357525462743,-0.07804884487847716,-0.0817509928274155,0.035891792354162046,0.0724897268934588,-0.236613852954991,-0.019834980691355957,-0.18303793993344772
0.2900172,-0.17879954286905156,-0.15845638163484946,-0.06771639712789373,-0.014817343736289155,0.07677127243696011,-0.23797295684016317,-0.0023125617222563197,-0.14918411320250852
0.2904828,-0.15698872992258886,-0.22443626696448465,-0.0547810891011437,-0.05346685885087837,0.04132136213515637,-0.22686875819928207,0.006054570740277383,-0.12130641024726002
0.2909483,-0.13831124807162695,-0.2649476321883647,-0.04662880472514772,-0.07319196912114491,0.008979803525956355,-0.2197039549649695,-0.003836973846292628,-0.10689851780200141
0.2914138,-0.10737988140042772,-0.2840309163474198,-0.03298051826516038,-0.08122828167673998,-0.02390172901721205,-0.21674726291818436,-0.02982720247036512,-0.10498727295862818
0.2918793,-0.08629995234989903,-0.27714082682786395,-0.020094827957421516,-0.07405772767370801,-0.03684348955130195,-0.21515981069483203,-0.04499679668118996,-0.11269683399003502
0.2923448,-0.06780075527260797,-0.2719715952258017,-0.0051514077868384765,-0.05958343844027348,-0.03843475703557227,-0.1924740600489156,-0.04992597889636777,-0.12415840929835252
0.2928103,-0.0536651854428887,-0.27434581082453935,0.005737405867625703,-0.05176743132770124,-0.024855962043231615,-0.13810741235121182,-0.0445305971035048,-0.1293258574707933
0.2932759,-0.04768947975937113,-0.2762729355298027,0.01187664847130489,-0.05183857741169955,0.000381215782599497,-0.07751721903526182,-0.025682578575024925,-0.12573376423288357
0.2937414,-0.046220222437652274,-0.27787580510538956,0.014815242693214242,-0.051571432482435065,0.012536190696426187,-0.04212063527542481,-0.01232541169027223,-0.11584940185009755
0.2942069,-0.045371482467430384,-0.30346240888706266,0.018759135195258413,-0.0554330118194108,0.013026914077009122,0.007848439301414835,-0.0017758410385364137,-0.08802307942638134
0.2946724,-0.04586624857075025,-0.348597894692215,0.021534129911073074,-0.06744203846283052,0.005377094283001027,0.037991541297588985,0.004449108551757442,-0.06258197649270601
0.2951379,-0.04610221415614774,-0.38999195757812083,0.023006557168770453,-0.07738975716877046,0.007733726275269791,0.05837155562936016,0.013172057712949936,-0.053483041426648344
0.2956034,-0.044664670303831346,-0.4134238795486007,0.02329406593923373,-0.07767726593923373,0.03806577309231356,0.07878459268769819,0.01949725066314208,-0.05621433192377209
0.296069,-0.040903914734030246,-0.4190348597168088,0.023981214929202212,-0.07478823281859004,0.09739288060288269,0.09896260624381735,0.012832328314174541,-0.0534767275086107
0.2965345,-0.03146261617655314,-0.40190286622947746,0.024844659767762768,-0.07468688046447446,0.1141635552946887,0.1025980465693658,-0.0025464174035613203,-0.04506147594431591
0.297,-0.008154588876088888,-0.3647860438181911,0.002669328735678815,-0.07825550829943118,0.08094440657486089,0.10205699157935293,-0.012082397262524377,-0.03361312444764153
0.2974655,0.02155987492509233,-0.31482723380055605,0.0021939403157467717,-0.07980787172239677,-0.015318155042391523,0.09067230879929716,-0.0033219781639386983,-0.0216425675649613
0.297931,0.06341728014894661,-0.2539594172105143,0.0,-0.07845691593054828,-0.12241212257219942,0.07905596549836438,0.0047682749480502185,-0.013795484605535178
0.2983966,0.09131639237217476,-0.20503893027931208,0.0,-0.0753104424881692,-0.20203788342536444,0.06286324342643737,0.005935534367816498,-0.022528483480518946
0.2988621,0.11553232951976021,-0.13901684167263265,0.0,-0.06571800222606224,-0.24466340793023839,0.043503305687992586,-0.005188820091796171,-0.02118225854817244
0.2993276,0.12635449582096878,-0.08775004852539925,0.0040590155624189465,-0.05081057829760232,-0.22309030986294487,0.030373230212707717,-0.016362743024854076,-0.006636341868792064
0.2997931,0.14864366802052567,-0.04154858135940154,0.0,-0.05715650661660109,-0.16950237466203774,0.028505886683020204,-0.027307312048908343,0.009977849348986437
0.3002586,0.17273349119967338,-0.010136348890835227,0.0,-0.0508416981135159,-0.09552430982295425,0.007097168416046238,-0.046294358869404854,0.02299280677568611
0.3007241,0.18659550334355443,0.004790895803484196,0.0,-0.0486426588195123,-0.05394657912842825,-0.01656927044509107,-0.04966881106292298,0.02586319160696839
0.3011897,0.17737775978246187,0.007467014901865916,0.0,-0.04656123285410429,-0.03729525998025104,-0.029949777361912844,-0.033909531614206345,0.03121542980373183
0.3016552,0.1455526181057878,0.0022858995383501215,-0.0001794378220858678,-0.039636869889341064,-0.01044162838458471,-0.01508637491347851,-0.0031551572308193008,0.04354046827883076
0.3021207,0.1085985,0.00916409465310726,-3.2996796744704216e-05,-0.026433407708069734,0.036946433146858644,0.010670273436478571,0.035412978677543706,0.05546366516898475
0.3025862,0.07263377256087028,0.02623273724401149,0.0,-0.005572607848650596,0.07518265587565943,0.0010384029583763565,0.06556931372208931,0.07516620195623117
0.3030517,0.04726272054766567,0.0498989168380756,8.747850078342958e-05,0.010299053445782266,0.08698781350229566,-0.03517929794309273,0.07389518503461183,0.08729708188305173
0.3035172,0.026306726774952553,0.07939518824045445,0.0,0.018237946362153427,0.15976922714682862,-0.08649036580528541,0.07930528808047854,0.0929669075077035
0.3039828,0.0026145727719984477,0.10774078995261555,0.0,0.021343283511815303,0.3257363232584073,-0.1443567440701271,0.07535701434640106,0.08127951292156836
0.3044483,-0.024014769845583376,0.11260767055068947,-0.004567407939178467,0.0220056614558629,0.4045221476596383,-0.18033354608274124,0.06471414856072231,0.05816340265328436
0.3049138,-0.03603230537325696,0.12893396508139005,-0.001623077605623515,0.020700539091476143,0.2918485815051316,-0.18014657228302833,0.04451437208038121,0.008305384170709893
0.3053793,-0.027997373619105263,0.13342332872878668,0.0,0.015956502605466022,0.0890768880504398,-0.13310153667906713,0.0013073127011371446,-0.046801295664336585
0.3058448,-0.02808214890788631,0.1487846614151572,0.0,0.015201143410032697,-0.06475892716548,-0.10100697324976439,-0.016709669587262502,-0.0816275013786166
0.3063103,-0.021922219297610134,0.14952111743653046,0.0,0.011421030065416601,-0.16554165288408748,-0.08897782101551265,-0.03165110480764432,-0.06757223211495784
0.3067759,-0.020522334147606475,0.14710167371256128,0.0,0.003745715720335517,-0.23784977245635242,-0.05874440336844586,-0.02222774398951917,-0.0580765898939713
0.3072414,-0.023565208010263045,0.13516491094688196,0.0,-0.005559934469111432,-0.2767992411592686,-0.01554674636817044,0.002272669041009426,-0.0740315005410308
0.3077069,-0.030921144236989842,0.12355886067357724,0.0,-0.009991973486263038,-0.26661829261320635,-0.0033471516822959828,0.015737974931839566,-0.09415138764412678
0.3081724,-0.040872905413704065,0.1170777922423268,0.0,-0.016055507588494954,-0.22003504871696972,-0.018994413002199017,0.016559500338356504,-0.11567512025233746
0.3086379,-0.04461652134263771,0.1288572296422706,0.0,-0.016349423593856716,-0.16248593667733,-0.03776519427345697,0.012651061868147549,-0.11904867589432348
0.3091034,-0.047179591098187285,0.1517777687706573,0.0,-0.015330234087317426,-0.1194944937152326,-0.019568363437005364,0.030884306071042474,-0.11413745074867863
0.309569,-0.03793853600533242,0.19067187394148183,0.0,-0.007771015039785454,-0.07593332752140784,0.0012412618274757784,0.04367246921612698,-0.08236125070567876
0.3100345,-0.015630608610025964,0.22993083181686405,0.0,-0.005076496503409467,-0.04587529423242428,0.004787431513005112,0.028355415209235353,-0.03436277015026223
0.3105,0.024669201733978963,0.27153989322766936,0.0,-0.008103777674600373,-0.024637413511619626,0.00045564434332882745,-0.012991675756937281,0.011736060203868267
0.3109655,0.059788856050378966,0.2948691068925708,0.0,-0.011379984449689885,-0.01736880104820974,0.004031912736931803,-0.03421558957709209,0.024699339895179025
0.311431,0.09289705975069602,0.30405587271842327,0.0,-0.015329569291819656,-0.017550620818867144,0.021854938559320216,-0.04912046826956797,0.02257466484296433
0.3118966,0.1430573255840042,0.3089536322418694,0.0,-0.01774238217396005,-0.0005790318751697269,0.0493737295650583,-0.09659851819273964,0.026527262608652263
0.3123621,0.16525016459423691,0.3023486759102131,0.0,-0.01430776395664661,0.021877929834755994,0.060998591223657625,-0.11588514178832249,0.0296976794246339
0.3128276,0.1886708619224353,0.2908023583222977,0.0,-0.0050765295364254,0.050411019739728516,0.06423987121412769,-0.10061611863679881,0.03266869495217025
0.3132931,0.1967210830767528,0.28647901874775844,0.0,0.005302482968080398,0.07034939226267979,0.0525180042557554,-0.0688239357208928,0.0365080915383764
0.3137586,0.19249655301930935,0.29403924662206377,0.0,0.01913047352060076,0.11439904623318148,0.014161036551714263,-0.03127288359291579,0.03562677256450548
0.3142241,0.18586298262773673,0.3063153446242616,0.0,0.02746523830135586,0.1500529327042059,-0.020357018242961475,-0.013743895346541204,0.025035408646158986
0.3146897,0.17796245571670982,0.3238399692774435,0.0,0.03522207725679866,0.15292583602103654,-0.04477652527705185,-0.004550604732683061,0.007798074324660127
0.3151552,0.16544986526187136,0.3442422571754632,0.0,0.049317273576521985,0.11058554954521736,-0.06611880246733445,-0.005365587813327165,-0.013847446165396982
0.3156207,0.16029286655546304,0.34785029822949176,0.0,0.06209264681820783,0.06041830039519761,-0.07482306301444652,-0.012412634324611198,-0.022105323055059446
0.3160862,0.15830106616335493,0.33103126695107105,0.0,0.07754080567762583,-0.003807495701315179,-0.0753643,-0.024203238004335714,-0.024816653413728445
0.3165517,0.16292738770191745,0.29548702049041375,0.0,0.08743965016153396,-0.039459603751669944,-0.06069452731660436,-0.03259548140684895,-0.022841012267069073
0.3170172,0.16827405990709393,0.26848648512362633,0.0,0.09171698792567513,-0.051222202968381314,-0.04411992311523416,-0.03433311005619287,-0.021504423850451825
0.3174828,0.1761474195490852,0.2349467915660911,0.0,0.0935602291901406,-0.08823120287632077,-0.033971969856378154,-0.023634427364827775,-0.026345112862419823
0.3179483,0.179991728041482,0.22057834645135566,0.0,0.09080746992353432,-0.11259384956711728,-0.037966803886752616,-0.01164323003224554,-0.031073341111061362
0.3184138,0.16684947571462197,0.2044239527790456,0.0,0.08253853109561254,-0.1356843177322725,-0.07541106916210251,0.002536548827885029,-0.03935945647307716
0.3188793,0.14650806220682086,0.1917106008961874,0.0,0.07646437595510729,-0.14769140969217784,-0.12033170819156194,0.0084694856472851,-0.04274970608416292
0.3193448,0.11805833927798068,0.17606432214439444,0.0,0.06684091108304922,-0.14721239654873794,-0.1825508181516111,0.010611827335741142,-0.039640322490970714
0.3198103,0.10239883666324545,0.1628020489066556,0.0,0.04809693990215107,-0.10599135994860875,-0.2223596035789101,0.011777692765874093,-0.034360880106153756
0.3202759,0.10107426928023099,0.1527946253682216,0.0,0.027640541137928874,-0.05286355580305573,-0.2319255631090381,0.010600338504993824,-0.031123155888733014
0.3207414,0.10592902811078686,0.14073478956795551,0.0,0.005497329952965179,0.001407127092264383,-0.2176637652740243,0.008732856912730555,-0.030998309644814235
0.3212069,0.11307288909195216,0.1356789605613053,0.0,-0.0033070550950086066,0.034643641388474894,-0.19633897688673105,0.007138017402299384,-0.038068209317110635
0.3216724,0.1273515426689252,0.12743209088145685,0.0,-0.01719099318543526,0.13267307622267546,-0.13224447326081445,0.0041393498966979855,-0.07735118430819844
0.3221379,0.13281486148488722,0.11787572718419607,0.000661285719957819,-0.03189906668784668,0.19670256178548087,-0.06322320950413793,0.0051456039376632816,-0.13620778284171972
0.3226034,0.13064602230924455,0.11629736349166675,0.0,-0.04940542267136951,0.24552077653694834,-0.030474989287537134,0.002080815117063512,-0.19692089490480538
0.323069,0.12055348264551162,0.10130904608827593,0.0,-0.08315384488133461,0.3395453120188616,-0.0024149649536824164,0.0033055584760872973,-0.23745878005935322
0.3235345,0.11512672248973488,0.08314229932933696,0.0005465073062162314,-0.09107780464725648,0.34947874627341113,0.013795894606196013,0.01114964763842952,-0.2120713623030541
0.324,0.11724464769255824,0.06498874486202015,0.008261761195202486,-0.09017012241747505,0.26203914211269225,0.02135991318770801,0.02400843416284393,-0.15155948403589403
