Time,Rectus Femoris right,Rectus Femoris left,Hamstrings right,Hamstrings left,TibilaisÂ Anterior right,TibilaisÂ Anterior left,Gastrocnemius right,Gastrocnemius left
0.0,0.0010214829720428882,-0.006653282500392539,0.0029176558466644164,0.003067923376167949,-0.0027811649376082003,-0.03535240565718712,0.0006832557147883046,0.006576526746446719
0.0005192,0.001051632872894837,-0.006436622977468261,0.0030590600931348203,0.0031322235632841224,-0.002563210437093759,-0.034763759202934175,0.0007124451087874769,0.006905145517578991
0.0010385,0.0010815767756303294,-0.00622045083086994,0.003200881120511168,0.003198086083266289,-0.0023431084214561356,-0.03417594383107386,0.0007418171054517696,0.007232979709927107
0.0015577,0.0011113145697566715,-0.006004794521021521,0.0033431089419216904,0.0032655193343800746,-0.002120851353168863,-0.03358901185563906,0.0007713713637838371,0.007559980896610851
0.0020769,0.0011408463376472936,-0.005789682353602389,0.003485733604736984,0.0033345314615525886,-0.0018964317527693552,-0.03300301481366859,0.0008011075475997955,0.007886100843924822
0.0025962,0.0011701723576276084,-0.0055751424703715195,0.003628745194911682,0.0034051303519340584,-0.0016698422000255338,-0.03241800344303768,0.0008310253258856224,0.008211291528073416
0.0031154,0.0011992931070160303,-0.005361202840078899,0.003772133841310525,0.003477323630491397,-0.0014410753351973397,-0.03183402766068263,0.0008611243731435195,0.008535505151837406
0.0036346,0.0012282092651177419,-0.005147891249470524,0.003915889720015787,0.0035511186556353865,-0.0012101238603971214,-0.031251136541235715,0.0008914043697276808,0.00885869416115906
0.0041538,0.0012569217161688348,-0.0049352352943931805,0.004060003058613106,0.003626522514883152,-0.0009769805410527665,-0.030669378296086163,0.0009218650021689102,0.009180811261633144
0.0046731,0.001285431552228508,-0.004723262371004991,0.004204464140452874,0.0037035420205575715,-0.0007416382074772811,-0.030088800252882502,0.0009525059634875263,0.009501809434891822
0.0051923,0.001313740076017065,-0.004511999667097561,0.004349263308884434,0.0037821837055252256,-0.0005040897565483322,-0.029509448835491007,0.000983326953493991,0.00982164195487201
0.0057115,0.0013418488036975056,-0.004301474153535319,0.004494390971460389,0.0038624538189744742,-0.00026432815350104714,-0.028931369544424577,0.001014327679076698,0.01014026240395425
0.0062308,0.0013697594675985544,-0.004091712575817437,0.004639837604108405,0.003944358322235207,-2.234643383713435e-05,-0.02835460693775599,0.0010455078544763475,0.01045762468896256
0.00675,0.0013974740188770175,-0.003882741445767506,0.00478559375526792,0.0040279028846417885,0.0002218622946468512,-0.02777920461252894,0.0010768672015463413,0.010773683057015086
0.0072692,0.0014249946301174115,-0.0036745870333558524,0.004931650049989219,0.004113092879440706,0.00046830484970949857,-0.027205205186679914,0.001108405449998637,0.01108839211121575
0.0077885,0.0014523236978668677,-0.0034672753586591364,0.005077997193992363,0.004199933379744389,0.0007169879723903895,-0.02663265028148335,0.001140122337634516,0.011401706826177273
0.0083077,0.0014794638451033604,-0.0032608321839615187,0.0052246259776835375,0.0042884291545327,0.0009679183246095774,-0.026061580504531816,0.0011720176105597393,0.011713582563366317
0.0088269,0.0015064179236353612,-0.0030552830060013303,0.005371527280126395,0.004378584664703528,0.0012211024866386185,-0.02549203543326204,0.0012040910233835753,0.012023975086261577
0.0093462,0.0015331890164310572,-0.002850653048366861,0.00551869207296607,0.004470404059173971,0.001476546954441217,-0.0249240535990366,0.0012363423394011936,0.012332840575316
0.0098654,0.001559780439875304,-0.002646967254044549,0.005666111424303592,0.004563891171033532,0.0017342581368816857,-0.024357672471790052,0.0012687713307589364,0.012640135642714597
0.0103846,0.001586195745952523,-0.0024442502781225725,0.005813776502518518,0.004659049513750765,0.001994242352799569,-0.023792928445247555,0.0013013777786019898,0.012945817346919748
0.0109038,0.001612438724353782,-0.002242526480652629,0.0059616785800376635,0.004755882277434778,0.002256505827948923,-0.023229856822723268,0.001334161473204008,0.013249843206996695
0.0114231,0.0016385134045063285,-0.0020418199196725077,0.006109809037047888,0.004854392325153011,0.0025210546918008917,-0.022668491803505313,0.0013671222140782622,0.013552171216712523
0.0119423,0.001664424057523865,-0.0018421543443919344,0.006258159365150933,0.004954582189306713,0.002787894974208347,-0.022108866469833798,0.0014002598100699153,0.013852759858402671
0.0124615,0.0016901751980758777,-0.0016435531885440565,0.006406721170958355,0.005056454068065512,0.0030570326019315015,-0.021551012774477935,0.001433574079429052,0.0141515681165996
0.0129808,0.0017157715861743517,-0.0014460395639048435,0.006555486179624607,0.005160009821862497,0.0033284733950235115,-0.020994961528918058,0.0014670648498641271,0.014448555491418836
0.0135,0.0017412182288762345,-0.0012496362539825875,0.006704446238316336,0.00526525096995116,0.0036022230630752224,-0.020440742392138018,0.0015007319585755281,0.014743682011698263
0.0140192,0.0017665203819000313,-0.001054365707879607,0.0068535933196159195,0.005372178687025581,0.003878287201318297,-0.019888383860033176,0.0015345752522689814,0.015036908247887028
0.0145385,0.001791683551154949,-0.0008602500343281768,0.0070029195248572755,0.005480793799905154,0.004156671286586041,-0.019337913255438866,0.0015685945871485732,0.015328195324680738
0.0150577,0.0018167134941810335,-0.0006673109959026469,0.007152417087391906,0.005591096784285182,0.0044373806731312785,-0.01878935671878387,0.001602789828889196,0.015617504933399824
0.0155769,0.0018416162214987765,-0.0004755700034096491,0.007302078375783147,0.005703087761554647,0.004720420588300605,-0.01824273919937322,0.0016371608525882844,0.015904799344108052
0.0160962,0.0018663979978666906,-0.0002850481104582042,0.007451895896926544,0.005816766495682414,0.005005796128064352,-0.01769808444730426,0.0016717075426967544,0.01619004141746827
0.0166154,0.0018910653434453578,-9.576600821140175e-05,0.007601862299094276,0.0059321323901731626,0.005293512252401547,-0.017155415006019553,0.0017064297929290928,0.016473194616332544
0.0171346,0.0019156250348664708,9.225597967886566e-05,0.007751970374901495,0.006049184485094346,0.005583573780539138,-0.01661475220549988,0.001741327506152577,0.016754223017063787
0.0176538,0.0019400841062053877,0.00027899790195287845,0.00790221306419242,0.006167921454175454,0.005875985386044731,-0.016076116156100256,0.0017764005942556165,0.017033091320586037
0.0181731,0.0019644498498557245,0.0004644401844387978,0.008052583456843983,0.006288341601980945,0.006170751591772038,-0.015539525743031688,0.0018116489779951967,0.01730976486316052
0.0186923,0.0019887298173045264,0.0006485636345623688,0.00820307479548479,0.006410442861158234,0.006467876764658221,-0.015004998621491138,0.00184707258682341,0.017584209626884555
0.0192115,0.0020129318198065685,0.0008313494456700888,0.008353680478127205,0.006534222789762144,0.006767365110372311,-0.014472551212441698,0.0018826713586930456,0.01785639224991049
0.0197308,0.0020370639289563437,0.0010127792011654705,0.008504394060710322,0.006659678568657291,0.007069220667813892,-0.013942198699044806,0.001918445239842195,0.018126280036381875
0.02025,0.002061134477156329,0.0011928348784581559,0.008655209259551759,0.0067868069989998735,0.007373447303461206,-0.013413955023745839,0.0019543941845578177,0.018393840966084044
0.0207692,0.0020851520579801236,0.0013714988527257501,0.008806119953706247,0.006915604499800375,0.007680048705567853,-0.012887832886014028,0.0019905181549182025,0.018659043703806416
0.0212885,0.002109125526429075,0.001548753900488332,0.0089571201872292,0.007046067105568755,0.00798902837820722,-0.01236384374073718,0.0020268171205142394,0.018921857608413663
0.0218077,0.0021330639990809956,0.0017245832029956828,0.009108204171343583,0.0071781904640437,0.008300389635163807,-0.011841997797271173,0.0020632910581494055,0.019182252741623045
0.0223269,0.0021569768541296183,0.0018989703494273274,0.009259366286508605,0.0073119698340076145,0.008614135593670727,-0.011322304019143739,0.0020999399515183696,0.019440199876485317
0.0228462,0.0021808737313134636,0.002071899339905529,0.009410601084388895,0.00744740008318899,0.008930269167992817,-0.010804770124411374,0.0021367637908641115,0.019695670505566875
0.0233654,0.0022047645317328736,0.0022433545883213837,0.009561903289723015,0.007584475686253871,0.009248793062855108,-0.010289402586667742,0.0021737625726134463,0.0199486368488308
0.0238846,0.00222865941755408,0.0024133209249741615,0.009713267802090362,0.007723190722888114,0.009569709766716677,-0.00977620663670146,0.0022109362989908617,0.02019907186121471
0.0244038,0.0022525688115993077,0.002581783599024032,0.009864689697575722,0.007863538875972154,0.009893021544890227,-0.009265186264800636,0.002248284977610585,0.020446949239903214
0.0249231,0.002276503396822075,0.0027487282807583126,0.010016164230331075,0.008005513429849976,0.010218730432507919,-0.00875634422370127,0.002285808621046814,0.020692243431292747
0.0254423,0.0023004741156669706,0.0029141410636713966,0.010167686834034495,0.008149107268694025,0.01054683822733419,-0.008249682032176332,0.0023235072463820786,0.02093492963764658
0.0259615,0.002324492169313328,0.0030780084663585487,0.010319253123246204,0.008294312874967735,0.010877346482426465,-0.007745199979262085,0.0023613808747337205,0.02117498382343766
0.0264808,0.002348569016802279,0.0032403174342238105,0.010470858894661978,0.008441122327987364,0.011210256498644933,-0.007242897129118109,0.002399429530758527,0.021412382721377066
0.027,0.0023727163740467623,0.003401055341002346,0.010622500128264163,0.008589527302584783,0.011545569317012984,-0.006742771326517296,0.002437653242135572,0.021647103838125806
0.0275192,0.0023969462127240845,0.003560209990097627,0.0107741729883705,0.0087395190678729,0.011883285710930306,-0.006244819202961959,0.0024760520390273563,0.021879125459687752
0.0280385,0.002421270759050658,0.0037177696157339713,0.010925873824580911,0.008891088486115303,0.012223406178241135,-0.005749036183422066,0.0025146259535193667,0.022108426656481564
0.0285577,0.0024457024924385493,0.003873722883925045,0.011077599172622327,0.009044226011701705,0.012565930933160576,-0.005255416493691439,0.0025533750190382186,0.022334987288089428
0.0290769,0.0024702541440334985,0.004028058893259049,0.011229345755091526,0.009198921690230712,0.012910859898062284,-0.004763953168357679,0.002592299269748581,0.02255878800768042
0.0295962,0.002494938695134078,0.004180767175501429,0.011381110482095962,0.009355165157701394,0.013258192695131042,-0.0042746380593814155,0.002631398739929145,0.022779810266106138
0.0301154,0.0025197693754917313,0.00433183769601603,0.011532890451792514,0.00951294563981508,0.013607928637884138,-0.0037874618452803997,0.002670673463327936,0.022998036315666222
0.0306346,0.002544759661491493,0.004481260854005737,0.011684682950824183,0.009672251951388723,0.01396006672256566,-0.0033024140409138275,0.002710123472497322,0.023213449213541314
0.0311538,0.0025699232742132797,0.00462902748257369,0.011836485454654874,0.009833072495881145,0.014314605619418023,-0.0028194830078621036,0.0027497487981091233,0.0234260328248909
0.0316731,0.002595274177373739,0.004775128848606331,0.0119882956278025,0.009995395265033367,0.01467154366383525,-0.0023386559653970854,0.002789549468250259,0.023635771825613452
0.0321923,0.002620826575148708,0.004919556652479583,0.012140111323970896,0.010159207838624194,0.015030878847402784,-0.0018599190020375978,0.002829525507699422,0.023842651704766078
0.0327115,0.0026465949098764215,0.0050623030275896395,0.012291930586081148,0.010324497384342171,0.015392608808829058,-0.0013832570876847038,0.0028696769371852936,0.024046658766641055
0.0332308,0.0026725938596416704,0.005203360539709879,0.012443751646203207,0.010491250657774962,0.01575673082477437,-0.0009086540863308588,0.002910003772626853,0.024247780132496493
0.03375,0.002698838335741175,0.0053427221861755405,0.012595572925388725,0.010659454002517188,0.016123241800583242,-0.00043609276933671175,0.002950506024356317,0.02444600374193868
0.0342692,0.0027253434800305057,0.0054803813948978205,0.012747393033406234,0.010829093350397728,0.01649213826092684,3.444517073102381e-05,0.0029911836963252615,0.024641318353953473
0.0347885,0.002752124662152907,0.005616332023209056,0.01289921076837977,0.01100015422182747,0.016863416340362484,0.0005029791057075268,0.003032036785294486,0.02483371354758443
0.0353077,0.0027791974766504333,0.005750568356540684,0.013051025116332129,0.011172621726268492,0.017237071773817756,0.000969529456890837,0.003073065280008186,0.025023179722255318
0.0358269,0.002806577739957794,0.005883085106935619,0.01320283525063386,0.011346480562825683,0.01761309988700711,0.0014341176795633322,0.0031142691603530397,0.02520970809773486
0.0363462,0.0028342814872793147,0.00601387741139672,0.013354640531359116,0.011521715020961784,0.017991495586789245,0.001896766246981543,0.0031556483965028467,0.025393290713741717
0.0368654,0.0028623249693494044,0.006142940830073065,0.01350644050454926,0.011698308981336891,0.018372253351473786,0.002357498633842471,0.0031972029480494234,0.0255739204291879
0.0373846,0.002890724649076897,0.0062702713442858125,0.013658234901385152,0.011876245916773477,0.01875536722108593,0.0028163392992348545,0.0032389327631204986,0.02575159092105932
0.0379038,0.002919497198073622,0.0063958653543956055,0.01381002363726887,0.012055508893348034,0.01914083078759789,0.0032733136690840494,0.0032808377774854367,0.025926296682932996
0.0384231,0.0029486594930675475,0.006519719677513718,0.013961806810815611,0.012236080571610476,0.019528637185136016,0.003728448118099322,0.003322917913649655,0.026098033023131136
0.0389423,0.0029782286122008563,0.00664183154505938,0.014113584702756322,0.012417943207932467,0.019918779080172522,0.004181769951232447,0.003365173079938645,0.026266796062513323
0.0394615,0.003008221831213308,0.006762198600165998,0.014265357774751623,0.012601078655985944,0.02031124866171088,0.004633307384656608,0.003407603169572548,0.026432582731908533
0.0399808,0.003038656619511297,0.006880818894939285,0.014417126668117394,0.012785468368353071,0.020706037631473807,0.005083089526274741,0.0034502080597322345,0.026595390769189122
0.0405,0.0030695506361230465,0.006997690887570543,0.01456889220246239,0.012971093398268971,0.02110313719410263,0.005531146355766654,0.0034929876106178444,0.026755218715989404
0.0410192,0.0031009217255404268,0.007112813439308475,0.014720655374238167,0.013157934401498522,0.02150253804737678,0.00597750870418453,0.003535941664500721,0.02691206591407154
0.0415385,0.0031327879134479615,0.007226185811293075,0.01487241735520172,0.013345971638348568,0.021904230372461937,0.006422208233106627,0.003579070044769666,0.02706593250134196
0.0420577,0.003165167402339616,0.007337807661255207,0.015024179490791297,0.013535184975816813,0.022308203824195353,0.006865277413359187,0.0036223725549724027,0.027216819407521572
0.0425769,0.003198078567024037,0.007447679040085566,0.015175943298416057,0.013725553889878641,0.022714447521416756,0.007306749503316744,0.0036658489778531246,0.02736472834947314
0.0430962,0.0032315399500189588,0.0075558003882767975,0.015327710465660279,0.013917057467913095,0.02312295003735333,0.007746658526791164,0.003709499074386985,0.02750966182618898
0.0436154,0.0032655702568355417,0.007662172532242603,0.01547948284840306,0.014109674411269089,0.023533699390067418,0.008185039250519952,0.00375332258281235,0.027651623113442155
0.0441346,0.0033001883511534383,0.007766796680517739,0.015631262468854396,0.014303383037972899,0.02394668303297554,0.008621927161264573,0.003797319217661628,0.02779061625810439
0.0446538,0.0033354132498874017,0.007869674419842784,0.015783051513508516,0.014498161285577923,0.024361887845447447,0.009057358442529613,0.0038414886687914737,0.02792664607213401
0.0451731,0.003371264118146316,0.007970807711137607,0.015934852331015242,0.014693986714157626,0.02477930012349384,0.009491369950913835,0.0038858306004131574,0.028059718126237473
0.0456923,0.003407760264085533,0.008070198885367377,0.016086667429970038,0.01489083650944255,0.025198905570551197,0.009923999192104264,0.003930344650123878,0.028189838743208264
0.0462115,0.003444921133653426,0.008167850639304974,0.01623849947662331,0.015088687486102283,0.025620689288372047,0.010355284296524731,0.003975030427939804,0.028317014990947152
0.0467308,0.003482766305233109,0.008263766031193541,0.01639035129250936,0.015287516091173287,0.026044635768028797,0.010785263994650499,0.004019887515331628,0.02844125467516781
0.04725,0.0035213154841802485,0.008357948476312878,0.016542225851995315,0.015487298407633396,0.026470728881039036,0.011213977592000947,0.004064915464263389,0.028562566331792032
0.0477692,0.003560588497257904,0.008450401742453326,0.01669412627975028,0.015688010158123895,0.026898951870620094,0.011641464943822493,0.004110113796235345,0.028680959219038907
0.0482885,0.0036006052869693153,0.008541129945300706,0.0168460558481349,0.015889626708820003,0.02732928734308059,0.012067766429474122,0.004155482001331639,0.028796443309212712
0.0488077,0.003641385905789541,0.008630137543735842,0.016998017974511535,0.016092123073450603,0.02776171725935654,0.012492922926528111,0.004201019537273478,0.028909029280194443
0.0493269,0.0036829505102968407,0.008717429335052148,0.017150016218475214,0.016295473917467947,0.028196222926699897,0.012916975784598713,0.0042467258284785946,0.029018728506642423
0.0498462,0.0037253193552046785,0.00880301045009466,0.017302054279005816,0.01649965356236805,0.028632784990527238,0.013339966798911666,0.004292600265127694,0.029125553050907773
0.0503654,0.0037685127872952246,0.008886886348323889,0.017454135991541806,0.016704635990162288,0.029071383426436607,0.013761938183627533,0.0043386422022386,0.02922951565367079
0.0508846,0.003812551239255231,0.008969062812807752,0.017606265324976243,0.016910394848000602,0.029511997532400438,0.014182932544931979,0.0043848509587487965,0.029330629724304592
0.0514038,0.0038574552234152087,0.009049545945144758,0.01775844637857581,0.017116903452946638,0.02995460592114258,0.014602992853906118,0.004431225816607031,0.029428909330972718
0.0519231,0.0039032453253928625,0.009128342160321616,0.01791068337882383,0.017324134796904873,0.030399186512707465,0.0150221624191902,0.004477766019874627,0.02952436919046751
0.0524423,0.0039499421976418375,0.009205458181508279,0.018062980676188306,0.017532061551699788,0.030845716527229224,0.015440484859453874,0.004524470773837117,0.029617024657796254
0.0529615,0.0039975665529069105,0.009280901034793424,0.01821534274181608,0.017740656074306985,0.031294172477908715,0.01585800407568636,0.00457133924412676,0.029706891715522103
0.0534808,0.004046139157586871,0.009354678043863295,0.018367774164154183,0.017949890412235967,0.03174453016420621,0.016274764223319794,0.004618370555856515,0.02979398696286688
0.054,0.004095680825006426,0.009426796824626759,0.01852027964549941,0.018159736309064346,0.03219676466525756,0.016690809684198997,0.004665563792765969,0.029878327604582543
0.0545192,0.004146212408598544,0.00949726527978942,0.01867286399847706,0.0183701652101231,0.032650850333521546,0.017106185038410843,0.004712917996379782,0.02995993143959826
0.0550385,0.004197754794998703,0.009566091593379528,0.018825532142449537,0.018581148268332442,0.0331067607886661,0.017520935035986493,0.004760432165179113,0.03003881684944979
0.0555577,0.004250328897052532,0.009633284225228418,0.018978289099855584,0.018792656350187866,0.033564468911700715,0.017935104568489894,0.0048081052537865465,0.030115002786497806
0.0560769,0.004303955646738361,0.00969885190540819,0.019131139992480627,0.01900466004189574,0.03402394683936249,0.01834873864050608,0.004855936172164975,0.030188508761941603
0.0565962,0.004358655988006173,0.009762803628629326,0.019284090037658644,0.01921712965565781,0.034485165958762644,0.018761882341043125,0.004903923784830876,0.030259354833634653
0.0571154,0.004414450869534543,0.009825148648600873,0.01943714454440595,0.019430035236103895,0.034948096902300656,0.019174580814861793,0.004952066910082415,0.030327561593708374
0.0576346,0.004471361237407153,0.009885896472355877,0.019590308909487167,0.019643346566871913,0.03541270954285273,0.019586879233746936,0.00500036431924278,0.030393150156010722
0.0581538,0.0045294080277106154,0.009945056854544694,0.01974358861341352,0.01985703317733423,0.03587897298924131,0.019998822767734938,0.005048814735919157,0.030456142143366456
0.0586731,0.004588612159055429,0.010002639791698837,0.01989698921637359,0.020071064349469335,0.03634685558199249,0.020410456556311254,0.005097416835277765,0.030516559674666096
0.0591923,0.004648994525021993,0.010058655516468007,0.020050516354096406,0.020285409124877633,0.03681632488938788,0.020821825679592187,0.00514616924333539,0.030574425351790942
0.0597115,0.004710575986533708,0.010113114491832973,0.020204175733646815,0.02050003631194009,0.037287347703817496,0.021232975129504922,0.005195070536267882,0.03062976224638133
0.0602308,0.004773377364159267,0.010166027405296976,0.02035797312915286,0.020714914493118283,0.03775989003844003,0.02164394978097976,0.005244119239736134,0.03068259388645525
0.06075,0.004837419430346308,0.010217405163058342,0.020511914377464954,0.020930012032394394,0.03823391712415667,0.022054794363168383,0.005293313828230057,0.03073294424288443
0.0612692,0.0049027229015886796,0.010267258884167014,0.020666005373746518,0.021145297082849433,0.038709393406904165,0.022465553430701828,0.005342652724431153,0.03078083771573463
0.0617885,0.004969308430529595,0.010315599894667698,0.020820252066995636,0.021360737594377895,0.03918628254527292,0.02287627133500169,0.00539213429859428,0.03082629912047711
0.0623077,0.005037196598003072,0.01036243972173238,0.02097466045549732,0.021576301321536862,0.03966454740845511,0.023286992195657955,0.0054417568679492314,0.03086935367407836
0.0628269,0.005106407905016091,0.010407790087784956,0.02112923658220577,0.021791955831527453,0.04014415007452795,0.023697759871886645,0.005491518696122746,0.030910026980975513
0.0633462,0.00517696276467398,0.010451662904620724,0.021283986530056035,0.022007668512306358,0.040625051829076594,0.02410861793408048,0.00554141799258156,0.030948345018945195
0.0638654,0.005248881494051596,0.010494070267523522,0.021438916417204478,0.022223406580825004,0.041107213164161126,0.024519609635465647,0.0055914529120970665,0.03098433412487408
0.0643846,0.005322184306012894,0.010535024449383252,0.02159403239219745,0.02243913709139368,0.04159059377763172,0.024930777883877722,0.00564162155423211,0.031018020980439376
0.0649038,0.005396891300981458,0.010574537894816534,0.02174934062906761,0.02265482694416796,0.04207515257279611,0.025342165213669773,0.005691921962850439,0.03104943259770781
0.0654231,0.0054730224586645865,0.010612623214293203,0.021904847322357316,0.022870442893754415,0.042560847658443084,0.025753813757765722,0.005742352125649278,0.031078596304661775
0.0659423,0.005550597629733476,0.010649293178271346,0.022060558682068552,0.02308595155793266,0.04304763634922577,0.026165765219871726,0.005792909973715492,0.031105539730661755
0.0664615,0.005629636527462082,0.010684560711343516,0.02221648092853905,0.023301319426490448,0.04353547516640829,0.026578060846858435,0.005843593381105729,0.031130290791854226
0.0669808,0.005710158719327176,0.010718438886396724,0.022372620287244516,0.023516512870168604,0.04402431983897957,0.02699074140132691,0.005894400164450984,0.031152877676534612
0.0675,0.005792183618572171,0.010750940918788782,0.022528982983527065,0.023731498149712316,0.044514125305137736,0.02740384713437086,0.005945328082585943,0.031173328830474804
0.0680192,0.005875730475737254,0.010782080160543495,0.02268557523725033,0.023946241425025213,0.04500484571414864,0.02781741775854791,0.005996374836203427,0.0311916729422248
0.0685385,0.005960818370158443,0.010811870094567088,0.022842403257381915,0.024160708764422684,0.04549643442858235,0.028231492421072615,0.006047538067534299,0.031207938928397766
0.0690577,0.006047466201438227,0.010840324328888255,0.02299947323650397,0.024374866153980723,0.04598884402693115,0.028646109677243816,0.006098815360053109,0.031222155918947753
0.0695769,0.006135692680890555,0.010867456590924118,0.02315679134525271,0.024588679506976605,0.04648202630661278,0.029061307464118998,0.006150204238209782,0.031234353242448956
0.0700962,0.006225516322963015,0.01089328072177425,0.023314363726687864,0.024802114673417516,0.04697593228736286,0.029477123074448417,0.006201702167187633,0.031244560411385427
0.0706154,0.006316955436639193,0.010917810670544866,0.023472196490593022,0.025015137449653318,0.047470512215020286,0.02989359313088159,0.0062533065526880075,0.0312528071074599
0.0711346,0.006410028116824267,0.010941060488705223,0.023630295707708037,0.025227713588069644,0.047965715565709215,0.030310753560458713,0.006305014740741852,0.03125912316693044
0.0716538,0.006504752235717003,0.010963044324478166,0.02378866740389458,0.025439808806857433,0.04846149105042107,0.030728639569399436,0.006356824017548507,0.03126353856598354
0.0721731,0.006601145434171403,0.010983776417266763,0.02394731755423611,0.025651388799855037,0.04895778661999989,0.031147285618201313,0.006408731609342061,0.03126608340615243
0.0726923,0.006699225113051368,0.01100327109211883,0.024106252077073516,0.025862419246458993,0.04945454947053385,0.03156672539706001,0.006460734682285547,0.03126678789978919
0.0732115,0.006799008424581803,0.01102154275423115,0.02426547682797796,0.02607286582159954,0.04995172604915576,0.031986991801623114,0.006512830342393305,0.03126568235559897
0.0737308,0.006900512263699705,0.01103860588349512,0.02442499759366254,0.026282694205776964,0.05044926206025502,0.03240811690908929,0.0065650156354817935,0.031262797164244696
0.07425,0.007003753259408886,0.011054475029085464,0.024584820085834652,0.0264918700951548,0.05094710247210318,0.03283013195466424,0.006617287547149085,0.031258162784030305
0.0747692,0.007108747766142052,0.011069164804093635,0.02474494993499127,0.026700359211705896,0.05144519152389497,0.033253067308384995,0.006669643002783299,0.0312518097266704
0.0752885,0.007215511855134016,0.011082689880207393,0.02490539268415946,0.02690812731340726,0.05194347273320637,0.03367695245232375,0.006722078867600129,0.03124376854315425
0.0758077,0.007324061305809875,0.011095064982438094,0.025066153782584713,0.027115140204479676,0.05244188890387064,0.03410181595818245,0.006774591946709607,0.03123406980971173
0.0763269,0.007434411597192019,0.011106304883897121,0.02522723857936988,0.02732136374566782,0.05294038213427334,0.03452768546528905,0.0068271789852121685,0.03122274411388898
0.0768462,0.007546577899329846,0.01111642440062296,0.025388652317067637,0.027526763864556564,0.05343889382606667,0.03495458765900643,0.006879836668324068,0.031209822040740978
0.0773654,0.007660575064756029,0.011125438386460382,0.02555040012522938,0.027731306565919035,0.0539373646933033,0.035382548249564695,0.00693256162153212,0.03119533415914854
0.0778846,0.007776417619973199,0.011133361727993226,0.025712487013913567,0.02793495794209176,0.0544357347719895,0.03581159195132773,0.006985350410777705,0.03117931100826686
0.0784038,0.007894119756974887,0.011140209339532295,0.02587491786715641,0.028137684183372102,0.054933943430057065,0.03624174246250438,0.007038199542669977,0.031161783084112795
0.0789231,0.008013695324804532,0.011145996158159886,0.026037697436407856,0.028339451588433234,0.0554319293777531,0.03667302244531493,0.0070911054647281625,0.031142780826297883
0.0794423,0.008135157821156355,0.011150737138832493,0.02620083033393584,0.02854022657475173,0.055929630678446494,0.037105453506623004,0.007144064565652843,0.031122334604914
0.0799615,0.008258520384021846,0.011154447249543195,0.026364321026201853,0.02873997568904288,0.056426984759849606,0.03753905617904303,0.007197073175626113,0.03110047470757832
0.0804808,0.00838379578338555,0.011157141466545324,0.02652817382721098,0.028938665617698874,0.05692392842565323,0.03797384990253307,0.0072501275666404935,0.031077231326643945
0.081,0.008510996412973862,0.011158834769638873,0.026692392891839598,0.029136263197225006,0.057420397867572616,0.03840985300648267,0.0073032239528564614,0.03105263454658258
0.0815192,0.00864013428206036,0.011159542137521202,0.026856982209144113,0.029332735424668816,0.05791632867780206,0.038847082692305225,0.007356358490988427,0.031026714331545115
0.0820385,0.008771221007331294,0.011159278543203517,0.027021945595654136,0.029528049468037127,0.05841165586187497,0.03928555501654413,0.007409527280718995,0.030999500513105904
0.0825577,0.008904267804814708,0.011158058949494558,0.027187286688653663,0.02972217267669569,0.05890631385192598,0.03972528487450151,0.007462726365141299,0.030971022778196328
0.0830769,0.009039285481876703,0.01115589830455288,0.02735300893945395,0.029915072591746007,0.05940023652035163,0.040166285984398385,0.007515951731229222,0.030941310657233042
0.0835962,0.009176284429288311,0.011152811537509022,0.027519115606661967,0.030106716956373646,0.05989335719386535,0.040608570872074555,0.007569199310335299,0.030910393512446097
0.0841154,0.009315274613366446,0.011148813554158763,0.027685609749448344,0.03029707372616215,0.06038560866794273,0.0410521508562364,0.007622464978716144,0.030878300526412137
0.0846346,0.009456265568192413,0.011143919232728639,0.02785249422081904,0.030486111079366524,0.060876923221652675,0.04149703603426047,0.007675744558085256,0.030845060690797742
0.0851538,0.009599266387911485,0.01113814341971475,0.028019771660894872,0.03067379742714024,0.06136723263286996,0.041943235268560655,0.007729033816193048,0.03081070279531798
0.0856731,0.009744285719117028,0.011131500925795876,0.028187444490203255,0.030860101423709773,0.06185646819386476,0.04239075617352641,0.007782328467433997,0.030775255416915167
0.0861923,0.00989133175332273,0.011124006521821782,0.028355514902986406,0.031044991976490972,0.06234456072726457,0.04283960510303967,0.007835624173480753,0.030738746909163
0.0867115,0.010040412219526484,0.011115674934877593,0.028523984860530326,0.031228438256141834,0.06283144060238359,0.04328978713857771,0.007888916543945067,0.030701205391901108
0.0872308,0.01019153437686954,0.011106520844424995,0.028692856084518884,0.03141040970654671,0.0633170377519145,0.04374130607790928,0.00794220113706534,0.030662658741104975
0.08775,0.010344705007394532,0.011096558878521012,0.02886213005041731,0.03159087605472696,0.0638012816889767,0.044194164424391155,0.00799547346042058,0.03062313457899616
0.0882692,0.010499930408906021,0.011085803610114995,0.02903180798088953,0.03176980732067341,0.06428410152451519,0.044648363376871975,0.008048728971670489,0.0305826602643974
0.0887885,0.010657216387937148,0.01107426955342451,0.029201890839253904,0.0319471738270957,0.06476542598504341,0.045103902820210005,0.008101963079321409,0.03054126288333708
0.0893077,0.010816568252825993,0.011061971160390698,0.029372379322981944,0.03212294620908373,0.06524518343072301,0.04556078131641132,0.008155171143517843,0.030498969239907334
0.0898269,0.010977990806905152,0.011048922817213662,0.029543273857244715,0.03229709542367589,0.06572330187377329,0.04601899609639429,0.008208348476859256,0.030455805847379693
0.0903462,0.011141488341807936,0.011035138840968479,0.02971457458851159,0.032469592759329056,0.06619970899720232,0.04647854305238634,0.008261490345241922,0.030411798919582206
0.0908654,0.011307064630894582,0.011020633476302322,0.029886281378206023,0.03264040984528473,0.06667433217385199,0.046939416730958666,0.008314591968725606,0.03036697436254176
0.0913846,0.011474722922801753,0.011005420892213263,0.030058393796423024,0.03280951866082572,0.06714709848574883,0.04740161032670404,0.008367648522424899,0.03032135776639514
0.0919038,0.011644465935118547,0.010989515178911217,0.030230911115712873,0.03297689154441729,0.06761793474375265,0.047865115676563194,0.008420655137425096,0.030274974397572294
0.0924231,0.011816295848192186,0.010972930344761597,0.030403832304935513,0.03314250120272679,0.06808676750749497,0.04832992325480463,0.00847360690172257,0.03022784919125525
0.0929423,0.01199021429906647,0.010955680313312087,0.0305771560231899,0.03330632071951536,0.06855352310559971,0.048796022168662946,0.008526498861189578,0.030180006744116045
0.0934615,0.012166222375556026,0.010937778920403042,0.030750880613822383,0.03346832356439523,0.06901812765617776,0.04926340015464037,0.00857932602056357,0.03013147130733707
0.0939808,0.012344320610459274,0.010919239911361898,0.030925004098518127,0.033628483601446255,0.069480507087587,0.04973204357547617,0.008632083344460957,0.030082266779917047
0.0945,0.012524508975913015,0.010900076938281962,0.031099524171479424,0.03378677509768473,0.06994058715944915,0.050201937417788355,0.008684765758415458,0.030032416702266095
0.0950192,0.012706786877891412,0.010880303557385907,0.031274438193694624,0.03394317273137796,0.07039829348391409,0.050673065290391936,0.008737368149941053,0.02998194425009316
0.0955385,0.012891153150852075,0.01085993322647422,0.03144974318730131,0.034097651600197613,0.07085355154716226,0.05114540942329776,0.008789885369619638,0.029930872228589357
0.0960577,0.013077606052532003,0.01083897930245883,0.03162543583004713,0.03425018722920511,0.07130628673113536,0.05161895066739612,0.008842312232213418,0.02987922306691072
0.0965769,0.013266143258895989,0.010817455038982024,0.0318015124498517,0.03440075557866216,0.07175642433548549,0.05209366849482916,0.008894643517802125,0.02982701881296383
0.0970962,0.013456761859240102,0.010795373584120778,0.031977969019472724,0.03454933305165966,0.07220388959973326,0.05256954100005605,0.008946873972945066,0.029774281128497542
0.0976154,0.013649458351452846,0.010772747978176464,0.032154801151279555,0.034695896501558306,0.07264860772562537,0.053046544901614645,0.00899899831186802,0.029721031284504023
0.0981346,0.013844228637436519,0.010749591151549883,0.032332004092137503,0.03484042323923461,0.073090503899682,0.05352465554458331,0.009051011217674933,0.02966729015693203
0.0986538,0.01404106801869136,0.010725915922701475,0.03250957271840614,0.03498289104012624,0.0735295033159244,0.054003846903746384,0.009102907343584333,0.029613078222715226
0.0991731,0.014239971192065099,0.01070173499619647,0.03268750153105497,0.035123278151071385,0.073965531198773,0.05448409158746618,0.009154681314190387,0.02955841555611823
0.0996923,0.014440932245670607,0.010677060960834732,0.03286578465089973,0.03526156329693717,0.07439851282610577,0.05496536084226457,0.009206327726748481,0.029503321825402853
0.1002115,0.014643944654974431,0.010651906287865012,0.03304441581396238,0.035397725687033144,0.07482837355246649,0.055447624558116276,0.00925784115248525,0.029447816289816867
0.1007308,0.014849001279059167,0.010626283329283278,0.033223388366957735,0.03553174502130625,0.07525503883241248,0.05593085127445595,0.009309216137932947,0.029391917796907318
0.10125,0.01505609435706268,0.0106002043162148,0.03340269526290944,0.03566360149631447,0.07567843424399072,0.05641500818690076,0.009360447206288069,0.029335644780160354
0.1017692,0.015265215504797374,0.010573681357379718,0.03358232905689767,0.03579327581097685,0.07609848551233118,0.05690006115468969,0.009411528858794165,0.029279015256969295
0.1022885,0.015476355711552725,0.010546726437641716,0.03376228190194082,0.03592074917209797,0.0765151185333454,0.057385974708840375,0.00946245557614872,0.029222046826932416
0.1028077,0.015689505337084478,0.010519351416639516,0.03394254554501327,0.03604600329966553,0.07692825939751795,0.05787271206102402,0.009513221819934052,0.029164756670481812
0.1033269,0.015904654108793857,0.01049156802750086,0.03412311132320122,0.03616902043191957,0.07733783441377806,0.05836023511315843,0.009563822034072104,0.029107161547844557
0.1038462,0.01612179111910027,0.010463387875638693,0.03430397015999855,0.036289783330192456,0.07774377013343794,0.05884850446771865,0.009614250646303129,0.02904927779833713
0.1043654,0.01634090482301091,0.010434822437629254,0.03448511256174466,0.03640827528351884,0.0781459933741841,0.05933747943876441,0.009664502069688174,0.02899112133999391
0.1048846,0.01656198303589063,0.01040588306017181,0.034666528614206084,0.03652448011301573,0.07854443124410761,0.05982711806368303,0.009714570704135362,0.02893270766953028
0.1054038,0.0167850129314355,0.010376580959129723,0.03484820797930391,0.0366383821760332,0.07893901116575923,0.06031737711564585,0.00976445093794994,0.02887405186264077
0.1059231,0.017009981039853225,0.010346927218652581,0.035030139891989345,0.03674996637007702,0.07932966090021477,0.06080821211677585,0.009814137149408089,0.028815168574632385
0.1064423,0.017236873246253667,0.010316932790379008,0.03521231315727006,0.03685921813650493,0.07971630857113644,0.06129957735202363,0.009863623708354419,0.02875607204139326
0.1069615,0.017465674789252584,0.010286608492719788,0.035394716147390815,0.03696612346399863,0.08009888268881536,0.06179142588374853,0.00991290497782309,0.028696776080696304
0.1074808,0.017696370259791833,0.01025596501022081,0.03557733679917235,0.03707066889181342,0.08047731217418036,0.062283709567001,0.009961975315682367,0.028637294093837518
0.108,0.017928943600179097,0.010225012893005326,0.0357601626115132,0.037172841512807885,0.0808515263827579,0.06277637906550194,0.010010829076302382,0.02857763906760832
0.1085192,0.01816337810335035,0.010193762556294936,0.03594318064305925,0.03727262897625554,0.08122145512856818,0.06326938386831418,0.01005946061224583,0.028517823576601042
0.1090385,0.018399656412358207,0.010162224280008693,0.03612637751004587,0.03737001949044072,0.08158702870794228,0.06376267230720084,0.010107864275981225,0.028457859785846654
0.1095577,0.01863776052008931,0.010130408208439712,0.03630973938431757,0.03746500182504065,0.08194817792324603,0.06425619157466447,0.010156034421618353,0.028397759453783398
0.1100769,0.018877671769213882,0.010098324350008629,0.03649325199152981,0.03755756531329555,0.08230483410649674,0.0647498877426608,0.010203965406665511,0.028337533935554993
0.1105962,0.019119370852370404,0.01006598257709325,0.03667690060953741,0.03764769985396867,0.08265692914285969,0.06524370578197985,0.010251651593808114,0.028277194186636795
0.1111154,0.019362837812588372,0.010033392625933725,0.036860670066974244,0.03773539591309803,0.08300439549401266,0.06573758958228745,0.010299087352708174,0.02821675076678821
0.1116346,0.019608052043951895,0.010000564096612494,0.03704454474202863,0.03782064452554173,0.08334716622136722,0.06623148197281876,0.010346267061824154,0.028156213844329446
0.1121538,0.01985499229250694,0.009967506453108246,0.03722850856141912,0.03790343729631904,0.08368517500913625,0.06672532474371574,0.010393185110250742,0.028095593200740305
0.1126731,0.020103636657414832,0.009934229023423037,0.03741254499957529,0.03798376640174998,0.08401835618723773,0.06721905866799989,0.010439835899578016,0.028034898235578806
0.1131923,0.020353962592354544,0.009900740999781627,0.03759663707802858,0.038061624590396546,0.08434664475402517,0.0677126235241709,0.010486213845769612,0.027974137971716866
0.1137115,0.020605946907176327,0.009867051438902071,0.03778076736501809,0.0381370051838091,0.08466997639883492,0.06820595811942184,0.010532313381059442,0.02791332106089035
0.1142308,0.020859565769809178,0.009833169262336515,0.03796491797531663,0.038209902077081755,0.08498828752434039,0.0686990003134611,0.01057812895586658,0.027852455789560436
0.11475,0.021114794708424638,0.00979910325688106,0.038149070570282446,0.03828030973922062,0.08530151526870401,0.06919168704293094,0.010623655040727915,0.027791550085083105
0.1152692,0.021371608613859564,0.009764862075053565,0.03833320635814236,0.038348223213328717,0.0856095975275171,0.06968395434641277,0.010668886128248234,0.027730611522183334
0.1157885,0.021629981742300474,0.009730454235638153,0.0385173060945119,0.03841363811661113,0.08591247297551939,0.07017573739000915,0.010713816735067256,0.02766964732973039
0.1163077,0.021889887718232207,0.009695888124295199,0.038701350083158455,0.03847655064020375,0.08621008108809104,0.07066697049349245,0.010758441403843223,0.02760866439781048
0.1168269,0.02215129953765364,0.009661171994235572,0.03888531817701323,0.03853695754882861,0.08650236216251161,0.07115758715700998,0.01080275470525249,0.027547669285092734
0.1173462,0.02241418957156317,0.009626313966957852,0.03906918977943763,0.0385948561802788,0.08678925733898207,0.07164752008833505,0.010846751240004593,0.02748666822648446
0.1178654,0.022678529569716666,0.009591322033047339,0.039252943845749524,0.03865024444473568,0.08707070862140746,0.0721367012306534,0.010890425640872184,0.027425667141071336
0.1183846,0.022944290664660458,0.009556204053035623,0.03943655888501454,0.03870312082392107,0.08734665889793816,0.07262506179087351,0.010933772574735186,0.027364671640338036
0.1189038,0.02321144337604184,0.009520967758319537,0.039620012962107154,0.038753484370087125,0.08761705196126844,0.07311253226844966,0.01097678674463865,0.027303687036664675
0.1194231,0.023479957615199464,0.009485620752138295,0.03980328370004618,0.038801334704846424,0.08788183252869018,0.07359904248470538,0.011019462891863686,0.02724271835209422
0.1199423,0.023749802690035744,0.009450170510607592,0.03998634828260875,0.0388466720178451,0.08814094626190049,0.07408452161264545,0.01106179579801097,0.027181770327365892
0.1204615,0.024020947310173263,0.009414624383809403,0.04016918345722673,0.03888949706528183,0.08839433978656092,0.07456889820724347,0.011103780287096255,0.02712084743120925
0.1209808,0.024293359592396955,0.009378989596936135,0.04035176553816925,0.038929811168275597,0.08864196071160649,0.07505210023619172,0.011145411227657255,0.02705995386989355
0.1215,0.024567007066383706,0.009343273251487772,0.04053407041001447,0.03896761621108549,0.08888375764830238,0.07553405511109934,0.011186683534871256,0.02699909359702669
0.1220192,0.024841856680720715,0.009307482326520589,0.04071607353141392,0.03900291463918602,0.0891196802290458,0.07601468971912445,0.01122759217268277,0.026938270323597753
0.1225385,0.025117874809213833,0.009271623679945981,0.040897749939152045,0.039035709457201584,0.08934967912591042,0.07649393045502503,0.011268132155940466,0.02687748752825709
0.1230577,0.0253950272574869,0.009235704049877981,0.04107907425250362,0.03906600422670386,0.0895737060689301,0.07697170325361281,0.011308298552542655,0.026816748467827518
0.1235769,0.025673279269872926,0.009199730056027953,0.04126002067789123,0.03909380306387594,0.08979171386411895,0.07744793362259396,0.011348086485590676,0.026756056188040143
0.1240962,0.02595259553659788,0.009163708201145005,0.041440563013844925,0.039119110637046685,0.09000365641122411,0.07792254667577964,0.011387491135549448,0.026695413534487945
0.1246154,0.02623294020125772,0.009127644872500597,0.04162067465626584,0.03914193216409853,0.09020948872120799,0.07839546716664927,0.011426507742414644,0.026634823163790244
0.1251346,0.02651427686858915,0.009091546343415875,0.04180032860399519,0.03916227340975192,0.09040916693345603,0.07886661952224854,0.011465131607885792,0.02657428755496084
0.1256538,0.026796568612534457,0.009055418774830227,0.04197949746468992,0.039180140682728924,0.09060264833270613,0.07933592787740346,0.011503358097544745,0.026513809020972483
0.1261731,0.027079777984600737,0.0090192682169096,0.042158153461005723,0.039195540832798574,0.09078989136569487,0.07980331610923179,0.01154118264303897,0.0264533897205102
0.1266923,0.027363867022513543,0.008983100610693151,0.0423362684370881,0.03920848124770589,0.09097085565751613,0.08026870787193194,0.01157860074426905,0.02639303166990574
0.1272115,0.02764879725916497,0.008946921789776859,0.042513813865371564,0.03921896984998644,0.09114550202768676,0.08073202663182935,0.01161560797157988,0.026332736755245268
0.1277308,0.027934529731855808,0.008910737482032782,0.04269076085368695,0.039227015093667876,0.09131379250591458,0.0811931957026597,0.011652199967955034,0.026272506744642262
0.12825,0.028221024991831267,0.008874553311362771,0.04286708015267639,0.039232625960859475,0.09147569034756274,0.08165213828106754,0.01168837245121381,0.026212343300667483
0.1287692,0.028508243114109502,0.008838374799485467,0.0430427421635154,0.03923581195823059,0.09163116004880534,0.08210877748229858,0.01172412121621054,0.026152247992927806
0.1292885,0.028796143707602147,0.008802207367755555,0.043217716945941016,0.039236583113378326,0.09178016736146792,0.0825630363760639,0.011759442137035643,0.026092222310785528
0.1298077,0.02908468592552558,0.00876605633901423,0.04339197422658451,0.03923494997108477,0.09192267930754607,0.08301483802255388,0.01179433116921806,0.026032267676209826
0.1303269,0.029373828476101614,0.008729926939469886,0.043565483407607304,0.03923092358946343,0.09205866419339498,0.08346410550858005,0.011828784351928572,0.025972385456752064
0.1308462,0.029663529633546085,0.008693824300608013,0.043738213575638195,0.0392245155359945,0.09218809162358219,0.08391076198382291,0.011862797810183503,0.025912576978636526
0.1313654,0.029953747249343403,0.008657753461129266,0.04391013351100979,0.03921573788344825,0.09231093251439504,0.08435473069716437,0.011896367757048195,0.02585284353995825
0.1318846,0.03024443876380514,0.008621719368914624,0.044081211697291824,0.03920460320569546,0.09242715910699452,0.08479593503308308,0.011929490495839608,0.025793186423979566
0.1324038,0.03053556121791031,0.008585726883016512,0.04425141633111894,0.03919112457340366,0.09253674498020677,0.08523429854809145,0.011962162422327326,0.025733606912516898
0.1329231,0.030827071265424843,0.008549780775674606,0.04442071533230995,0.03917531554961773,0.0926396650629438,0.08566974500719331,0.011994380026932096,0.025674106299409208
0.1334423,0.031118925185297484,0.008513885734355093,0.04458907635427564,0.03915719018522305,0.09273589564624497,0.08610219842034164,0.012026139896920996,0.025614685904059444
0.1339615,0.03141107889432932,0.008478046363812015,0.044756466794711645,0.039136763014289304,0.09282541439493112,0.08653158307887629,0.012057438718598278,0.025555347085040158
0.1344808,0.03170348796011371,0.008442267188169249,0.04492285380657271,0.03911404904929286,0.09290820035886378,0.08695782359192135,0.012088273279490837,0.025496091253754488
0.135,0.0319961076142433,0.008406552653021692,0.04508820430932463,0.039089063776215426,0.0929842339838024,0.08738084492272238,0.012118640470527277,0.025436919888143568
0.1355192,0.03228889276578055,0.008370907127554141,0.04525248500046985,0.039061823149516665,0.09305349712185326,0.08780057242490323,0.012148537288209528,0.025377834546431673
0.1360385,0.032581798014988124,0.008335334906676335,0.045415662367342714,0.039032343586978435,0.09311597304150485,0.08821693187862177,0.012177960836776035,0.025318836880900506
0.1365577,0.032874777667314926,0.008299840213172593,0.0455777026991701,0.03900064196441869,0.09317164643724499,0.08862984952660401,0.012206908330355632,0.02525992865168428
0.1370769,0.03316778574763361,0.008264427199864526,0.045738572099393124,0.0389667356102734,0.09322050343875574,0.08903925211003612,0.012235377095111272,0.025201111740577258
0.1375962,0.03346077601472492,0.008229099951785196,0.04589823649824521,0.038930642300045566,0.09326253161968218,0.0894450669042942,0.01226336457137295,0.02514238816484556
0.1381154,0.03375370197600402,0.008193862488363244,0.046056661665581505,0.038892380250621326,0.09329772000597128,0.08984722175449224,0.012290868315759264,0.02508376009103496
0.1386346,0.034046516902483594,0.00815871876561535,0.04621381322395424,0.038851968114453274,0.09332605908377717,0.09024564511082876,0.012317886003287142,0.025025229848766296
0.1391538,0.03433917384396846,0.00812367267834554,0.04636965666192856,0.03880942497361197,0.09334754080692945,0.09064026606371303,0.012344415429469357,0.024966799944509923
0.1396731,0.034631625644476034,0.008088728062349757,0.046524157347633134,0.03876477033370645,0.09336215860396152,0.09103101437865178,0.012370454512399561,0.02490847307533043
0.1401923,0.034923824957877075,0.008053888696624191,0.046677280542539654,0.03871802411767467,0.09336990738469597,0.09141782053087719,0.012396001294824531,0.02485025214259262
0.1407115,0.03521572426375054,0.008019158305575822,0.04682899141546516,0.03866920665944505,0.09337078354638446,0.09180061573969606,0.012421053946203341,0.0247921402656196
0.1412308,0.035507275883446605,0.007984540561233716,0.04697925505679075,0.03861833869746967,0.0933647849794002,0.09217933200254046,0.012445610764753173,0.024734140795293662
0.14175,0.035798431996351396,0.007950039085459638,0.04712803649289008,0.03856544136812982,0.09335191107248104,0.09255390212869857,0.012469670179481477,0.024676257327590587
0.1422692,0.036089144656346855,0.007915657452156586,0.04727530070076104,0.03851053619901443,0.09333216271752233,0.0929242597727047,0.012493230752204163,0.024618493717037872
0.1427885,0.036379365808458936,0.007881399189473904,0.04742101262285326,0.03845364510207169,0.09330554231391855,0.09329033946736721,0.012516291179549588,0.024560854090087434
0.1433077,0.03666904730568709,0.007847267782007766,0.047565137182084466,0.038394790366634395,0.09327205377245351,0.09365207665641392,0.012538850294948039,0.02450334285839343
0.1438269,0.036958140926007674,0.007813266672995858,0.04770763929703817,0.03833399465231941,0.09323170251873825,0.09400940772673454,0.012560907070606489,0.024445964731985802
0.1443462,0.03724659838954379,0.007779399266505241,0.04784848389733547,0.03827128098180183,0.09318449549619545,0.09436227004020069,0.012582460619468367,0.02438872473233007
0.1448654,0.03753437137589389,0.0077456689296123895,0.04798763593917314,0.03820667273346438,0.09313044116858962,0.09471060196504474,0.012603510197157991,0.024331628205263845
0.1453846,0.03782141154161125,0.007712078994574567,0.048125060421020424,0.0381401936339227,0.09306954952210056,0.095054342906779,0.012624055203909326,0.02427468083380051
0.1459038,0.03810767053782631,0.007678632760991749,0.04826072239946662,0.038071867750427445,0.09300183206693792,0.0953934333386367,0.012644095186478684,0.024217888650790238
0.1464231,0.038393100028003564,0.007645333497958398,0.048394587005212125,0.03800171948314408,0.09292730183849347,0.09572781483151638,0.012663629840041053,0.02416125805142834
0.1469423,0.03867765170582469,0.0076121844462044294,0.048526619459194974,0.037929773557311905,0.09284597339802736,0.09605743008341004,0.012682659010069697,0.024104795805600966
0.1474615,0.03896127731318944,0.007579188820224775,0.048656785088845175,0.03785605501528411,0.09275786283288368,0.09638222294829558,0.012701182694198884,0.024048509070058056
0.1479808,0.03924392865832564,0.007546349810396971,0.048785049344458965,0.03778058920845092,0.09266298775623007,0.0967021384644727,0.012719201044069666,0.023992405400403406
0.1485,0.03952555763399942,0.007513670585086194,0.048911377815684554,0.03770340178904864,0.092561367306316,0.09701712288232166,0.012736714367158761,0.02393649276289179
0.1490192,0.03980611623581679,0.007481154292737194,0.04903573624811089,0.037624518701857276,0.09245302214524335,0.0973271236914631,0.012753723128590681,0.023880779546023082
0.1495385,0.040085556580607536,0.00744880406395251,0.049158090559950594,0.037543966175789874,0.09233797445724272,0.0976320896472975,0.012770227952933347,0.023825274571923384
0.1500577,0.040363830924882056,0.007416623013556361,0.04927840685880794,0.037461770715376916,0.0922162479464487,0.09793197079690165,0.012786229625977485,0.023769987107503276
0.1505769,0.040640891683351804,0.00738461424264353,0.04939665145852255,0.03737795909214899,0.09208786783416631,0.09822671850425996,0.012801729096500035,0.023714926875383367
0.1510962,0.04091669144750366,0.007352780840612605,0.04951279089607934,0.037292558335921135,0.09195286085562103,0.09851628547480769,0.012816727478011894,0.023660104064577598
0.1516154,0.041191183004218396,0.007321125887182904,0.04962679194857514,0.03720559572598203,0.09181125525618397,0.09880062577926328,0.0128312260504902,0.02360552934092485
0.1521346,0.041464319354423074,0.007289652454394481,0.049738621650232406,0.0371170987821916,0.09166308078706491,0.09907969487672763,0.012845226262095312,0.023551213857259817
0.1526538,0.041736053731766906,0.007258363608590688,0.049848247309449784,0.03702709525599053,0.09150836870046572,0.09935344963702862,0.012858729730872636,0.02349716926331433
0.1531731,0.04200633962130983,0.007227262412382823,0.04995563652587955,0.036935613121325934,0.09134715174418802,0.09962184836229096,0.012871738246439269,0.023443407715340807
0.1536923,0.0422751307782126,0.007196351926596501,0.05006075720752143,0.03684268056549743,0.0911794641556894,0.09988485080771282,0.012884253771655417,0.023389941885449725
0.1542115,0.042542381246417085,0.007165635212199425,0.05016357758782195,0.036748325979928824,0.09100534165558334,0.100142418201533,0.0128962784442804,0.023336784970653415
0.1547308,0.04280804537730494,0.007135115332210345,0.05026406624276853,0.036652577950870666,0.09082482144057838,0.10039451326417341,0.012907814578612972,0.023283950701608627
0.15525,0.04307207784832266,0.007104795353589036,0.050362192107966934,0.03655546525003939,0.09063794217585235,0.10064110022654416,0.012918864667115596,0.02323145335105042
0.1557692,0.043334433681560605,0.007074678349107159,0.05045792449569101,0.03645701682519888,0.09044474398685755,0.10088214484749962,0.012929431382022188,0.02317930774191008
0.1562885,0.043595068262273155,0.007044767399199967,0.050551233111892954,0.03635726179069067,0.09024526845055218,0.10111761443043552,0.012939517576928789,0.023127529255109993
0.1568077,0.04385393735732713,0.0070150655937988166,0.05064208807316238,0.03625622941791872,0.0900395585860531,0.1013474778390171,0.012949126288366433,0.023076133837028806
0.1573269,0.04411099713356493,0.00698557603414454,0.05073045992362283,0.036153949125795316,0.08982765884470444,0.10157170551202978,0.012958260737355504,0.023025138006630672
0.1578462,0.0443662041760693,0.006956301834581712,0.05081631965175381,0.03605045047115403,0.08960961509955649,0.10179026947734325,0.012966924330940703,0.02297455886225279
0.1583654,0.044619515506315995,0.006927246124333921,0.05089963870712682,0.035945763139136076,0.08938547463425016,0.10200314336498083,0.012975120663705687,0.022924414088045842
0.1588846,0.044870888600201254,0.006898412049260115,0.05098038901704384,0.03583991693355584,0.08915528613130345,0.1022103024192866,0.012982853519266315,0.022874721960062266
0.1594038,0.04512028140593108,0.006869802773592087,0.05105854300306644,0.035732941767251405,0.08891909965979855,0.10241172351018483,0.012990126871741342,0.022825501351987475
0.1599231,0.04536765236175934,0.006841421481653135,0.05113407359742368,0.035624867652425396,0.08867696666246994,0.10260738514352762,0.012996944887199342,0.02277677174050927
0.1604423,0.045612960413562484,0.00681327137955785,0.05120695425928698,0.03551572469098139,0.08842893994219585,0.10279726747052846,0.013003311925080549,0.02272855321032048
0.1609615,0.04585616503223876,0.006785355696892975,0.051277158990899935,0.03540554306486067,0.08817507364789656,0.10298135229628042,0.013009232539592262,0.02268086645875005
0.1614808,0.04609722623092045,0.006757677688379222,0.05134466235355135,0.03529435302638404,0.08791542325984394,0.10315962308735738,0.013014711481076495,0.02263373280001762
0.162,0.046336104581988106,0.006730240635513877,0.05140943948337939,0.03518218488860312,0.08765004557438738,0.10333206497849741,0.01301975369734859,0.02258717416910653
0.1625192,0.046572761233876284,0.006703047848193964,0.051471466106995704,0.03506906901566549,0.08737899868810266,0.10349866477836694,0.013024364335005615,0.022541213125250308
0.1630385,0.046807157927661026,0.0066761026663197335,0.05153071855691779,0.034955035813197984,0.08710234198137164,0.1036594109744047,0.013028548740703331,0.022495872855027518
0.1635577,0.04703925701341993,0.006649408461378154,0.05158717378679849,0.0348401157187125,0.086820136101402,0.10381429373674506,0.0130323124624006,0.0224511771750599
0.1640769,0.04726902146635622,0.0066229686380060385,0.051640809386440806,0.03472433919203885,0.08653244294469796,0.1039633049212212,0.013035661250570004,0.0224071505343086
0.1645962,0.047496414902678814,0.00659678663553241,0.05169160359658665,0.03460773670578935,0.08623932563899317,0.10410643807144904,0.013038601059373468,0.02236381801596368
0.1651154,0.047721401595230736,0.006570865929499679,0.05173953532346761,0.03449033873585994,0.0859408485246585,0.10424368841999294,0.01304113804780159,0.022321205338922102
0.1656346,0.04794394648885863,0.0065452100331631615,0.051784584153105793,0.03437217575197301,0.08563707713559762,0.1043750528886143,0.013043278580775352,0.02227933885885012
0.1661538,0.048164015215516234,0.0065198224989684184,0.05182673036535224,0.03425327820826712,0.08532807817964444,0.10450053008760399,0.013045029230208808,0.022238245568826333
0.1666731,0.048381574109095014,0.006494706920005919,0.05186595494765045,0.03413367653393892,0.08501391951847638,0.10462012031420052,0.013046396776031203,0.022197953099562375
0.1671923,0.04859659021997475,0.006469866931442412,0.05190223960851224,0.03401340112394264,0.08469467014705866,0.10473382555009526,0.01304738820716696,0.022158489719198423
0.1677115,0.04880903132928707,0.006445306211928401,0.05193556679069345,0.0338924823297522,0.08437040017263395,0.10484164945802849,0.013048010722471878,0.02211988433267132
0.1682308,0.04901886596288444,0.006421028484981053,0.05196591968405688,0.03377095045019132,0.08404118079327233,0.10494359737748135,0.013048271731623682,0.022082166480653007
0.16875,0.04922606340500672,0.006397037520341834,0.05199328223811061,0.033648835722336345,0.08370708427599653,0.10503967631947005,0.0130481788559651,0.02204536633805741
0.1692692,0.04943059371163747,0.006373337135308093,0.05201763917420992,0.03352616831249645,0.08336818393449755,0.1051298949604497,0.013047739929297473,0.022009514712114184
0.1697885,0.04963242772354152,0.006349931196037785,0.05203897599741209,0.03340297830727567,0.08302455410645633,0.10521426363533581,0.0130469629986229,0.021974643040008398
0.1703077,0.0498315370789752,0.0063268236188264845,0.05205727900797378,0.03327929570472095,0.08267627013048742,0.10529279432965082,0.013045856324832843,0.021940783386085603
0.1708269,0.0500278942260606,0.006304018371355766,0.05207253531248159,0.03315515040556002,0.08232340832272098,0.10536550067080305,0.013044428383341192,0.021907968438622534
0.1713462,0.05022147243481496,0.0062815194739120105,0.05208473283460712,0.03303057220453299,0.08196604595303966,0.10543239791850499,0.013042687864659841,0.021876231506164096
0.1718654,0.05041224580882667,0.0062593310005746505,0.05209386032547887,0.03290559078182102,0.08160426122098692,0.10549350295433718,0.013040643674914873,0.021845606513427988
0.1723846,0.050600189296569384,0.006237457080372825,0.0520999073736642,0.03278023569457544,0.08123813323136313,0.10554883427046545,0.013038304936301634,0.021816127996778685
0.1729038,0.05078527870234602,0.006215901898409356,0.052102864414755035,0.03265453636855032,0.08086774196952579,0.10559841195751908,0.0130356809874769,0.021787831099273115
0.1734231,0.05096749069685482,0.006194669696950928,0.05210272274055239,0.03252852208984159,0.0804931682764099,0.10564225769163903,0.013032781383886478,0.021760751565280633
0.1739423,0.05114680282737034,0.0061737647764833255,0.05209947450784491,0.03240222199673498,0.08011449382328412,0.10568039472070713,0.013029615898026543,0.021734925734680315
0.1744615,0.05132319352753232,0.006153191496730579,0.05209311274677795,0.03227566507166534,0.07973180108625824,0.10571284784976856,0.0130261945196369,0.02171039053663881
0.1749808,0.05149664212673651,0.006132954277636867,0.052083631368809544,0.03214888013328934,0.0793451733205574,0.10573964342566171,0.013022527455824433,0.021687183482972022
0.1755,0.05166712885912194,0.006113057600309993,0.052071025174250746,0.032021895828673354,0.07895469453457771,0.10576080932087216,0.013018625131114825,0.021665342661093948
0.1760192,0.05183463487215015,0.006093506007925337,0.05205528985938749,0.031894740625598085,0.07856044946373811,0.10577637491662817,0.013014498187430574,0.021644906726556022
0.1765385,0.05199914223477269,0.006074304106589141,0.05203642202318183,0.031767442804981345,0.07816252354414298,0.10578637108525696,0.01301015748399318,0.021625914895180436
0.1770577,0.05216063394518394,0.0060554565661600866,0.052014419173549854,0.03164003045341993,0.07776100288606924,0.10579083017182123,0.013005614097147403,0.021608406934791023
0.1775769,0.052319093938157264,0.00603696812102812,0.05198927973321371,0.03151253145585153,0.07735597424729151,0.10578978597505581,0.013000879320105314,0.021592423156545526
0.1780962,0.05247450709196332,0.006018843570849576,0.05196100304512462,0.03138497348833719,0.07694752500625841,0.10578327372762308,0.01299596466260782,0.021578004405873364
0.1786154,0.05262685923487011,0.006001087781237675,0.05192958937745365,0.031257384010964805,0.07653574313513233,0.10577133007570678,0.012990881850501353,0.021565192053023288
0.1791346,0.05277613715122494,0.005983705684407544,0.051895039928146744,0.0311297902608736,0.07612071717270441,0.1057539930579639,0.012985642825227323,0.021554027983225536
0.1796538,0.052922328587119344,0.005966702279774957,0.05185735682904044,0.031002219245399622,0.07570253619719612,0.10573130208385541,0.012980259743222056,0.021544554586473277
0.1801731,0.053065422255638275,0.005950082634508013,0.0518165431495347,0.030874697735342068,0.07528128979895765,0.10570329791137757,0.012974744975224868,0.021536814746928146
0.1806923,0.05320540784169591,0.00593385188403101,0.05177260289981938,0.03074725225835014,0.0748570680530732,0.10567002262421765,0.012969111105492162,0.021530851831954793
0.1812115,0.05334227600646027,0.00591801523247977,0.051725541033651075,0.030619909092430165,0.07442996149188243,0.10563151960835823,0.012963370930915522,0.021526709680789114
0.1817308,0.05347601839136961,0.005902577953107678,0.0516753634506774,0.030492694259572975,0.07400006107742677,0.10558783352815466,0.012957537460042,0.021524432592844985
0.18225,0.05360662762174325,0.00588754538864166,0.05162207699830619,0.03036563351950136,0.07356745817382906,0.10553901030191026,0.012951623911995147,0.021524065315663952
0.1827692,0.05373409730998996,0.005872922951587298,0.051565689473117494,0.03023875236353779,0.0731322445196146,0.10548509707697329,0.01294564371529556,0.0215256530325125
0.1832885,0.05385842205841642,0.005858716124482268,0.05150620962181704,0.03011207600859265,0.07269451219998134,0.10542614220437907,0.01293961050658006,0.02152924134963141
0.1838077,0.05397959746163819,0.005844930460097241,0.051443647141730255,0.029985629391273506,0.07225435361902753,0.10536219521305958,0.01293353812921883,0.0215348762831416
0.1843269,0.05409762010859547,0.005831571581583366,0.05137801268083676,0.029859437162116042,0.07181186147194452,0.10529330678364285,0.012927440631830045,0.021542604245610834
0.1848462,0.05421248758417561,0.005818645182565443,0.051309317837345984,0.029733523679937524,0.07136712871718331,0.10521952872186449,0.012921332266691546,0.0215524720322858
0.1853654,0.05432419847044434,0.0058061570271798245,0.05123757515881546,0.029607913006313817,0.07092024854860342,0.105140913931613,0.01291522748804919,0.0215645268069936
0.1858846,0.05443275234748799,0.005794112950056131,0.05116279814081441,0.029482628900181197,0.070471314367613,0.10505751638763147,0.012909140950321583,0.02157881608771704
0.1864038,0.05453814979386867,0.005782518856241828,0.051085001225135894,0.029357694812564224,0.07002041975531031,0.1049693911078978,0.012903087506201021,0.021595387731847687
0.1869231,0.0546403923866949,0.005771380721068755,0.051004199797561864,0.029233133881431006,0.06956765844463664,0.10487659412570548,0.012897082204650502,0.021614289921120713
0.1874423,0.054739482701310384,0.005760704589960664,0.050920410185186116,0.029108968926677282,0.06911312429255184,0.10477918246146783,0.012891140288796793,0.021635571146235384
0.1879615,0.05483542431060357,0.0057504965781809214,0.050833649653300755,0.02898522244524052,0.0686569112522442,0.10467721409426846,0.012885277193719468,0.021659280191165114
0.1884808,0.05492822178394094,0.005740762870519508,0.05074393640185247,0.02886191660634511,0.06819911334538674,0.10457074793318058,0.012879508544135847,0.021685466117160844
0.189,0.05501788068572693,0.005731509720918503,0.050651289561475306,0.02873907324687965,0.06773982463445238,0.1044598437883779,0.01287385015198176,0.021714178246451533
0.1895192,0.05510440757359391,0.005722743452035275,0.05055572918910697,0.0286167138669068,0.06727913919510045,0.10434456234205915,0.012868318013888144,0.021745466145645563
0.1900385,0.05518780999622537,0.005714470454742666,0.05045727626319608,0.028494859625306214,0.06681715108864665,0.10422496511920781,0.012862928308553448,0.021779379608836635
0.1905577,0.05526809649081564,0.005706697187565524,0.050355952678508224,0.028373531335550702,0.06635395433462896,0.1041011144582077,0.01285769739401201,0.021815968640417745
0.1910769,0.055345276580169626,0.005699430176052982,0.05025178124053861,0.028252749461615413,0.06588964288348131,0.10397307348133449,0.012852641804798767,0.021855283437606763
0.1915962,0.05541936076944574,0.005692676012085984,0.05014478565953954,0.02813253411401987,0.0654243105893272,0.10384090606514272,0.01284777824901104,0.021897374372687087
0.1921154,0.05549036054254529,0.005686441353119606,0.050034990544170814,0.02801290504600229,0.06495805118290525,0.10370467681076684,0.012843123605268602,0.021942291974966863
0.1926346,0.05555828835815118,0.0056807329213598426,0.049922421394781244,0.027893881649825515,0.0644909582446388,0.10356445101415403,0.012838694919573578,0.02199008691246024
0.1931538,0.05562315764541849,0.00567555750287457,0.04980710459632921,0.027775482953213904,0.06402312517786096,0.10342029463624598,0.012834509402071904,0.02204080997329421
0.1936731,0.05568498279931908,0.0056709219466385,0.04968906741095012,0.027657727615920332,0.06355464518220662,0.10327227427312657,0.012830584423718134,0.022094512046844563
0.1941923,0.05574377917564205,0.005666833163512076,0.04956833797017796,0.02754063392642268,0.06308561122718252,0.10312045712615137,0.012826937512845377,0.022151244104604416
0.1947115,0.05579956308565143,0.005663298125154281,0.04944494526682821,0.02742421979874911,0.06261611602592615,0.10296491097207491,0.012823586351642097,0.022211057180789192
0.1952308,0.055852351790401884,0.005660323862869479,0.049318919146548616,0.027308502769431538,0.06214625200916388,0.10280570413319079,0.01282054877253754,0.022274002352681833
0.19575,0.055902163494713344,0.005657917466388452,0.04919029029904436,0.02719349999458693,0.061676111299379,0.10264290544749935,0.012817842754497462,0.02234013072072221
0.1962692,0.0559490173408047,0.0056560860825838975,0.04905909024898336,0.027079228247126143,0.06120578568519983,0.10247658423891802,0.012815486419231794,0.02240949338834472
0.1967885,0.055992933401586446,0.005654836914120748,0.04892535134658751,0.026965703914090314,0.06073536659601825,0.10230681028754834,0.01281349802731588,0.022482141441567825
0.1973077,0.056033932673611855,0.005654177218041717,0.048789106757915174,0.02685294299411501,0.060264945076848486,0.10213365380001461,0.012811895974226828,0.02255812592833935
0.1978269,0.056072037069685894,0.005654114304288561,0.048650390454840056,0.026740961095022806,0.059794611763436416,0.10195718537988954,0.012810698786296504,0.022637497837641227
0.1983462,0.056107269411131123,0.005654655534159596,0.04850923720473135,0.026629773431545097,0.05932445685762883,0.10177747599822223,0.012809925116582655,0.022720308078357204
0.1988654,0.05613965341970973,0.0056558083187040345,0.04836568255983965,0.026519394823174305,0.05885457010301252,0.10159459696418432,0.012809593740659642,0.02280660745790707
0.1993846,0.056169213709201166,0.005657580117053799,0.0482197628463932,0.02640983969214788,0.05838504076083271,0.10140861989584957,0.012809723552330272,0.022896446660650573
0.1999038,0.056195975776635175,0.005659978434693413,0.04807151515340857,0.026301122061565776,0.0579159575862002,0.10121961669112166,0.012810333559260192,0.022989876226064212
0.2004231,0.05621996599318066,0.005663010821668609,0.04792097732121978,0.026193255553642967,0.05744740880459644,0.10102765949882501,0.012811442878536448,0.02308694652669407
0.2009423,0.05624121159469144,0.005666684870734261,0.04776818792972946,0.026086253388098855,0.056979482088685425,0.10083282068997258,0.012813070732151684,0.023187707745887607
0.2014615,0.05625974067191074,0.005671008215442242,0.047613186286385605,0.025980128380685218,0.05651226453544094,0.10063517282922389,0.0128152364424156,0.023292209855307326
0.2019808,0.05627558216033689,0.005675988528169761,0.04745601241388717,0.025874892941854303,0.05604584264359772,0.100434788646547,0.012817959427295217,0.023400502592229228
0.2025,0.056288765829753847,0.005681633518088743,0.04729670703762126,0.025770559075568657,0.05558030229143441,0.10023174100909683,0.01282125919568564,0.02351263543662882
0.2030192,0.056299322273430576,0.00568795092907683,0.04713531157283463,0.025667138378254017,0.05511572871489614,0.10002610289332259,0.012825155342612998,0.02362865758805739
0.2035385,0.05630728289699397,0.00569494853757058,0.04697186811154244,0.02556464203789647,0.05465220648606423,0.0998179473573166,0.012829667544371355,0.0237486179423112
0.2040577,0.05631267990698082,0.0057026341503615425,0.04680641940917674,0.025463080833284944,0.0541898194919803,0.09960734751341731,0.012834815553595398,0.023872565067896277
0.2045769,0.0563155462990746,0.005711015602335907,0.04663900887097766,0.025362465133399955,0.05372865091383161,0.09939437650107859,0.012840619194270785,0.024000547182291197
0.2050962,0.0563159158460332,0.005720100754158533,0.046469680538130526,0.02526280489694945,0.0532687832065046,0.09917910746001747,0.012847098356684053,0.024132612128010652
0.2056154,0.05631382308531387,0.005729897489902236,0.0462984790736525,0.025164109672052563,0.05281029807851267,0.09896161350365164,0.012854272992313951,0.02426880734847247
0.2061346,0.05630930330640134,0.005740413714623288,0.04612544974803282,0.025066388596071992,0.05235327647230439,0.09874196769283768,0.012862163108665987,0.024409179863670975
0.2066538,0.05630239253784512,0.005751657351884146,0.04595063842463127,0.02496965039559557,0.05189779854495771,0.09852024300992078,0.012870788764051998,0.02455377624566004
0.2071731,0.05629312753401181,0.005763636341224475,0.045774091544839884,0.02487390338656771,0.05144394364926531,0.09829651233310632,0.012880170062316443,0.024702642593849543
0.2076923,0.056281545761558145,0.005776358635581636,0.04559585611301384,0.024779155474571213,0.050991790315215814,0.09807084841116334,0.012890327147511066,0.02485582451011962
0.2082115,0.05626768538563061,0.00578983219866182,0.04541597968117771,0.02468541415525968,0.050541416231875594,0.09784332383847028,0.012901280198519532,0.025013367073757835
0.2087308,0.05625158525579767,0.005804065002263087,0.04523451033351386,0.024592686514940912,0.05009289822967512,0.09761401103041294,0.01291304942363365,0.0251753148162252
0.20925,0.05623328489172067,0.005819065023551619,0.04505149667064049,0.024500979231311545,0.04964631226310404,0.09738298219914383,0.01292565505508279,0.025341711695757625
0.2097692,0.056212824468570136,0.005834840242292581,0.04486698779368712,0.024410298574342987,0.04920173339381863,0.09715030932971204,0.012939117343518058,0.025512601071810092
0.2102885,0.05619024480219417,0.005851398638037038,0.044681033288175756,0.024320650407318796,0.048759235774165216,0.09691606415657182,0.012953456552452896,0.02568802567935111
0.2108077,0.05616558733404642,0.005868748187266429,0.044493683207716385,0.0242320401880234,0.04831889263112284,0.09668031814047806,0.012968692952661738,0.025868027603015684
0.2113269,0.05613889411588109,0.005886896860496159,0.044304988057525765,0.024144472970082043,0.047880776250668326,0.09644314244577577,0.0129848468165383,0.026052648251125732
0.2118462,0.056110207794223356,0.0059058526193399045,0.04411499877777866,0.02405795340445177,0.047444957962566696,0.09620460791809135,0.013001938412415088,0.02624192832958795
0.2123654,0.05607957159462358,0.005925623413536244,0.043923766726801,0.023972485741063095,0.04701150812558947,0.09596478506243253,0.013019987998845663,0.026435907815680042
0.2128846,0.056047029305704474,0.005946217177939248,0.043731343664113985,0.023888073830611863,0.046580496113163325,0.09572374402170421,0.013039015818851198,0.02663462593173747
0.2134038,0.05601262526301053,0.005967641829474679,0.04353778173333872,0.02380472112650081,0.046151990299451204,0.09548155455564666,0.013059042094132823,0.02683812111875379
0.2139231,0.055976404332669386,0.0059899052640634415,0.043343133444970317,0.023722430686930068,0.04572605804586802,0.09523828602020237,0.013080087019251322,0.027046431009908542
0.2144423,0.05593841189487487,0.0060130153535139005,0.04314745165903027,0.023641205177135912,0.04530276568803265,0.09499400734731689,0.013102170755775711,0.027259592404037403
0.2149615,0.05589869382720197,0.006036979942384712,0.04295078956760565,0.023561046871776854,0.044882178523157665,0.0947487870251785,0.013125313426402292,0.027477641239059783
0.2154808,0.0558572964877636,0.0060618068448197605,0.04275320067728348,0.02348195765746608,0.04446436079787804,0.0945026930789011,0.013149535109045754,0.02770061256537913
0.216,0.055814266698218915,0.006087503841356783,0.042554738791488265,0.02340393903544926,0.044049375696519934,0.0942557930516535,0.013174855830903857,0.02792854051927139
0.2165192,0.055769651726642874,0.006114078675711224,0.04235545799273075,0.023326992124426457,0.04363728532981,0.09400815398623762,0.013201295562497332,0.02816145829627712
0.2170385,0.055723499270266146,0.00614153905153684,0.042155412624775554,0.023251117663516934,0.043228150724026,0.09375984240711745,0.013228874211686488,0.028399398124612632
0.2175577,0.05567585743809418,0.006169892629164544,0.04195465727473583,0.0231763160153656,0.042822031810588655,0.09351092430290016,0.013257611617666054,0.028642391238615738
0.2180769,0.05562677473341386,0.006199147022320994,0.04175324675510282,0.02310258716938947,0.04241898741609457,0.09326146510926978,0.013287527544939708,0.028890467852241437
0.2185962,0.0555763000361956,0.006229309794828425,0.041551236085718556,0.023029930745162772,0.04201907525278985,0.09301152969237396,0.013318641677275827,0.029143657132623013
0.2191154,0.05552448258539844,0.006260388457287229,0.04134868047570017,0.022958345995939065,0.04162235190948363,0.09276118233266364,0.013350973611645906,0.029401987173714075
0.2196346,0.0554713719611853,0.006292390463742858,0.04114563530532491,0.022887831812308565,0.041228872842900416,0.09251048670918546,0.013384542852147257,0.02966548497002712
0.2201538,0.05541701806705522,0.006325323208338669,0.04094215610788493,0.022818386725988925,0.040838692369469964,0.09225950588432616,0.013419368803911593,0.02993417639048434
0.2206731,0.05536147111189934,0.006359194021956379,0.040738298551521425,0.02275000891374743,0.04045186365755296,0.09200830228900853,0.01345547076700118,0.030208086152396316
0.2211923,0.05530478159198712,0.006394010168845852,0.04053411842104756,0.022682696201452496,0.04006843872010058,0.0917569377083372,0.013492867930294226,0.03048723779558409
0.2217115,0.055247000272889264,0.006429778843246033,0.04032967159976977,0.02261644606825227,0.03968846840774555,0.09150547326769268,0.013531579365361123,0.030771653656659986
0.2222308,0.05518817817134371,0.006466507165998865,0.04012501405131693,0.022551255650878007,0.03931200240232206,0.09125396941927119,0.013571624020333205,0.031061354843482346
0.22275,0.055128366537071115,0.006504202181158081,0.039920201801486456,0.02248712174806991,0.038939089210811816,0.09100248592906764,0.013613020713765613,0.03135636120979897
0.2232692,0.05506761683454602,0.006542870852594762,0.039715290920116525,0.022424040825123167,0.03856977615971312,0.09075108186429835,0.013655788128495943,0.03165669133009402
0.2237885,0.05500598072472985,0.00658252006060153,0.03951033750299314,0.02236200901855188,0.03820410938983011,0.0904998155812605,0.013699944805500349,0.03196236247465285
0.2243077,0.054943510046771636,0.006623156598497256,0.03930539765380056,0.022301022140868612,0.03784213385147915,0.09024874471362399,0.013745509137748812,0.03227339058485888
0.2248269,0.05488025679968212,0.006664787169234102,0.039100527466123636,0.02224107568547729,0.03748389330010936,0.08999792616115182,0.013792499364061243,0.03258979024873667
0.2253462,0.05481627312398628,0.006707418382008664,0.03889578300551024,0.022182164831677183,0.037129430292334564,0.08974741607884404,0.013840933562966104,0.032911574676755054
0.2258654,0.05475161128335935,0.00675105674887894,0.03869122029160181,0.022124284449775662,0.03677878618237374,0.0894972698664999,0.013890829646563126,0.03323875567790431
0.2263846,0.05468632364625095,0.0067957086813887745,0.038486895280339856,0.02206742910630729,0.036432001118897016,0.08924754215869253,0.01394220535439175,0.03357134363606129
0.2269038,0.05462046266750181,0.0068413804872014105,0.03828286384625622,0.02201159306935681,0.03608911404227408,0.08899828681514944,0.013995078247306891,0.03390934748665651
0.2274231,0.0545540808699575,0.00688807836674373,0.038079181764854565,0.021956770313983454,0.03575016268222153,0.08874955691153193,0.014049465701363771,0.03425277469365713
0.2279423,0.05448723082608373,0.0069358084098627565,0.03787590469509049,0.021902954527743795,0.035415183555845574,0.08850140473060564,0.014105384901713574,0.03460163122687968
0.2284615,0.05441996513958786,0.006984576592495987,0.03767308816195744,0.021850139116310285,0.03508421196607615,0.08825388175379431,0.014162852836511829,0.03495592153964643
0.2289808,0.054352336427051035,0.007034388773357138,0.03747078753918545,0.021798317209182516,0.03475728200048864,0.08800703865310862,0.01422188629084143,0.035315648546798944
0.2295,0.05428439729957564,0.007085250690638928,0.03726905803205942,0.02174748166548816,0.034434426530509155,0.08776092528344297,0.014282501840652282,0.035680813603082534
0.2300192,0.054216200344452764,0.007137167958734553,0.037067954660363785,0.021697625079870487,0.03411567721099918,0.0875155906752328,0.014344715846719525,0.03605141648191521
0.2305385,0.05414779810685405,0.007190146064979512,0.03686753224146038,0.02164873978845952,0.03380106448021527,0.08727108302746665,0.01440854444862242,0.03642745535455483
0.2310577,0.0540792430715525,0.007244190366415512,0.03666784537350658,0.021600817874923805,0.033490617560139574,0.08702744970104706,0.014474003558745905,0.03680892676967795
0.2315769,0.054010587644676665,0.0072993060865781745,0.03646894841882103,0.02155385117659988,0.033184364457176575,0.08678473721249523,0.014541108856306965,0.03719582563338431
0.2320962,0.05394188413550264,0.0073554983123102664,0.036270895487404586,0.021507831290696472,0.03288233196321166,0.08654299122799457,0.014609875781407817,0.037588145189640404
0.2326154,0.053873184738288234,0.007412771990602189,0.03607374042062422,0.021462749580570557,0.03258454565702686,0.08630225655776873,0.014680319529118052,0.03798587700117567
0.2331346,0.05380454151415366,0.0074711319254614095,0.035877536775067706,0.021418597182072275,0.03229102990606919,0.08606257715079048,0.014752455043587855,0.03838901093084463
0.2336538,0.05373600637301313,0.007530582774812485,0.035682337806576564,0.021375365009955623,0.032001807868566635,0.08582399608981786,0.014826297012194515,0.03879753512346792
0.2341731,0.0536676310555619,0.007591129047429273,0.03548819645446473,0.021333043764351696,0.031716901495986966,0.08558655558675568,0.014901859859724493,0.03921143598816531
0.2346923,0.05359946711532295,0.007652775099900856,0.03529516532592998,0.02129162393730111,0.03143633153583432,0.08535029697834058,0.01497915774259338,0.03963069818119365
0.2352115,0.05353156590075769,0.007715525133632696,0.035103296680665,0.021251095819342116,0.03116011753477841,0.08511526072214934,0.015058204543106031,0.04005530458930259
0.2357308,0.05346397853744504,0.007779383191884416,0.034912642415674745,0.021211449506150618,0.030888277842111234,0.08488148639292993,0.015139013863759179,0.04048523631362109
0.23625,0.053396755910332896,0.007844353156845693,0.03472325405030638,0.02117267490522842,0.030620829613526145,0.08464901267925537,0.015221599021588693,0.04092047265408725
0.2367692,0.05332994864606589,0.007910438746751595,0.03453518271149802,0.02113476174263567,0.03035778881521433,0.08441787738050038,0.015305973042563552,0.041360991094433974
0.2372885,0.053263607095393156,0.007977643513038798,0.034348479119252116,0.02109769956976351,0.030099170228273776,0.08418811740414069,0.01539214865602851,0.04180676728774259
0.2378077,0.05319778131565962,0.008045970837544008,0.0341631935723392,0.021061477770142716,0.02984498745342601,0.08395976876337444,0.015480138289197367,0.04225777504257622
0.2383269,0.05313252105338443,0.008115423929745893,0.03397937593423737,0.021026085566283974,0.029595252916035913,0.08373286657506547,0.015569954061698673,0.042713986309704514
0.2388462,0.05306787572693034,0.00818600582405181,0.033797075619312875,0.02099151202654552,0.02934997787143017,0.0835074450580071,0.01566160778017558,0.04317537116943117
0.2393654,0.053003894409268185,0.00825771937713057,0.03361634157924685,0.020957746072023508,0.029109172410509847,0.08328353753150511,0.015755110932941498,0.04364189781953558
0.2398846,0.05294062581084049,0.00833056726529244,0.03343722228971331,0.020924776483460663,0.02887284546565293,0.08306117641427814,0.01585047468469316,0.04411353256384009
0.2404038,0.05287811826252899,0.00840455198191757,0.03325976573731325,0.020892591908168612,0.028641004816902734,0.08284039322367369,0.015947709871282682,0.04459023980141414
0.2409231,0.05281641969873036,0.008479675834934024,0.0330840194067697,0.020861180866959303,0.028413657098438082,0.08262121857519784,0.016046826994550033,0.045071982016427016
0.2414423,0.052755577640544615,0.00855594094434648,0.03291003026838825,0.020830531761080733,0.028190807805321103,0.0824036821823566,0.016147836217217472,0.04555871976866035
0.2419615,0.052695639179080676,0.008633349239816698,0.03273784476578729,0.020800632879152105,0.02797246130051843,0.08218781285680637,0.016250747357847407,0.04605041168469158
0.2424808,0.05263665095888327,0.008711902458296778,0.03256750880390219,0.020771472404093442,0.027758620822191615,0.08197363850881108,0.016355569885865184,0.04654701444975927
0.243,0.052578659161485505,0.008791602141716159,0.03239906773726711,0.020743038420044477,0.027549288491252596,0.08176118614800225,0.01646231291664826,0.04704848280032083
0.2435192,0.052521709489091135,0.008872449634723356,0.03223256635857813,0.020715318919267433,0.02734446531918011,0.08155048188443877,0.01657098520668324,0.047554769517312925
0.2440385,0.05246584714839082,0.008954446082483374,0.03206804888754097,0.020688301809028316,0.027144151216092965,0.08134155092996172,0.016681595148792104,0.04806582542012416
0.2445577,0.05241111683451681,0.009037592428531757,0.03190555896000666,0.020661974918451103,0.02694834499907595,0.08113441759983976,0.01679415076742898,0.0485815993612896
0.2450769,0.0523575627151406,0.009121889412686275,0.03174513961739797,0.020636326005339257,0.02675704440075414,0.08092910531469956,0.01690865971404871,0.04910203822191615
0.2455962,0.05230522841471834,0.009207337569017204,0.031586833296429764,0.02061134276295905,0.026570246078111055,0.08072563660273575,0.017025129262548486,0.0496270869078475
0.2461154,0.05225415699888884,0.009293937223877224,0.03143068181912564,0.02058701282677924,0.02638794562154604,0.08052403310219401,0.017143566304783787,0.05015668834657705
0.2466346,0.052204390959029436,0.009381688493991925,0.03127672638313355,0.020563323781161734,0.02621013756416596,0.08032431556412048,0.017263977346160034,0.05069078348491702
0.2471538,0.05215597219697474,0.009470591284611965,0.031125007552342605,0.02054026316599818,0.026036815391306214,0.08012650385536975,0.01738636850130135,0.05122931128743193
0.2476731,0.05210894200990369,0.009560645287727893,0.03097556524780303,0.020517818483287747,0.02586797155027582,0.07993061696186393,0.01751074548979797,0.05177220873564423
0.2481923,0.052063341075399935,0.009651849980348631,0.030828438738951164,0.020495977203651566,0.025703597460321213,0.07973667299209439,0.017637113632033914,0.05231941082802022
0.2487115,0.05201920943669075,0.009744204622844586,0.030683666635140935,0.02047472677277974,0.02554368352280324,0.0795446891808583,0.017765477845096665,0.05287085058074417
0.2492308,0.051976586488069014,0.009837708257356354,0.03054128687748321,0.02045405461780708,0.02538821913158187,0.07935468189322177,0.017895842638770698,0.05342645902928861
0.24975,0.05193551096050304,0.009932359706269907,0.030401336730993992,0.02043394815361404,0.025237192683603006,0.07916666662870149,0.018028212111616704,0.05398616523078847
0.2502692,0.05189602090743832,0.01002815757075911,0.030263852777052333,0.020414394789049547,0.025090591589681823,0.07898065802565676,0.01816258994713837,0.05454989626722673
0.2507885,0.051858153690795175,0.01012510022939634,0.0301288709061684,0.020395381933072446,0.024948402285477064,0.0787966698658831,0.018298979410038534,0.05511757724943872
0.2513077,0.05182194596716612,0.010223185836831943,0.029996426311062058,0.02037689700080836,0.02481061024265063,0.07861471507939843,0.018437383342566404,0.05568913132194218
0.2518269,0.05178743367421635,0.01032241232254314,0.029866553480051912,0.020358927419518703,0.024677199980206694,0.07843480574941207,0.018577804160957476,0.056264479668599446
0.2523462,0.05175465201729062,0.010422777389652967,0.02973928619075464,0.02034146063447851,0.024548155076004528,0.07825695311746694,0.01872024385196758,0.05684354151911795
0.2528654,0.051723635456229475,0.010524278513819797,0.029614657504094095,0.020324484114759723,0.024423458178439,0.07808116758874506,0.018864703969502322,0.057426234156394626
0.2533846,0.051694417692397535,0.010626912942197886,0.0294926997586194,0.020307985358916657,0.024303091018282784,0.07790745873752677,0.01901118563134307,0.05801247292470987
0.2539038,0.05166703165592619,0.010730677692469399,0.029373444565131038,0.020291951900570593,0.024187034420683973,0.0777358353127948,0.019159689515970524,0.05860217123877591
0.2544231,0.051641509493172685,0.010835569551948324,0.02925692280161374,0.020276371313890817,0.02407526831731274,0.07756630524397391,0.01931021585948677,0.05919524059364459
0.2549423,0.05161788255439739,0.010941585076756674,0.029143164608474628,0.020261231218969843,0.023967771758650582,0.07739887564679815,0.01946276445263681,0.05979159057547873
0.2554615,0.051596181381660916,0.011048720591073338,0.029032199384084977,0.020246519287090974,0.023864522926415586,0.07723355282929634,0.019617334637930448,0.0603911288731913
0.2559808,0.05157643569694244,0.011156972186455985,0.028924055780623528,0.020232223245886936,0.02376549914611697,0.07707034229788719,0.019773925306865513,0.06099376129095595
0.2565,0.05155867439048094,0.011266335721236387,0.028818761700219252,0.02021833088438868,0.02367067689973206,0.07690924876357451,0.019932534897253527,0.06159939176159242
0.2570192,0.05154292550934096,0.011376806819989507,0.028716344291391218,0.020204830057963776,0.023580031838498612,0.0767502761482331,0.02009316139064889,0.06220792236083001
0.2575385,0.051529216246204886,0.011488380873076753,0.02861682994578287,0.020191708693144305,0.023493538795815498,0.07659342759097629,0.020255802309882838,0.06281925332245221
0.2580577,0.05151757292839411,0.011601053036263713,0.028520244295188086,0.0201789547923442,0.023411171800244632,0.07643870545459695,0.020420454716703413,0.06343328305432522
0.2585769,0.05150802100712192,0.011714818230412647,0.028426612208866015,0.020166556438466304,0.023332904088607092,0.0762861113320743,0.020587115209522895,0.06404990815531317
0.2590962,0.05150058504698147,0.011829671141250043,0.028335957791141418,0.02015450179939929,0.023258708119166693,0.07613564605313909,0.0207557799212742,0.06466902343308238
0.2596154,0.051495288715672806,0.011945606219209436,0.028248304379287187,0.020142779132404667,0.023188555584894396,0.07598730969089033,0.02092644451737782,0.06529052192279691
0.2601346,0.05149215477397356,0.012062617679349658,0.028163674541685363,0.02013137678839392,0.023122417426807304,0.07584110156845733,0.021099104193821043,0.06591429490670729
0.2606538,0.051491205065958036,0.012180699501348598,0.028082090076262906,0.020120283216095908,0.023060263847376195,0.07569702026570094,0.021273753675351302,0.0665402319346343
0.2611731,0.05149246050947017,0.012299845429572527,0.028003572009198088,0.02010948696611444,0.023002064323995926,0.07555506362594955,0.021450387213785393,0.06716822084534929
0.2616923,0.05149594108685597,0.012420048973220963,0.027928140593893452,0.020098976694876123,0.022947787622513302,0.07541522876276616,0.021628998586436396,0.06779814778885213
0.2622115,0.05150166583596091,0.012541303406546994,0.027855815310211113,0.02008874116846847,0.022897401810807204,0.07527751206674396,0.02180958109465995,0.06842989724954764
0.2627308,0.05150965284139795,0.012663601769152962,0.027786614863966184,0.020078769266368424,0.02285087427241601,0.07514190921232963,0.02199212756252155,0.06906335207032072
0.26325,0.05151991922609168,0.012786936866361289,0.02772055718667404,0.020069049985061344,0.022808171720207448,0.07500841516467484,0.022176630335586166,0.06969839347751
0.2637692,0.05153248114310365,0.01291130126966026,0.027657659435547113,0.02005957244155066,0.022769260210085827,0.07487702418651826,0.022363081279831595,0.07033490110677955
0.2642885,0.051547353767743935,0.013036687317224505,0.02759793799373671,0.020050325876758455,0.02273410515473166,0.0747477298451016,0.022551471780686654,0.07097275302988781
0.2648077,0.05156455128997352,0.01316308711450982,0.027541408470815362,0.020041299658817312,0.022702671337368432,0.07462052501912424,0.022741792742195333,0.07161182578235274
0.2653269,0.051584086907102186,0.013290492534921938,0.02748808570349488,0.02003248328625372,0.02267492292555135,0.07449540190574169,0.022934034586307897,0.07225199439201173
0.2658462,0.051605972816786826,0.013418895220558768,0.02743798375657524,0.02002386639106355,0.022650823484972837,0.07437235202761322,0.02312818725229997,0.0728931324084747
0.2663654,0.05163022021033518,0.0135482865830255,0.027391115924119358,0.020015438741680082,0.022630335993279706,0.07425136624000386,0.023324240196320577,0.07353511193346804
0.2668846,0.05165683926632065,0.013678657804321937,0.027347494730848874,0.020007190245835065,0.02261342285389718,0.07413243473794613,0.02352218239106997,0.07417780365206658
0.2674038,0.051685839144514266,0.013809999837801287,0.027307131933756074,0.01999911095331352,0.02260004590985529,0.07401554706346591,0.023722002325608185,0.0748210768648104
0.2679231,0.05171722798014007,0.013942303409199684,0.02727003852392727,0.01999119105860281,0.02259016645761355,0.07390069211287725,0.02392368800529528,0.07546479952070255
0.2684423,0.051751012878460526,0.01407555901773557,0.02723622472857324,0.019983420903436754,0.02258374526088003,0.0737878581441504,0.024127226951864367,0.07610883825108336
0.2689615,0.05178719990969869,0.014209756937278061,0.0272057000132627,0.01997579097923549,0.022580742564421514,0.07367703278435717,0.024332606203628655,0.07675305840437675
0.2694808,0.05182579410430397,0.014344887217583372,0.02717847308435515,0.01996829192944197,0.0225811181078615,0.0735682030371971,0.024539812315823875,0.07739732408170294
0.27,0.0518667994485679,0.014480939685598326,0.027154551891629675,0.019960914551756043,0.022584831139463284,0.07346135529060767,0.02474883136108762,0.07804149817335203
0.2705192,0.051910218880596375,0.014617903946829963,0.027133943631106563,0.019953649800267235,0.022591840429895357,0.07335647532446112,0.02495964893007723,0.07868544239611251
0.2710385,0.051956054286644154,0.014755769386780223,0.027116654748058553,0.01994648878748743,0.022602104285976737,0.07325354831835068,0.02517225013222777,0.0793290173314479
0.2715577,0.05200430649781742,0.014894525172444703,0.027102690940208587,0.019939422786284775,0.022615580564399853,0.07315255885946771,0.025386619596651557,0.0799720824645142
0.2720769,0.05205497528714932,0.015034160253874431,0.027092057161110704,0.019932443231720196,0.022632226685428886,0.07305349095057169,0.025602741473180677,0.08061449622401043
0.2725962,0.052108059367053455,0.015174663365799562,0.027084757623710785,0.019925541722787956,0.02265199964657141,0.07295632801805452,0.025820599433553637,0.08125611602285354
0.2731154,0.052163556387159665,0.01531602302931382,0.027080795804083818,0.01991871002406161,0.022674856036221352,0.07286105292010052,0.026040176672747196,0.08189679829966878
0.2736346,0.052221462932536294,0.015458227553618501,0.027080174445344374,0.019911940067246704,0.022700752047271348,0.07276764795494328,0.026261455910454173,0.08253639856108536
0.2741538,0.05228177452230259,0.015601265037824724,0.027082895561727223,0.01990522395264137,0.022729643490692533,0.07267609486922015,0.026484419392708004,0.08317477142482729
0.2746731,0.0523444856086348,0.01574512337281248,0.027088960442835323,0.019898553950505934,0.022761485809080093,0.0725863748664252,0.026709048893654577,0.08381177066358839
0.2751923,0.05240958957616889,0.01588979024314507,0.02709836965805246,0.01989192250234243,0.022796234090162695,0.07249846861546097,0.026935325717471797,0.08444724924967946
0.2757115,0.05247707874180251,0.01603525312903749,0.027111123061118236,0.019885322222084997,0.022833843080274287,0.0724123562592888,0.027163230700437156,0.08508105940043584
0.2762308,0.05254694435489826,0.016181499308377284,0.027127219794863176,0.01987874589720196,0.022874267197786454,0.0723280174236772,0.027392744213143274,0.08571305262437211
0.27675,0.052619176597890074,0.01632851585879665,0.027146658296102036,0.019872186489710512,0.02291746054649974,0.07224543122604744,0.027623846162861253,0.08634307976807058
0.2772692,0.05269376458729387,0.01647628965979441,0.027169436300683438,0.019865637137104906,0.022963376928992044,0.07216457628441537,0.027856515996051396,0.08697099106378907
0.2777885,0.05277069637512324,0.01662480739490677,0.027195550848694235,0.019859091153199147,0.02301196985992222,0.07208543072642844,0.028090732701020808,0.08759663617777308
0.2783077,0.05284995895071074,0.016774055553925606,0.027224998289816917,0.019852542028885145,0.023063192579286663,0.07200797219849732,0.02832647481072704,0.08821986425925689
0.2788269,0.05293153824293476,0.016924020435163247,0.02725777428883864,0.01984598343280739,0.02311699806562676,0.07193217787502179,0.0285637204057269,0.0888405239901371
0.2793462,0.053015419122851765,0.01707468814776243,0.0272938738313103,0.019839409211955192,0.023173339049184897,0.07185802446771081,0.028802447117269443,0.08945846363530197
0.2798654,0.05310158540673342,0.01722604461405021,0.027333291229354073,0.019832813392173437,0.023232168025006567,0.0717854882349966,0.029042632130531845,0.09007353109359846
0.2803846,0.05319001985950782,0.017378075571934392,0.027376020127617643,0.019826190178592936,0.023293437265986282,0.07171454499154332,0.02928425218799694,0.09068557394941909
0.2809038,0.053280704198603854,0.01753076657734102,0.02742205350937337,0.019819533955981343,0.023357098835854885,0.0716451701178499,0.02952728359297096,0.09129443952488951
0.2814231,0.053373619098197385,0.017684103006691314,0.0274713837027604,0.019812839289015696,0.02342310460210594,0.07157733856994715,0.02977170221323996,0.09189997493263745
0.2819423,0.053468744193857554,0.017838070059416417,0.027524002387167765,0.019806100922477584,0.023491406248858964,0.07151102488918878,0.030017483484863255,0.09250202712912274
0.2824615,0.053566058087591524,0.01799265276050819,0.02757990059975625,0.019799313781372025,0.023561955289657353,0.07144620321213548,0.030264602416101873,0.09310044296850777
0.2829808,0.05366553835328524,0.018147835963104184,0.02763906874211682,0.019792472970971114,0.023634703080199014,0.07138284728053092,0.030513033591480155,0.09369506925704678
0.2835,0.053767161542537516,0.018303604351104914,0.027701496587063126,0.019785573776783548,0.02370960083099775,0.07132093045136846,0.030762751175978122,0.09428575280797191
0.2840192,0.05387090319088446,0.018459942441821378,0.027767173285555308,0.019778611664451107,0.023786599619973668,0.07126042570704688,0.03101372891935227,0.09487234049685318
0.2845385,0.05397673782441106,0.018616834588650905,0.027836087373752247,0.019771582279573235,0.02386565040497113,0.07120130566561358,0.031265940160582144,0.0954546793174087
0.2850577,0.05408463896674649,0.0187742649837794,0.027908226780189196,0.01976448144746083,0.02394670403620309,0.07114354259109296,0.03151935783243999,0.09603261643774091
0.2855769,0.05419457914643957,0.018932217660908194,0.02798357883307752,0.0197573051728204,0.02402971126862066,0.071087108403898,0.03177395446618072,0.09660599925697447
0.2860962,0.05430652990471083,0.019090676498003847,0.02806213026772328,0.01975004963936979,0.024114622774207294,0.07103197469132279,0.03202970219634964,0.09717467546226992
0.2866154,0.05442046180357811,0.019249625220069448,0.028143867234061388,0.01974271120938661,0.024201389154196798,0.07097811271811377,0.032286572765705526,0.09773849308618743
0.2871346,0.05453634443435214,0.019409047401936084,0.028228775304301942,0.01973528642319057,0.024289960951214728,0.07092549343711795,0.03254453753025684,0.09829730056437375
0.2876538,0.05465414642649957,0.019568926471073392,0.02831683948068526,0.01972777199856095,0.024380288661342828,0.07087408750000643,0.032803567464408996,0.09885094679354522
0.2881731,0.05477383545687047,0.01972924571041816,0.028408044203341993,0.01972016483009036,0.024472322746106303,0.07082386526807175,0.033063633166220796,0.09939928118973904
0.2886923,0.0548953782592879,0.019889988261220015,0.02850237335825455,0.019712461988475975,0.024566013644383867,0.07077479682309729,0.03332470486276795,0.09994215374680447
0.2892115,0.0550187406344969,0.02005113712590326,0.028599810285315667,0.01970466071974935,0.02466131178424063,0.070726851978297,0.0335867524156121,0.10047941509510604
0.2897308,0.055143887460470525,0.02021267517094387,0.028700337786479995,0.019696758444445787,0.024758167594683904,0.07068000028932343,0.03384974532637363,0.10101091656040927
0.29025,0.05527078270306988,0.020374585129760574,0.028803938134004215,0.019688752756714296,0.024856531517341962,0.07063421106534194,0.03411365274240714,0.10153651022292058
0.2907692,0.055399389427055336,0.020536849605618992,0.0289105930787711,0.01968064142336893,0.02495635401806569,0.07058945338016895,0.034378443462578366,0.10205604897645142
0.2912885,0.055529669807445496,0.020699451074547806,0.029020283858692715,0.019672422382882294,0.025057585598452878,0.07054569608347169,0.034644085943141785,0.10256938658767693
0.2918077,0.055661585141220236,0.020862371888266097,0.029132991207187812,0.01966409374432189,0.025160176807294623,0.07050290781202628,0.034910548303718085,0.10307637775545883
0.2923269,0.05579509585936409,0.02102559427712103,0.029248695361728298,0.019655653786229747,0.025264078251943354,0.070461057001031,0.03517779833337102,0.10357687817020143
0.2928462,0.05593016153924609,0.021189100353035315,0.02936737607244961,0.019647100955445817,0.0253692406096015,0.0704201118954714,0.03544580349678331,0.10407074457320976
0.2933654,0.05606674091733188,0.02135287211246396,0.029489012610819574,0.019638433865875292,0.025475614638529875,0.07038004056153374,0.03571453094053143,0.10455783481601734
0.2938846,0.056204791902223564,0.021516891439360003,0.029613583778360306,0.01962965129720011,0.025583151189174674,0.07034081089806318,0.035983947499459226,0.1050380079196513
0.2944038,0.05634427158802261,0.021681140108149175,0.029741067915417613,0.01962075219353475,0.02569180121521171,0.07030239064806308,0.03625401970314971,0.10551112413380166
0.2949231,0.05648513626801044,0.02184559978671349,0.02987144290997238,0.019611735662026508,0.025801515784506582,0.07026474741023211,0.03652471378249471,0.10597704499586139
0.2954423,0.05662734144864111,0.022010252039383935,0.030004686206488385,0.01960260097140052,0.025912246089989245,0.07022784865053538,0.03679599567636134,0.10643563338980318
0.2959615,0.056770841863839835,0.022175078329942567,0.030140774814791042,0.019593347550449856,0.026023943460441366,0.07019166171380609,0.03706783103835444,0.10688675360485869
0.2964808,0.05691559148960096,0.022340060024634213,0.030279685318971735,0.019583974986471294,0.02613655937119479,0.07015615383537353,0.037340185243673794,0.1073302713939659
0.297,0.05706154355887821,0.022505178395187973,0.030421393886312285,0.019574483023647515,0.026250045454739475,0.07012129215271312,0.037613023396065336,0.10776605403194967
0.2975192,0.05720865057676009,0.022670414621848604,0.03056587627622418,0.01956487156137672,0.026364353511239162,0.07008704371711325,0.037886310334865426,0.10819397037340059
0.2980385,0.057356864335922596,0.022835749796417875,0.030713107849196994,0.01955514065255094,0.02647943551895329,0.07005337550535383,0.038160010642137386,0.10861389091021731
0.2985577,0.05750613593235138,0.023001164925305975,0.030863063575750325,0.019545290501784447,0.02659524364456377,0.07002025443139104,0.03843408864989943,0.10902568782877668
0.2990769,0.057656415781325326,0.02316664093259297,0.031015718045383677,0.019535321463593956,0.02671173025340517,0.06998764735804222,0.03870850844744311,0.10942923506669673
0.2995962,0.05780765363365304,0.023332158663100514,0.031171045475518497,0.01952523404053241,0.026828847919596888,0.06995552110866558,0.03898323388874116,0.10982440836915634
0.3001154,0.057959798592153736,0.023497698885473962,0.03132901972042676,0.019515028881278297,0.026946549436075835,0.06992384247882936,0.03925822859994348,0.11021108534473627
0.3006346,0.05811279912837436,0.0236632422952752,0.031489614280140354,0.019504706778682504,0.02706478782452817,0.06989257824796487,0.039533455986960064,0.11058914552074506
0.3011538,0.05826660309953494,0.02382876951808671,0.03165280230933566,0.019494268667774633,0.027183516345218612,0.06986169519099827,0.03980887924312959,0.11095847039799352
0.3016731,0.058421157765694405,0.023994261112627445,0.03181855662618745,0.01948371562373071,0.0273026885067159,0.06983116008995559,0.04008446135697215,0.11131894350498063
0.3021923,0.058576409807129824,0.024159697573881294,0.03198684972118614,0.019473048859804158,0.02742225807551314,0.06980093974553553,0.040360165120024646,0.11167045045145374
0.3027115,0.05873230534192224,0.024325059336239054,0.032157653765912377,0.01946226972522181,0.027542179085541574,0.06977100098864586,0.040635953134757256,0.11201287898130514
0.3032308,0.05888878994374232,0.024490326776654962,0.03233094062176265,0.01945137970304691,0.02766240584757653,0.06974131069189882,0.0409117878225693,0.11234611902476685
0.30375,0.05904580865982935,0.02465548021781905,0.03250668184862007,0.019440380408010962,0.02778289295853446,0.06971183578106238,0.04118763143186272,0.11267006274986449
0.3042692,0.059203306029156764,0.024820499931346572,0.032684848713464026,0.019429273584316495,0.027903595310660487,0.06968254324646392,0.041463446046191295,0.11298460461309132
0.3047885,0.05936122610077729,0.024985366140985957,0.03286541219891289,0.019418061103412862,0.028024468100606655,0.06965340015434308,0.04173919359248339,0.11328964140926184
0.3053077,0.05951951245234067,0.025150059025846782,0.03304834301169407,0.019406744961747317,0.02814546683840205,0.06962437365815037,0.042014835849335935,0.11358507232050469
0.3058269,0.05967810820877689,0.025314558723649357,0.033233611591035946,0.019395327278493687,0.028266547356316816,0.0695954310097878,0.04229033445537694,0.11387079896435333
0.3063462,0.05983695606113824,0.02547884533399739,0.03342118811697652,0.019383810293261083,0.028387665817622518,0.06956653957078726,0.04256565091769356,0.11414672544089303
0.3068654,0.059995998285593675,0.025642898921675178,0.03361104251858423,0.019372196363785107,0.028508778725251538,0.06953766682342218,0.042840746620322584,0.11441275837892127
0.3073846,0.06015517676256966,0.025806699519970614,0.033803144482086524,0.019360487963604033,0.028629842930358276,0.06950878038174695,0.043115582832800065,0.11466880698107808
0.3079038,0.06031443299603155,0.025970227134025116,0.03399746345890242,0.019348687679722417,0.028750815640784622,0.06947984800255891,0.043390120718766655,0.11491478306790245
0.3084231,0.06047370813290025,0.026133461744211564,0.034193968673575346,0.019336798210264537,0.028871654429432167,0.06945083759627667,0.043664321344625716,0.11515060112077023
0.3089423,0.06063294298259872,0.026296383309541167,0.03439262913160277,0.019324822362119933,0.02899231724254335,0.06942171723772841,0.04393814568825139,0.11537617832366746
0.3094615,0.06079207803672319,0.026458971771100195,0.03459341362715959,0.01931276304858332,0.02911276240789369,0.06939245517684427,0.04421155464774417,0.11559143460375315
0.3099808,0.06095105348883325,0.026621207055517612,0.034796290750711965,0.019300623286990903,0.02923294864289717,0.0693630198492467,0.04448450905023169,0.115796292670664
0.3105,0.06110980925435509,0.026783069078464557,0.03500122889651837,0.019288406196355034,0.029352835062626776,0.06933337988673327,0.044756969660712756,0.11599067805451317
0.3110192,0.06126828499059172,0.02694453774818666,0.03520819627001462,0.019276114994999066,0.02947238118775216,0.06930350412764642,0.0450288971909427,0.1161745191425339
0.3115385,0.06142642011683387,0.02710559296907029,0.03541716089507949,0.019263752998193953,0.029591546952396325,0.06927336162712437,0.04530025230835873,0.11634774721431851
0.3120577,0.06158415383456525,0.027266214645243817,0.03562809062117763,0.01925132361579821,0.0297102927119132,0.06924292166722734,0.045570995645044014,0.11651029647560264
0.3125769,0.06174142514775614,0.02742638268421494,0.03584095313037659,0.019238830349902543,0.029828579250587663,0.06921215376693232,0.04584108780672957,0.11666210409054502
0.3130962,0.06189817288323936,0.027586077000545328,0.036055715944235726,0.019226276792480547,0.029946367789259482,0.06918102769198968,0.04611048938183289,0.11680311021245385
0.3136154,0.06205433571116318,0.027745277519563637,0.036272346430565046,0.019213666623046587,0.03006361999287251,0.06914951346463391,0.04637916095053264,0.11693325801291447
0.3141346,0.06220985216551616,0.027903964181118082,0.03649081181005338,0.01920100360632209,0.030180297977950205,0.0691175813731409,0.04664706309387852,0.11705249370927859
0.3146538,0.06236466066471902,0.028062116943369613,0.03671107916276583,0.019188291589911265,0.03029636431999829,0.06908520198122385,0.04691415640293599,0.11716076659048302
0.3151731,0.06251869953227944,0.02821971578662677,0.036933115434511485,0.01917553450198734,0.03041178206083544,0.06905234613726012,0.04718040148796561,0.11725802904117548
0.3156923,0.06267190701750565,0.028376740717223126,0.03715688744308266,0.019162736348990256,0.030526514715852604,0.06901898498334247,0.04744575898763685,0.11734423656413231
0.3162115,0.06282422131627498,0.0285331717714382,0.037382361884367936,0.019149901213336783,0.03064052628120152,0.06898508996414913,0.04771018957827688,0.11741934780096012
0.3167308,0.06297558059185349,0.028688989019462423,0.03760950533834157,0.019137033251144044,0.03075378124091282,0.06895063283562831,0.04797365398315511,0.11748332455107724
0.31725,0.06312592299576258,0.02884417256940671,0.037838284274932306,0.019124136689967333,0.030866244573943928,0.06891558567349426,0.04823611298180502,0.11753613178897515
0.3177692,0.0632751866886884,0.02899870257135694,0.03806866505977498,0.019111215826553188,0.030977881761156793,0.0688799208815333,0.04849752741938493,0.11757773767976155
0.3182885,0.06342330986142905,0.02915255922147338,0.03830061395984851,0.01909827502460859,0.031088658792225124,0.06884361119971844,0.04875785821607995,0.11760811359298788
0.3188077,0.06357023075587503,0.029305722766134978,0.038534097149003764,0.01908531871258715,0.031198542172470752,0.06880662971213163,0.049017066376546674,0.1176272341147644
0.3193269,0.06371588768601735,0.029458173506128192,0.038769080713384606,0.019072351381493054,0.03130749892962836,0.06876894985469272,0.049275112999402564,0.11763507705816549
0.3198462,0.06386021905897823,0.029609891800879962,0.03900553065674543,0.019059377582703527,0.03141549662053769,0.0687305454226935,0.049531959286761365,0.11763162347192813
0.3203654,0.0640031633960588,0.02976085807273419,0.0392434129056683,0.019046401925810398,0.03152250333776195,0.0686913905781353,0.0497875665538159,0.1176168576474462
0.3208846,0.064144659353798,0.029911052811271106,0.0394826933146825,0.019033429076481312,0.03162848771613114,0.06865145985686827,0.05004189623846915,0.11759076712406398
0.3214038,0.06428464574503669,0.030060456577668697,0.03972333767128937,0.019020463754340994,0.031733418939208495,0.06861072817553125,0.0502949099110142,0.11755334269267324
0.3219231,0.06442306155998026,0.030209050009105558,0.039965311700894866,0.019007510730872826,0.03183726674567829,0.06856917083829232,0.05054656928386365,0.11750457839761945
0.3224423,0.06455984598725285,0.030356813823204133,0.04020858107165245,0.018994574827340877,0.031940001435652884,0.06852676354339132,0.0507968362213286,0.11744447153692408
0.3229615,0.06469493843493546,0.030503728822513388,0.040453111399218866,0.018981660912732394,0.0320415938768969,0.06848348238948675,0.05104567274944755,0.11737302266083166
0.3234808,0.06482827855158034,0.030649775899029823,0.04069886825142586,0.018968773901720727,0.03214201551096615,0.06843930388181052,0.05129304106586519,0.11729023556869139
0.324,0.06495980624719346,0.030794936038755515,0.040945817152870684,0.01895591875264856,0.032241238359258635,0.06839420493813468,0.05153890354976107,0.11719611730418565
0.3245192,0.06508946171417687,0.030939190326291752,0.041193923589429145,0.018943100465531257,0.032339235028975066,0.06834816289455421,0.05178322277182777,0.11709067814891921
0.3250385,0.06521718544822327,0.031082519949466567,0.04144315301269497,0.018930324080080187,0.032435978718985875,0.06830115551109037,0.052025961504298,0.11697393161438478
0.3255577,0.06534291826915482,0.031224906203994197,0.041693470844349614,0.018917594673745694,0.0325314432256017,0.06825316097711848,0.052267082731019605,0.11684589443232213
0.3260769,0.06546660134169952,0.031366330498164376,0.04194484248046695,0.01890491735977945,0.03262560294824431,0.06820415791662444,0.05250654965757729,0.11670658654348973
0.3265962,0.06558817619619868,0.03150677435755895,0.0421972332957572,0.018892297285315843,0.032718432895014866,0.06815412539329407,0.05274432572145959,0.11655603108486949
0.3271154,0.06570758474923961,0.03164621942979329,0.04245060864775449,0.018879739629472085,0.03280990868815635,0.06810304291543905,0.05298037460226919,0.11639425437532622
0.3276346,0.0658247693242079,0.031784647489279824,0.04270493388095219,0.018867249601466785,0.03290000656940737,0.0680508904407634,0.05321466023197433,0.11622128589974523
0.3281538,0.06593967267175435,0.0319220404420109,0.04296017433089001,0.018854832438756745,0.032988703405244485,0.06799764838097407,0.053447146805198825,0.11603715829167233
0.3286731,0.06605223799017126,0.032058380330358155,0.043216295328196756,0.01884249340519183,0.03307597669201009,0.06794329760623853,0.053677798789547704,0.11584190731448239
0.3291923,0.0661624089456725,0.03219364933788571,0.04347326220259229,0.018830237789187843,0.03316180456092302,0.06788781944949229,0.05390658093596522,0.11563557184110332
0.3297115,0.06627012969257201,0.03232782979417453,0.043731040286852214,0.018818070901917387,0.033246165782968684,0.06783119571059812,0.054133458289121486,0.11541819383232346
0.3302308,0.06637534489335516,0.03246090417965548,0.043989594920738534,0.018805998075518797,0.033329039773665435,0.06777340866035891,0.054358396197823684,0.11518981831371217
0.33075,0.06647799973863769,0.032592855130448725,0.04424889145489947,0.01879402466132332,0.033410406597704057,0.06771444104438532,0.054581360325447185,0.11495049335118368
0.3312692,0.06657803996700691,0.03272366544320723,0.04450889525474136,0.01878215602810076,0.033490246973457,0.06765427608681886,0.054802316660381566,0.11470027002523589
0.3317885,0.06667541188474015,0.03285331807996235,0.04476957170427554,0.018770397560323854,0.033568542277354146,0.0675928974939111,0.05502123152648598,0.114439202403896
0.3323077,0.06677006238539518,0.03298179617296962,0.04503088620994306,0.018758754656451646,0.03364527454812201,0.06753028945745912,0.05523807159354798,0.11416734751440648
0.3328269,0.06686193896926772,0.033109083029552816,0.045292804204419924,0.01874723272723218,0.033720426490883026,0.06746643665809755,0.05545280388773978,0.11388476531368458
0.3333462,0.06695098976271022,0.03323516213694467,0.045555291150405325,0.018735837194024798,0.03379398148111203,0.06740132426844747,0.05566539580206499,0.11359151865759
0.3338654,0.06703716353730675,0.03336001716712249,0.04581831254439518,0.018724573487142262,0.033865923568446456,0.06733493795612193,0.0558758151067894,0.11328767326903486
0.3343846,0.0671204097288977,0.03348363198163682,0.04608183392044307,0.018713447044212832,0.033936237480346784,0.06726726388658781,0.05608402995984813,0.11297329770497097
0.3349038,0.06720067845644781,0.03360599063643127,0.0463458208539102,0.018702463308562345,0.034004908625603646,0.0671982887258833,0.05629000891722193,0.11264846332228909
0.3354231,0.06727792054075064,0.033727077386651406,0.04661023896520574,0.018691627727616174,0.03407192309768749,0.06712799964318972,0.056493720943274234,0.11231324424266495
0.3359423,0.06735208752296193,0.03384687669144041,0.046875053923518574,0.01868094575132089,0.03413726767793669,0.06705638431325653,0.05669513542104056,0.11196771731638655
0.3364615,0.06742313168295372,0.03396537321871899,0.047140231450541165,0.018670422830585235,0.034200929838579794,0.0669834309186785,0.05689422216246123,0.11161196208519632
0.3369808,0.06749100605748108,0.034082551849946595,0.04740573732418577,0.018660064415740082,0.03426289774558725,0.06690912815202324,0.05709095141854816,0.11124606074418189
0.3375,0.06755566445815252,0.034198397684861194,0.04767153738229307,0.018649875955016864,0.034323160261348226,0.06683346521780757,0.0572852938894759,0.11087009810274778
0.3380192,0.06761706148919512,0.034312896046194204,0.04793759752633317,0.018639862893044038,0.03438170694716793,0.06675643183432085,0.05747722073458702,0.11048416154469964
0.3385385,0.06767515256500523,0.03442603248435736,0.0482038837250991,0.018630030669361065,0.03443852806558133,0.06667801823529289,0.05766670358230138,0.1100883409874722
0.3390577,0.06772989392747508,0.03453779278209796,0.04847036201839288,0.018620384716949472,0.03449361458247919,0.0665982151714042,0.05785371453991855,0.10968272884053144
0.3395769,0.06778124266308584,0.0346481629591187,0.04873699852070476,0.018610930460780623,0.03454695816904285,0.06651701391163638,0.05803822620330279,0.10926741996298081
0.3400962,0.06782915671975652,0.034757129276658257,0.04900375942488646,0.018601673316379803,0.034598551203484,0.06643440624445975,0.05822021166643946,0.10884251162040101
0.3406154,0.06787359492343904,0.034864678242028616,0.04927061100581924,0.018592618688406375,0.0346483867725859,0.06635038447885627,0.058399644530852245,0.10840810344095224
0.3411346,0.06791451699444857,0.03497079661310491,0.04953751962407793,0.018583771969249742,0.034696458673042614,0.06626494144517514,0.05857649891487063,0.10796429737076758
0.3416538,0.06795188356351839,0.035075471402763556,0.04980445172959197,0.018575138537640996,0.034742761412592485,0.06617807049581863,0.05875074946273809,0.10751119762866586
0.3421731,0.06798565618756837,0.03517868988326416,0.05007137386530449,0.01856672375728014,0.03478729021094276,0.06608976550575531,0.0589223713535525,0.10704891066021195
0.3426923,0.06801579736517614,0.03528043959057078,0.05033825267083041,0.018558532975478843,0.03483004100048183,0.06600002087285763,0.059091340310030986,0.10657754509115247
0.3432115,0.06804227055173956,0.0353807083286075,0.05060505488611424,0.018550571521818673,0.03487101042677586,0.06590883151806072,0.05925763260709208,0.10609721168025417
0.3437308,0.06806504017431918,0.03547948417344356,0.050871747355088114,0.018542844706824848,0.034910195848846595,0.06581619288533928,0.05942122508024828,0.10560802327157268
0.34425,0.06808407164614921,0.03557675547740253,0.05113829702933028,0.018535357820655417,0.034947595339227186,0.06572210094149926,0.05958209513380244,0.10511009474617886
0.3447692,0.06809933138080469,0.035672510873090174,0.05140467097172393,0.018528116131805824,0.03498320768379301,0.06562655217578114,0.059740220748841534,0.10460354297337064
0.3452885,0.06811078680601267,0.0357667392773351,0.05167083636011615,0.0185211248858287,0.035017032381364804,0.06552954359927217,0.05989558049102135,0.10408848676139733
0.3458077,0.06811840637709476,0.03585942989503635,0.0519367604909764,0.01851438930406864,0.0350490696430815,0.06543107274412498,0.060048153518135916,0.1035650468077242
0.3463269,0.068122159590029,0.035950572222911724,0.052202410783053675,0.018507914582411567,0.03507932039154056,0.06533113766258125,0.06019791958746495,0.10303334564886563
0.3468462,0.06812201699411842,0.03604015605314044,0.052467754781031516,0.018501705890048185,0.03510778625970391,0.0652297369257986,0.06034485906289294,0.10249350760981482
0.3473654,0.06811795020425475,0.03612817147689369,0.05273276015917964,0.018495768368250943,0.03513446958956786,0.06512686962247989,0.06048895292179296,0.10194565875309848
0.3478846,0.06810993191276568,0.03621460888774668,0.05299739472500087,0.01849010712916379,0.03515937343059565,0.06502253535730428,0.06063018276166836,0.10138992682748485
0.3484038,0.0680979359008351,0.036299458984965526,0.053261626422872126,0.018484727254603903,0.03518250153791164,0.06491673424915956,0.06076853080654581,0.10082644121637366
0.3489231,0.06808193704948665,0.03638271277666286,0.05352542333767777,0.01847963379487471,0.03520385837025636,0.06480946692917587,0.06090397991311284,0.10025533288589657
0.3494423,0.0680619113501217,0.03646436158281581,0.053788753698433674,0.01847483176758929,0.03522344908770191,0.06470073453856069,0.06103651357659393,0.0996767343327567
0.3499615,0.06803783591460454,0.03654439703814055,0.05405158588189996,0.018470326156503496,0.03524127954912716,0.06459053872623545,0.06116611593635938,0.09909077953183597
0.3504808,0.06800968898488753,0.036622811094817534,0.0543138884161802,0.018466121910357954,0.03525735630945221,0.06447888164627398,0.0612927717812617,0.09849760388359798
0.351,0.06797744994217057,0.03669959602506193,0.0545756299843044,0.018462223941728327,0.035271686616631645,0.06436576595514364,0.061416466554694744,0.09789734416131496
0.3515192,0.06794109931558957,0.03677474442353413,0.054836779427793095,0.018458637125883175,0.03528427840840584,0.06425119480875069,0.061537186359371304,0.09729013845814666
0.3520385,0.06790061879042913,0.03684824920958524,0.05509730575019944,0.018455366299648925,0.03529514030880989,0.06413517185929293,0.06165491796181495,0.09667612613409866
0.3525577,0.06785599121585449,0.036920103629333095,0.05535717812062647,0.018452416260281507,0.03530428162443969,0.06401770125192366,0.061769648796562354,0.09605544776288785
0.3530769,0.06780720061215799,0.036990301257564626,0.055616365877216606,0.018449791764344387,0.03531171234047475,0.06389878762123213,0.06188136697007202,0.09542824507874285
0.3535962,0.06775423217751513,0.03705883599946077,0.055874838530611,0.018447497526592856,0.0353174431164575,0.06377843608754595,0.06199006126433627,0.09479466092316699
0.3541154,0.06769707229424517,0.03712570209214051,0.05613256576737637,0.018445538218864733,0.03532148528182893,0.0636566522530613,0.06209572114019331,0.09415483919169115
0.3546346,0.06763570853457146,0.03719089410602098,0.05638951745339787,0.018443918468977607,0.035323850831220555,0.0635334421978069,0.06219833674033732,0.09350892478064411
0.3551538,0.06757012966587717,0.0372544069459907,0.05664566363723667,0.018442642859633044,0.03532455241950338,0.06340881247544693,0.06229789889202439,0.09285706353396683
0.3556731,0.06750032565545257,0.037316235852393256,0.0569009745534515,0.018441715927328073,0.03532360335659478,0.06328277010892841,0.06239439910947269,0.09219940219009742
0.3561923,0.06742628767473077,0.037376376401818616,0.05715542062588361,0.018441142161274387,0.035321017602024773,0.06315532258597809,0.06248782959595468,0.09153608832895285
0.3567115,0.06734800810300949,0.03743482450769937,0.057408972470905165,0.018440926002325646,0.0353168097592634,0.06302647785445363,0.06257818324557937,0.09086727031903256
