Time,Rectus Femoris right,Rectus Femoris left,Hamstrings right,Hamstrings left,TibilaisÂ Anterior right,TibilaisÂ Anterior left,Gastrocnemius right,Gastrocnemius left
0.0,0.0012099394866414512,0.0009308350339680107,0.008104176268625729,-0.0021500169284086375,-0.003087104884576464,0.0036552060704282516,-0.02367246096265778,0.0025940960525186398
0.0004655,0.001235855627784437,0.0009691876270397729,0.008178180364402262,-0.0020641482874615715,-0.0029248778872070108,0.003888673513061675,-0.023085158998472743,0.0026684450463329307
0.000931,0.0012616772560774506,0.0010079037524188682,0.008251552298065774,-0.0019781687722235995,-0.002763347877576364,0.004123702355652462,-0.02249898548706553,0.002743162912178298
0.0013966,0.0012874000048611778,0.0010469852674403382,0.008324277444250194,-0.001892087632453109,-0.0026025372620623907,0.00436027879406931,-0.021914017223838397,0.002818246399296146
0.0018621,0.0013130195255897223,0.001086434044742635,0.008396341343347023,-0.0018059141267207078,-0.0024424682117168417,0.004598388782987247,-0.021330330662769688,0.002893692264025422
0.0023276,0.0013385314893903594,0.0011262519724519159,0.0084677297081411,-0.0017196575197745733,-0.0022831626534358176,0.004838018038961876,-0.02074800189276991,0.0029694972715951216
0.0027931,0.0013639315886212005,0.0011664409543474439,0.008538428430396873,-0.0016333270799108756,-0.002124642261208362,0.005079152043546989,-0.02016710661426618,0.0030456581979088713
0.0032586,0.0013892155384257368,0.0012070029100070515,0.00860842358738811,-0.0015469320763506222,-0.0019669284474485758,0.005321776046452632,-0.019587720116031784,0.0031221718313198805
0.0037241,0.0014143790782832285,0.0012479397749316325,0.008677701448364281,-0.001460481776624235,-0.001810042354416558,0.005565875068740778,-0.01900991725227728,0.00319903497439455
0.0041897,0.0014394179735539082,0.001289253500647638,0.008746248480947202,-0.0013739854439651356,-0.0016540048457333984,0.005811433906055927,-0.018433772420019263,0.003276244445663027
0.0046552,0.001464328017017967,0.0013309460547865728,0.008814051357451997,-0.00128745233471358,-0.0014988364979953536,0.006058437131888052,-0.017859359536742375,0.003353797081355
0.0051207,0.0014891050304072847,0.001373019421140517,0.008881096961126803,-0.0012008916957319449,-0.0013445575924922628,0.0063068691008654285,-0.01728675201836961,0.0034316897371190484
0.0055862,0.0015137448659288694,0.0014154755996927213,0.008947372392306157,-0.0011143127618326472,-0.0011911881070351715,0.0065567139520749645,-0.016716022757555214,0.003509919289723889
0.0060517,0.0015382434077789997,0.0014583166066223546,0.009012864974473341,-0.0010277247532198392,-0.0010387477078980666,0.00680795561240781,-0.016147244102313753,0.003588482638739878
0.0065172,0.0015625965736470683,0.0015015444742825068,0.009077562260227297,-0.0009411368729460022,-0.0008872557418785691,0.007060577799928083,-0.01558048783499821,0.0036673767081991417
0.0069828,0.0015868003162081627,0.0015451612511505845,0.00914145203715005,-0.0008545583043845262,-0.0007367312284823801,0.0073145640272626366,-0.015015825151639047,0.003746598448232729
0.0074483,0.0016108506246034406,0.001589169001750284,0.009204522333570763,-0.00076799820871932,-0.000587192852236222,0.007569897605009885,-0.01445332664165546,0.0038261448366831478
0.0079138,0.0016347435259073792,0.0016335698065443717,0.00926676142422272,-0.0006814657224524325,-0.00043865895513392743,0.007826561645165759,-0.013893062267949069,0.003906012880690665
0.0083793,0.0016584750865809956,0.00167836576179754,0.009328157835789634,-0.0005949699549305948,-0.0002911475292201959,0.008084539064564857,-0.013335101347389392,0.003986199618251725
0.0088448,0.0016820414139101347,0.0017235589794086486,0.009388700352337676,-0.000508519985891506,-0.0001446762093163449,0.008343812588334977,-0.012779512531699662,0.004066702119747832
0.0093103,0.0017054386574279282,0.0017691515867117003,0.009448378020629627,-0.0004221248630306083,7.377341078680912e-07,0.008604364753363191,-0.012226363788750834,0.004147517489443232
0.0097759,0.0017286630103205208,0.0018151457262449485,0.009507180155317532,-0.0003357935995890254,0.00014507740191255222,0.00886617791177171,-0.011675722384270882,0.004228642866949756
0.0102414,0.0017517107108151588,0.0018615435554875683,0.009565096344010229,-0.000249535171963293,0.00028832627311257714,0.009129234234401772,-0.011127654863975638,0.004310075428657164
0.0107069,0.0017745780435497352,0.0019083472465633547,0.009622116452212127,-0.00016335851733747156,0.00043046821154572607,0.00939351571430381,-0.01058222703612653,0.004391812389127407
0.0111724,0.0017972613409228636,0.0019555589859109137,0.009678230628129735,-7.727253133821397e-05,0.0005714874723809261,0.009659004170232136,-0.010039503954519602,0.004473851002451199
0.0116379,0.0018197569844235646,0.002003180973919825,0.009733429307342594,8.71393428665407e-06,0.0007113687084634744,0.009925681250142362,-0.009499549901909462,0.004556188563565304
0.0121034,0.0018420614059396255,0.002051215424532259,0.009787703217335509,9.459207396549556e-05,0.0008500969764942569,0.010193528434689724,-0.008962428373871036,0.004638822409528953
0.012569,0.0018641710890436888,0.0020996645648095657,0.009841043381889208,0.00018035313057563034,0.0009876577430400384,0.010462527040726453,-0.00842820206310148,0.004721749920757824
0.0130345,0.001886082570256122,0.0021485306344633573,0.009893441125326755,0.0002659883976909861,0.001124036890371988,0.010732658224796281,-0.007896932844163932,0.0048049685222139845
0.0135,0.0019077924402837144,0.0021978158853506575,0.009944888076613265,0.0003514892218041186,0.0012592207221296889,0.01100390298662409,-0.007368681758674414,0.004888475684550205
0.0139655,0.0019292973452332501,0.002247522580932696,0.009995376173306618,0.00043684700452209843,0.0013931959688079643,0.011276242172598656,-0.006843509000932686,0.004972268925207042
0.014431,0.0019505939877990071,0.002297652995696949,0.010044897665357003,0.0005220532047357679,0.001525949793063938,0.011549656479246417,-0.0063214739039976495,0.005056345809461054
0.0148966,0.001971679128423255,0.0023482094145420487,0.010093445118753281,0.0006070993407618798,0.0016574697948418089,0.011824126456694034,-0.005802634926207683,0.0051407039514225
0.0153621,0.0019925495864288284,0.002399194132125228,0.010141011419014244,0.0006919769924576333,0.0017877440163128705,0.01209963251211758,-0.005287049638146132,0.005225341014980854
0.0158276,0.0020132022411228643,0.0024506094521720145,0.01018758977452287,0.0007766778033071308,0.0019167609466283317,0.012376154913176082,-0.004774774710052126,0.00531025471469646
0.0162931,0.002033634032870806,0.0025024576867479676,0.010233173719701722,0.000861193482479286,0.002044509526482517,0.012653673791427194,-0.004265865899676749,0.005395442816636605
0.0167586,0.002053841964139784,0.0025547411554923236,0.010277757118027581,0.0009455158068567222,0.0021709791524840557,0.012932169145722754,-0.003760378040584485,0.005480903139154289
0.0172241,0.002073823100510466,0.0026074621848134892,0.010321334164883404,0.0010296366230351974,0.0022961596813326998,0.013211620845582018,-0.0032583650308997685,0.005566633553607959
0.0176897,0.002093574571656498,0.0026606231070463704,0.01036389939024573,0.001113547849293099,0.0024200414337994724,0.013492008634540354,-0.0027598798224982785,0.005652631985020441
0.0181552,0.0021130935722906484,0.0027142262595715627,0.010405447661205774,0.0011972414775305528,0.002542615198507869,0.01377331213347108,-0.0022649744106425155,0.0057388964126754115
0.0186207,0.002132377363076779,0.0027682739838964473,0.010445974184322573,0.0012807095751776886,0.002663872235513897,0.014055510843878122,-0.0017736998240610387,0.005825424870649769
0.0190862,0.002151423271506798,0.0028227686246982842,0.010485474507806743,0.0013639442870716147,0.002783804279682764,0.014338584151157024,-0.0012861061154706374,0.0059122154482805014
0.0195517,0.0021702286927417842,0.0028777125288294556,0.010523944523533673,0.0014469378373016596,0.0029024035438600412,0.01462251132782186,-0.0008022423525405904,0.005999266290564797
0.0200172,0.0021887910904165677,0.0029331080442850967,0.010561380468885214,0.0015296825310224505,0.0030196627218351726,0.014907271536695438,-0.0003221566092980852,0.006086575598492444
0.0204828,0.00220710799740713,0.0029889575191334858,0.010597778928419253,0.0016121707562344136,0.003135574991095214,0.015192843834060258,0.00015410404202622702,0.006174141629309807
0.0209483,0.0022251770165602983,0.00304526330040967,0.010633136835366942,0.0016943949855312813,0.0032501340153667574,0.015479207172767748,0.0006264935387136452,0.006261962696714859
0.0214138,0.0022429958213852907,0.003102027732972943,0.010667451472957704,0.0017763477778142084,0.003363333946944085,0.015766340405303447,0.0010949668348349843,0.0063500371709830725
0.0218793,0.002260562156706726,0.0031592531583288903,0.010700720475572568,0.0018580217799721147,0.0034751694288017165,0.016054222286806082,0.001559479908091567,0.00643836347902423
0.0223448,0.002277873839278757,0.0032169419134168414,0.01073294182972656,0.0019394097285279062,0.003585635596489611,0.01634283147803881,0.002019989766220993,0.006526940104370633
0.0228103,0.0022949287583599975,0.0032750963293636513,0.010764113874881192,0.0020205044512502835,0.003694728079809381,0.016632146548311244,0.0024764544529691387,0.006615765587097462
0.0232759,0.0023117248762489443,0.003333718730204821,0.010794235304088061,0.002101298868730914,0.003802443004269948,0.01692214597835114,0.002928833053629928,0.006704838523676252
0.0237414,0.0023282602287796167,0.0033928114315739982,0.010823305164464588,0.0021817859959268227,0.003908776992321133,0.017212808163124847,0.003377085700154522,0.0067941575667625435
0.0242069,0.0023445329257771935,0.0034523767393619424,0.010851322857502899,0.0022619589436679065,0.00401372716436375,0.017504111414606033,0.003821173575831685,0.006883721424918779
0.0246724,0.002360541151473504,0.0035124169483460336,0.01087828813921276,0.0023418109201295318,0.004117291139534851,0.017796033964492274,0.004261058919541232,0.00697352886227352
0.0251379,0.0023762831648823208,0.003572934340791392,0.010904201120099466,0.002421335232270171,0.004219467036266833,0.01808855396686935,0.004696705029582658,0.0070635786981180565
0.0256034,0.0023917573001344897,0.003633931185024664,0.010929062264977552,0.002500525287234066,0.004320253472619095,0.018381649500823077,0.005128076267081236,0.0071538698064415075
0.026069,0.0024069619667730375,0.0036954097339815207,0.010952872392621289,0.0025793745937189015,0.004419649566380999,0.018675298572998593,0.005555138058974044,0.007244401115405562
0.0265345,0.002421895650008487,0.0037573722237289006,0.010975632675253038,0.0026578767633084832,0.004517654934944813,0.01896947912010713,0.0059778569005785485,0.007335171606760148
0.027,0.0024365569109346973,0.003819820871963019,0.01099734463787067,0.0027360255117704476,0.004614269694947366,0.01926416901138048,0.0063962003577465315,0.007426180315201396
0.0274655,0.0024509443867056177,0.0038827578764841757,0.011018010157415338,0.0028138146603190724,0.004709494461679051,0.019559346050973456,0.006810137068606286,0.007517426327673373
0.027931,0.0024650567906733894,0.003946185413649401,0.011037631461781038,0.0028912381368432953,0.0048033303482588295,0.019854987980314827,0.007219636744896199,0.00760890878261506
0.0283966,0.0024788929124882637,0.004010105636804027,0.011056211128667504,0.0029682899771000847,0.004895778964573863,0.020151072480407397,0.007624670172892931,0.007700626869154077
0.0288621,0.0024924516181608304,0.004074520674693316,0.011073752084277976,0.0030449643258733386,0.00498684241598239,0.020447577174078108,0.00802520921393764,0.007792579826248625
0.0293276,0.0025057318500870847,0.0041394326298553165,0.011090257601863496,0.003121255438098469,0.005076523301778533,0.02074447962817938,0.00842122680456389,0.007884766941779135
0.0297931,0.0025187326270368856,0.004204843576996192,0.011105731300115444,0.003197157679952849,0.005164824713417785,0.021041757355743155,0.008812696956231148,0.007977187551591046
0.0302586,0.002531453044106387,0.004270755561349287,0.011120177141408167,0.00327266552991228,0.005251750232502057,0.021339387818089476,0.009199594754667945,0.008069841038490124
0.0307241,0.00254389227263505,0.0043371705970192565,0.01113359942989355,0.003347773579773621,0.00533730392852335,0.021637348426891755,0.009581896358828968,0.00816272683119172
0.0311897,0.0025560495600878705,0.004404090665312575,0.011146002809449619,0.003422476535643727,0.005421490356365268,0.021935616546201207,0.00995957899947052,0.008255844403225306
0.0316552,0.0025679242299034848,0.004471517713055755,0.011157392261485304,0.003496769218894793,0.005504314553561873,0.022234169494433437,0.01033262097734899,0.00834919327179566
0.0321207,0.0025795156813088554,0.004539453650902583,0.011167773102603643,0.003570646567086202,0.005585782037313754,0.022532984546320467,0.01070100166104716,0.00844277299660207
0.0325862,0.0025908233891012633,0.0046079003516316655,0.011177150982125766,0.0036441036348529503,0.005665898801261736,0.022832038934831673,0.011064701484433384,0.008536583178616837
0.0330517,0.002601846903398355,0.004676859648435499,0.011185531879478084,0.0037171355947606885,0.0057446713120192245,0.023131309853067123,0.011423701943758881,0.008630623458824475
0.0335172,0.0026125858493570024,0.004746333333202309,0.011192922101444973,0.0037897377381274034,0.00582210650546467,0.023430774456127016,0.011777985594398556,0.008724893516922856
0.0339828,0.002623039926861744,0.004816323154791832,0.01119932827928929,0.003861905475811747,0.005898211782796147,0.0237304098629609,0.012127536047241063,0.008819393069987717
0.0344483,0.002633208910183571,0.00488683081730622,0.01120475736574295,0.003933634338968015,0.005972995006350611,0.024030193158200475,0.012472337964734083,0.00891412187110189
0.0349138,0.002643092647609819,0.004957857978357213,0.01120921663186975,0.004004919979767767,0.00604646449519099,0.024330101393979734,0.012812377056591068,0.00900907970795074
0.0353793,0.0026526910610459404,0.005029406247330721,0.011212713663802573,0.004075758172088037,0.0061186290204648395,0.02463011159174631,0.013147640075166014,0.009104266401385341
0.0358448,0.002662004145589921,0.005101477183649915,0.011215256359357072,0.004146144812166119,0.006189497800538659,0.0249302007440679,0.013478114810502982,0.009199681803954975
0.0363103,0.0026710319690801112,0.005174072295037935,0.011216852924523882,0.004216075919220863,0.006259080495912253,0.025230345816437533,0.013803790085067314,0.009295325798410496
0.0367759,0.0026797746716172347,0.005247193035781276,0.011217511869841417,0.00428554763604046,0.006327387203917522,0.02553052374908152,0.01412465574816554,0.009391198296180115
0.0372414,0.002688232465061344,0.0053208408049948645,0.01121724200665128,0.004354556229536662,0.006394428453206202,0.025830711458773848,0.014440702670060975,0.009487299235819105
0.0377069,0.0026964056325044596,0.00539501694488983,0.01121605244323839,0.004423098091265388,0.006460215198031093,0.026130885840660648,0.014751922735791997,0.009583628581434859
0.0381724,0.0027042945277196122,0.005469722739044932,0.01121395258085795,0.0044911697379136604,0.006524758812325367,0.02643102377009819,0.015058308838700001,0.009680186321088753
0.0386379,0.002711899574586988,0.005544959410682512,0.011210952109651522,0.004558767811752817,0.006588071083584654,0.02673110210450795,0.015359854873674157,0.00977697246517624
0.0391034,0.002719221266497865,0.005620728120949878,0.011207061004454438,0.004625889081057896,0.00665016420655663,0.02703109768525197,0.015656555730120307,0.009873987044786585
0.039569,0.0027262601657369856,0.005697029967206916,0.011202289520496986,0.004692530440493102,0.0067110507767428945,0.02733098733953182,0.015948407284661594,0.009971230110043684
0.0400345,0.0027330169028440153,0.005773865981320717,0.011196648189001885,0.004758688911463216,0.006770743783718038,0.027630747882314236,0.016235406393578664,0.010068701728429384
0.0405,0.002739492175954698,0.005851237127967957,0.011190147812680554,0.004824361642430778,0.006829256604270857,0.02793035611828642,0.0165175508849975,0.010166401983090741
0.0409655,0.0027456867501223265,0.005929144302945752,0.011182799461130802,0.004889545909198894,0.00688660299537274,0.02822978884384396,0.016794839550833156,0.010264330971132666
0.041431,0.0027516014566201243,0.006007588331491636,0.011174614466138448,0.0049542391151594645,0.006942797086978312,0.028529022849114193,0.017067272138497593,0.010362488801897374
0.0418966,0.0027572371922251313,0.00608656996661328,0.011165604416885447,0.005018438791506671,0.006997853374663448,0.028828034920017634,0.017334849342380033,0.010460875595232061
0.0423621,0.0027625949184841795,0.006166089887428532,0.011155781155066985,0.0050821425974155125,0.007051786712105806,0.02912680184037008,0.017597572795108075,0.010559491479746224
0.0428276,0.0027676756609625298,0.0062461486975162964,0.011145156769919987,0.005145348320185211,0.007104612303413057,0.029425300394028037,0.01785544505859797,0.010658336591060033
0.0432931,0.0027724805084757206,0.0063267469232787575,0.01113374359316549,0.005208053875347268,0.0071563456953040155,0.029723507367079932,0.018108469614902374,0.010757411070045141
0.0437586,0.0027770106123051652,0.006407885012315389,0.011121554193867317,0.005270257306737952,0.007207002769147883,0.030021399550085804,0.018356650856863787,0.010856715061059277
0.0442241,0.002781267185398012,0.006489563331809159,0.011108601373209518,0.005331956786535027,0.007256599732866904,0.030318953740368217,0.018599994078581955,0.010956248710175876
0.0446897,0.0027852515015517653,0.0065717821669253355,0.011094898159194974,0.0053931506152584555,0.007305153112707686,0.03061614674435701,0.018838505465703304,0.011056012163410046
0.0451552,0.0027889648945841478,0.006654541719223204,0.01108045780126752,0.005453837221734886,0.0073526797448864355,0.030912955379990583,0.01907219208554044,0.01115600556494195
0.0456207,0.0027924087574886882,0.006737842105081034,0.011065293764859983,0.005514015163025701,0.007399196767113297,0.031209356479176373,0.019301061877029638,0.011256229055338756
0.0460862,0.002795584541576498,0.006821683354134531,0.011049419725870471,0.005573683124318429,0.007444721610000969,0.03150532689031312,0.019525123640534044,0.01135668276977617
0.0465517,0.002798493755604711,0.006906065407729022,0.011032849565069343,0.005632839918781325,0.0074892719883627255,0.03180084348087752,0.019744387027500296,0.011457366836260446
0.0470172,0.0028011379648920534,0.006990988117385564,0.011015597362439287,0.005691484487380958,0.00753286589240496,0.03209588314007767,0.019958862529975925,0.01155828137385178
0.0474828,0.0028035187904220204,0.007076451243281167,0.010997677391451065,0.005749615898662683,0.007575521578819355,0.032390422781575626,0.0201685614699949,0.011659426490889848
0.0479483,0.0028056379079341594,0.0071624544527433024,0.010979104113277452,0.005807233348493918,0.007617257561779783,0.03268443934628129,0.020373495988838478,0.01176080228322224
0.0484138,0.002807497047003943,0.007248997318758876,0.010959892170947933,0.005864336159770176,0.00765809260384897,0.03297790980521958,0.02057367903617839,0.011862408832436368
0.0488793,0.0028090979901117473,0.007336079318497877,0.010940056383446705,0.00592092378208387,0.007698045706799967,0.03327081116247262,0.020769124359109128,0.01196424620409545
0.0493448,0.002810442571701426,0.007423699831851919,0.010919611739756434,0.005976995791355973,0.007737136102357392,0.03356312045819857,0.02095984649107612,0.012066314445979052
0.0498103,0.002811532677228987,0.007511858139987921,0.010898573392850268,0.006032551889430719,0.0077753832428634016,0.03385481477172825,0.021145860740706336,0.012168613586328685
0.0502759,0.0028123702422018356,0.007600553423917198,0.010876956653634544,0.0060875919036336235,0.007812806791873328,0.034145871224740755,0.021327183180547722,0.012271143632098863
0.0507414,0.002812957251209041,0.00768978476308028,0.010854776984844649,0.006142115786293099,0.007849426614685857,0.03443626698451877,0.02150383063572385,0.012373904567213979
0.0512069,0.002813295736943075,0.007779551133947776,0.01083204999489654,0.006196123614226001,0.007885262768812632,0.03472597926728417,0.021675820672509793,0.012476896350831377
0.0516724,0.0028133877792134387,0.007869851408637567,0.010808791431696458,0.0062496155881874155,0.007920335494392087,0.03501498534161434,0.021843171586835353,0.012580118915610988
0.0521379,0.0028132355039525714,0.007960684353548667,0.010785017176411362,0.006302592032284983,0.007954665204552267,0.03530326253193921,0.022005902392721304,0.0126835721659919
0.0526034,0.002812841082214426,0.00805204862801196,0.010760743237202611,0.0063550533933580304,0.007988272475727334,0.035590788222118995,0.022164032810654294,0.01278725597647626
0.053069,0.0028122067291660733,0.008143942782958038,0.010735985742925416,0.006407000240321755,0.008021178037932387,0.03587753985910218,0.022317583255905903,0.012891170189920849
0.0535345,0.0028113347030726803,0.008236365259602271,0.010710760936796515,0.006458433263476686,0.008053402765001196,0.036163494956663295,0.022466574826801037,0.012995314615836785
0.054,0.0028102273042762155,0.008329314388147173,0.010685085170032615,0.006509353273783649,0.008084967664791318,0.03644863109921976,0.022611029292940805,0.013099689028697913
0.0544655,0.0028088868741681923,0.008422788386502109,0.010658974895462036,0.006559761202104428,0.008115893869361061,0.03673292594572699,0.02275096908338472,0.013204293166258553
0.054931,0.002807315794156758,0.008516785359020307,0.010632446661112122,0.0066096580984083666,0.00814620262512266,0.0370163572336506,0.022886417274796875,0.013309126727881497
0.0553966,0.0028055164846284325,0.00861130329525315,0.010605517103774902,0.006659045130945171,0.008175915282975964,0.037298902783014634,0.023017397579560728,0.013414189372877201
0.0558621,0.002803491403904768,0.008706340068721697,0.010578202942553495,0.0067079235853841745,0.00820505328842691,0.037580540500524555,0.023143934333866793,0.013519480718855267
0.0563276,0.002801243047194212,0.008801893435705416,0.010550520972391711,0.006756294863920366,0.008233638171694934,0.037861248383763306,0.023266052485777396,0.01362500034008947
0.0567931,0.0027987739455394294,0.00889796103404815,0.010522488057589213,0.006804160484347488,0.008261691537813486,0.03814100452545892,0.023383777583272466,0.013730747765897717
0.0572586,0.002796086664760343,0.008994540381981275,0.010494121125304626,0.0068515220790985034,0.008289235056727701,0.038419787117821604,0.023497135762280203,0.013836722479038579
0.0577241,0.002793183804393144,0.00909162887696412,0.01046543715904888,0.006898381394253706,0.008316290453393266,0.03869757445694816,0.0236061537346962,0.013942923914126193
0.0581897,0.0027900679966254916,0.009189223794541648,0.010436453192171062,0.006944740288516772,0.008342879497880446,0.03897434494729135,0.023710858776394485,0.014049351456065362
0.0586552,0.0027867419052281486,0.009287322287219383,0.010407186301339163,0.006990600732158992,0.008369023995487225,0.03925007710619165,0.023811278715233815,0.014156004438508738
0.0591207,0.002783208224483275,0.009385921383355514,0.01037765360001809,0.007035964805932017,0.008394745776865407,0.039524749568468354,0.023907441919062657,0.01426288214233799
0.0595862,0.0027794696781096202,0.009485017986070099,0.010347872231947523,0.007080834699949448,0.0084200666881635,0.03979834109106721,0.023999377283726055,0.014369983794170784
0.0600517,0.002775529018184855,0.009584608872171265,0.01031785936462223,0.007125212712537733,0.008445008581190117,0.04007083055776107,0.024087114221077784,0.014477308564895416
0.0605172,0.002771389024065296,0.009684690691098301,0.010287632182777619,0.0071691012490569,0.008469593303601638,0.04034219698390017,0.024170682647001247,0.014584855568234925
0.0609828,0.002767052501303302,0.009785259963881566,0.010257207881883333,0.007212502820691757,0.00849384268911778,0.04061241952120816,0.024250112969442385,0.014692623859342538
0.0614483,0.0027625222805626216,0.00988631308211917,0.01022660366164768,0.00725542004321429,0.008517778547768716,0.04088147746261947,0.024325436076457988,0.014800612433430265
0.0619138,0.0027578012165319844,0.00998784630697042,0.010195836719535665,0.007297855635717985,0.008541422656177371,0.04114935024715395,0.02439668332428256,0.014908820224432465
0.0623793,0.0027528921868372113,0.010089855768165991,0.010164924244303293,0.007339812419324802,0.00856479674788048,0.041416017464823845,0.024463886525416995,0.01501724610370611
0.0628448,0.002747798090952117,0.010192337463034875,0.010133883409550718,0.007381293315865535,0.008587922503691982,0.041681458861568495,0.02452707793674224,0.015125888878769422
0.0633103,0.0027425218491084645,0.010295287255547996,0.01010273136729678,0.00742230134653429,0.00861082154211224,0.04194565434421177,0.024586290247661423,0.015234747292080492
0.0637759,0.0027370664012052264,0.01039870087537847,0.010071485241577355,0.007462839630517842,0.008633515409786558,0.042208583985437136,0.02464155656827394,0.015343820019857303
0.0642414,0.002731434705717407,0.010502573916978385,0.010040162122069865,0.0075029113836007025,0.008656025572016383,0.04247022802877492,0.024692910417585468,0.015453105670940602
0.0647069,0.002725629738604662,0.01060690183867201,0.010008779057746255,0.007542519916746794,0.008678373403326535,0.04273056689359611,0.024740385711757733,0.015562602785700833
0.0651724,0.002719654492219986,0.010711679961765362,0.009977353050556722,0.007581668634658656,0.008700580178091765,0.04298958118010686,0.024784016752401838,0.015672309834990347
0.0656379,0.002713511974218698,0.010816903469672097,0.0099459010491464,0.007620361034315182,0.008722667061225837,0.04324725167433745,0.024823838214918955,0.015782225219141965
0.0661034,0.0027072052064679958,0.010922567407055828,0.009914439942607222,0.007658600703488847,0.00874465509893632,0.043503559353119337,0.024859885136891868,0.015892347267014936
0.066569,0.00270073722395733,0.011028666678989012,0.009882986554267137,0.00769639131924341,0.008766565209548181,0.04375848538904374,0.02489219290653072,0.01600267423508919
0.0670345,0.0026941110737098758,0.011135196050128766,0.009851557635518855,0.007733736646413045,0.008788418174399246,0.04401201115539495,0.024920797251176224,0.01611320430660865
0.0675,0.002687329813695394,0.011242150143910022,0.009820169859690212,0.007770640536063866,0.008810234628810552,0.044264118231051475,0.0249457342258634,0.01622393559077432
0.0679655,0.0026803965117447965,0.011349523441756618,0.009788839815958222,0.007807106923938787,0.00883203505313462,0.04451478840534844,0.024967040201948832,0.01633486612198765
0.068431,0.002673314244466706,0.011457310282310932,0.009757584003308816,0.00784313982888665,0.008853839763884581,0.044764003682894876,0.02498475185580429,0.016445993859144584
0.0688966,0.002666086096166316,0.01156550486068284,0.009726418824544255,0.007878743351276522,0.008875668904947098,0.045011746288339906,0.024998906157579624,0.016557316684980644
0.0693621,0.0026587151577668394,0.01167410122771876,0.009695360580340154,0.007913921671398092,0.00889754243888196,0.0452579986710823,0.02500954036003755,0.01666883240546715
0.0698276,0.002651204525733812,0.011783093289291613,0.009664425463354045,0.007948679047849063,0.008919480138311182,0.045502743509918335,0.025016691987463063,0.016780538749258812
0.0702931,0.002643557301002526,0.01189247480561251,0.009633629552387323,0.007983019815910557,0.008941501577400474,0.045745963717623205,0.025020398824649983,0.016892433367192712
0.0707586,0.0026357765879088642,0.012002239390564948,0.00960298880660241,0.008016948385911528,0.00896362612343585,0.04598764244546176,0.025020698905966973,0.017004513831838767
0.0712241,0.002627865493123827,0.012112380511062238,0.009572519059796922,0.008050469241583239,0.008985872928498237,0.04622776308762495,0.025017630504505492,0.017116777637101666
0.0716897,0.0026198271245920788,0.012222891486428904,0.009542236014736624,0.008083586938404877,0.009008260921238834,0.046466309285588966,0.02501123212131178,0.017229222197874206
0.0721552,0.002611664590474879,0.012333765487806793,0.009512155237548961,0.008116306101941384,0.009030808798758096,0.04670326493239452,0.02500154247470493,0.017341844849741817
0.0726207,0.0026033809980977912,0.012444995537586722,0.009482292152178948,0.008148631426174568,0.009053535018591038,0.04693861417684446,0.024988600489682846,0.01745464284873806
0.0730862,0.002594979452903592,0.012556574508866504,0.009452662034909182,0.00818056767182849,0.009076457790801646,0.04717234142761862,0.02497244528741783,0.01756761337115056
0.0735517,0.002586463057410825,0.01266849512493638,0.009423280008945722,0.008212119664690097,0.009099595070189061,0.04740443135730521,0.02495311617484331,0.01768075351337691
0.0740172,0.002577834910178437,0.012780749958792978,0.009394161039071508,0.008243292293925978,0.009122964548608177,0.04763486890634899,0.024930652634333094,0.017794060291829783
0.0744828,0.0025690981047769403,0.012893331432683034,0.00936531992636894,0.0082740905103961,0.00914658364740721,0.04786363928691664,0.02490509431347439,0.01790753064289048
0.0749483,0.002560255728766529,0.013006231817678265,0.009336771303013169,0.00830451932496525,0.009170469509984755,0.048090727986680355,0.024876481014935923,0.01802116142291002
0.0754138,0.0025513108626825853,0.01311944323328288,0.00930852962713764,0.008334583806812937,0.009194638994468837,0.04831612077252158,0.024844852686432127,0.01813494940825682
0.0758793,0.002542266579028984,0.013232957647075373,0.009280609177773323,0.008364289081742369,0.009219108666520363,0.0485398036941571,0.02481024941078453,0.01824889129540981
0.0763448,0.002533125941279609,0.013346766874386271,0.009253024049863008,0.008393640330489125,0.009243894792263424,0.04876176308768995,0.024772711396081202,0.018362983701095865
0.0768103,0.0025238920028884757,0.013460862578013578,0.009225788149352031,0.00842264278703004,0.00926901333134479,0.04898198557908765,0.024732278965935123,0.01847722316247033
0.0772759,0.0025145678063088453,0.013575236267977558,0.009198915188356655,0.0084513017368928,0.009294479930124963,0.04920045808759002,0.024688992549842248,0.018591606137339272
0.0777414,0.002505156382021701,0.013689879301316535,0.009172418680411338,0.008479622515466715,0.009320309915003043,0.04941716782904879,0.02464289267363991,0.01870612900442208
0.0782069,0.002495660747573955,0.013804782881925255,0.00914631193579601,0.0085076105063151,0.009346518285877625,0.04963210231920066,0.02459401995006627,0.018820788063653004
0.0786724,0.002486083906626763,0.013919938060437204,0.009120608056944462,0.0085352711394897,0.009373119709745876,0.049845249376875504,0.024542415069421224,0.018935579536520072
0.0791379,0.002476428848014311,0.014035335734152237,0.009095319933934885,0.008562609889847585,0.009400128514442873,0.050056597127140987,0.024488118790329288,0.019050499566439803
0.0796034,0.002466698544813445,0.014150966647010817,0.009070460240063569,0.008589632275370884,0.009427558682523244,0.05026613400438462,0.02443117193060475,0.019165544219166043
0.080069,0.002456895953424512,0.014266821389616043,0.00904604142750266,0.008616343855489757,0.009455423845287041,0.05047384875533378,0.024371615358219367,0.019280709483231243
0.0805345,0.002447024012663771,0.014382890399304704,0.009022075723042918,0.008642750229408972,0.009483737276951794,0.05067973044201411,0.024309489982372777,0.019395991270418505
0.081,0.002437085642867739,0.014499163960268548,0.00899857512392229,0.008668857034438466,0.009512511888972546,0.050883768444646586,0.024244836744666026,0.019511385416262676
0.0814655,0.002427083745009816,0.014615632203726836,0.008975551393741113,0.008694669944328357,0.009541760224511671,0.051085952464483296,0.02417769661037846,0.019626887680578835
0.081931,0.0024170211998295497,0.014732285108151333,0.0089530160584647,0.008720194667608896,0.009571494453060183,0.051286272526581925,0.024108110559848298,0.01974249374801645
0.0823966,0.002406900866974891,0.014849112499544681,0.008930980402514084,0.008745436945936,0.009601726365212233,0.05148471898251892,0.024036119579957167,0.0198581992286375
0.0828621,0.002396725584157788,0.014966104051773068,0.008909455464945606,0.008770402552443015,0.009632467367594431,0.05168128251304105,0.023961764655718965,0.01997399965851685
0.0833276,0.002386498166323455,0.015083249286953938,0.008888452035720047,0.008795097290099398,0.009663728477951652,0.0518759541306546,0.023885086761973345,0.020089890500363156
0.0837931,0.0023762214048336557,0.015200537575899427,0.008867980652061989,0.008819526990076999,0.00969552032039095,0.05206872518215121,0.023806126855184365,0.020205867144158656
0.0842586,0.0023658980666643042,0.015317958138616113,0.008848051594910047,0.00884369751012457,0.009727853120785225,0.05225958735106884,0.023724925865344835,0.02032192490781611
0.0847241,0.0023555308936176987,0.01543550004486148,0.008828674885458562,0.00886761473295109,0.009760736702338256,0.05244853266008605,0.023641524687986994,0.020438059037851432
0.0851897,0.002345122601549675,0.015553152214757495,0.008809860281791357,0.008891284564618452,0.009794180481312698,0.05263555347334716,0.023555964176299973,0.020554264710070654
0.0856552,0.002334675879611959,0.01567090341946159,0.008791617275608076,0.008914712932943977,0.009828193462922602,0.05282064249871579,0.023468285133354458,0.020670537030270025
0.0861207,0.0023241933895099855,0.015788742281895272,0.008773955089043623,0.0089379057859132,0.009862784237391984,0.05300379278995347,0.02337852830443484,0.020786871034948334
0.0865862,0.0023136777647764463,0.015906657277530482,0.008756882671581213,0.008960869090103374,0.009897960976180861,0.05318499774882015,0.023286734369479065,0.020903261692030516
0.0870517,0.002303131610060803,0.016024636735233737,0.008740408697059521,0.008983608829118144,0.009933731428380149,0.05336425112709302,0.023192943935626265,0.021019703901601728
0.0875172,0.002292557500435003,0.016142668838168023,0.008724541560774533,0.009006131002033837,0.009970102917276685,0.05354154702849961,0.023097197529872188,0.021136192496651093
0.0879828,0.002281957980715604,0.01626074162475232,0.008709289376676681,0.009028441621857852,0.010007082337089614,0.053716879910560754,0.022999535591832227,0.021252722243824365
0.0884483,0.0022713355648025183,0.016378842989678618,0.008694659974663899,0.009050546713999639,0.01004467614987926,0.053890244586338884,0.022899998466611816,0.02136928784418472
0.0889138,0.0022606927350345635,0.016496960684986222,0.008680660897971268,0.009072452314754752,0.010082890382629597,0.0540616362260865,0.022798626397783756,0.02148588393398077
0.0893793,0.0022500319415620115,0.016615082321193183,0.008667299400657955,0.009094164469802426,0.010121730624505283,0.05423105035878936,0.02269545952047186,0.02160250508542086
0.0898448,0.002239355601736298,0.016733195368484746,0.008654582445192073,0.009115689232717127,0.01016120202428431,0.054398482873598615,0.02259053785454029,0.021719145807452628
0.0903103,0.002228666099517064,0.01685128715795861,0.008642516700134155,0.009137032663494516,0.01020130928796717,0.05456393002114619,0.022483901297887684,0.021835800546546845
0.0907759,0.0022179657848966743,0.01696934488292686,0.0086311085379198,0.009158200827092343,0.010242056676563471,0.05472738841473724,0.022375589619845263,0.02195246368748461
0.0912414,0.0022072569733423515,0.017087355600274478,0.008620364032742057,0.009179199791986748,0.010283448004056879,0.0548888550314135,0.02226564245467785,0.02206912955414679
0.0917069,0.0021965419452560715,0.01720530623187424,0.008610288958534053,0.009200035628744578,0.010325486635549197,0.055048327212881214,0.02215409929518658,0.022185792410304696
0.0921724,0.002185822945452335,0.017323183566057762,0.008600888787052278,0.009220714408612213,0.010368175485584384,0.05520580266629691,0.02204099948641211,0.022302446460410918
0.0926379,0.0021751021826539457,0.01744097425914243,0.008592168686061023,0.009241242202121414,0.010411517016653188,0.05536127946490441,0.021926382219436963,0.022419085850389295
0.0931034,0.0021643818290059146,0.017558664837013845,0.008584133517618373,0.009261625077712625,0.010455513237879042,0.055514756048516294,0.021810286525285428,0.022535704668422942
0.093569,0.002153664019607593,0.01767624169676328,0.008576787836464162,0.009281869100376098,0.010500165703885763,0.05566623122383306,0.021692751268919626,0.02265229694573945
0.0940345,0.0021429508520631278,0.0177936911083798,0.008570135888510293,0.009301980330311122,0.010545475513847519,0.05581570416459375,0.021573815143330302,0.02276885665739229
0.0945,0.0021322443860503264,0.017910999216496564,0.008564181609433737,0.009321964821603627,0.010591443310721458,0.055963174411552276,0.021453516663721067,0.02288537772303724
0.0949655,0.002121546642907987,0.018028152042191044,0.008558928623372514,0.009341828620922293,0.010638069280663288,0.056108641872275086,0.021331894161784912,0.02300185400770275
0.095431,0.0021108596052417682,0.01814513548483875,0.008554380241724861,0.009361577766233236,0.010685353152626075,0.05625210682075699,0.021208985780071885,0.023118279322552848
0.0958966,0.002100185216548643,0.01826193532402018,0.008550539462051743,0.009381218285533338,0.010733294198142453,0.0563935698968533,0.021084829466446926,0.023234647425641207
0.0963621,0.0020895253808599777,0.01837853722148064,0.008547408967082802,0.009400756195602102,0.010781891231290369,0.05653303210552678,0.020959462968636655,0.02335095202265492
0.0968276,0.0020788819624032633,0.01849492672314238,0.00854499112382579,0.009420197500771936,0.010831142608842473,0.056670494815908724,0.020832923828864088,0.023467186767646458
0.0972931,0.002068256785282514,0.01861108926116855,0.008543287982779521,0.00943954819171669,0.01088104623059929,0.056805959760173205,0.020705249378570212,0.023583345263752414
0.0977586,0.0020576516331773345,0.01872701015607827,0.008542301277250327,0.009458814244258248,0.01093159953990622,0.05693942903222409,0.020576476733221445,0.023699421063897535
0.0982241,0.002047068249060644,0.018842674618912217,0.00854203242277204,0.009478001618190967,0.010982799524354426,0.05707090508619448,0.020446642787202162,0.023815407671482623
0.0986897,0.0020365083349350352,0.018958067753447973,0.00854248251662948,0.009497116256123721,0.011034642716665615,0.05720039073475858,0.020315784208791498,0.023931298541054996
0.0991552,0.002025973551587735,0.019073174558464502,0.008543652337485453,0.009516164082339323,0.01108712519576072,0.05732788914725625,0.02018393743522376,0.024047087078960225
0.0996207,0.002015465518364124,0.019187979930055117,0.008545542345111153,0.009535151001671033,0.011140242588012392,0.05745340384763099,0.020051138667831914,0.02416276664397388
0.1000862,0.0020049858129597663,0.019302468663988326,0.008548152680219872,0.009554082898395808,0.011193990068681154,0.05757693871218294,0.019917423867273906,0.02427833054791208
0.1005517,0.001994535971230901,0.01941662545811596,0.008551483164403883,0.009572965635143912,0.011248362363534955,0.057698497967139474,0.01978282874884166,0.024393772056219676
0.1010172,0.001984117487023324,0.019530434914827983,0.00855553330017427,0.00959180505182441,0.011303353750651826,0.0578180861860472,0.019647388777852888,0.02450908438853491
0.1014828,0.001973731812019605,0.01964388154355329,0.008560302271103439,0.009610606964566023,0.01135895806240522,0.05793570828698993,0.019511139165125892,0.024624260719229744
0.1019483,0.00196338035560455,0.019756949763305935,0.008565788942070076,0.009629377164672841,0.0114151686876315,0.058051369529637895,0.019374114862537904,0.02473929417792501
0.1024138,0.0019530644847488448,0.019869623905275923,0.008571991859606165,0.00964812141759427,0.011471978573979,0.058165075512133915,0.019236350558667518,0.02485417784997968
0.1028793,0.001942785523910786,0.01998188821546392,0.008578909252345755,0.009666845461908675,0.011529380230437938,0.05827683216782209,0.019097880674521946,0.024968904776953703
0.1033448,0.0019325447549560129,0.020093726857358975,0.00858653903157508,0.009685555008320076,0.01158736573005036,0.05838664576182449,0.018958739359349663,0.02508346795704388
0.1038103,0.0019223434170951496,0.020205123914658403,0.008594878791883639,0.009704255738667334,0.011645926712799229,0.05849452288747102,0.018818960486538996,0.02519786034549262
0.1042759,0.0019121827068392567,0.02031606339402891,0.008603925811915878,0.00972295330494518,0.01170505438867564,0.05860047046258725,0.01867857764960312,0.02531207485496948
0.1047414,0.0019020637779730014,0.020426529227907917,0.008613677055223153,0.009741653328336467,0.01176473954092308,0.05870449572564514,0.01853762415825178,0.025426104355925544
0.1052069,0.0018919877415454504,0.020536505277344217,0.008624129171215593,0.009760361398255044,0.011824972529457543,0.05880660623178127,0.01839613303454995,0.025539941676920832
0.1056724,0.0018819556658783924,0.020645975334877102,0.008635278496213558,0.009779083071398565,0.011885743294462217,0.058906809848687375,0.018254137009163608,0.025653579604924842
0.1061379,0.0018719685765920893,0.02075492312745342,0.008647121054598216,0.00979782387081056,0.011947041360155394,0.05900511475237776,0.01811166851769261,0.025767010885590448
0.1066034,0.0018620274566483422,0.020863332319382116,0.008659652560060844,0.009816589284951013,0.012008855838730128,0.0591015294228385,0.017968759697090653,0.025880228223501386
0.107069,0.0018521332464107574,0.020971186515326166,0.00867286841695031,0.00983538476677464,0.012071175434464154,0.05919606263956264,0.01782544238217231,0.02599322428239352
0.1075345,0.0018422868437220782,0.021078469263331782,0.008686763721718189,0.009854215732815962,0.012133988447998456,0.059288723476975676,0.017681748102207063,0.026105991685349897
0.108,0.0018324891039984397,0.02118516405789494,0.008701333264460936,0.00987308756228022,0.012197282780782847,0.059379521299754955,0.0175377080776003,0.02621852301496962
0.1084655,0.001822740840340396,0.021291254343065176,0.008716571530558452,0.00989200559613905,0.012261045939686844,0.05946846575804642,0.017393353216661373,0.026330810813510405
0.108931,0.0018130428236605635,0.021396723515586698,0.008732472702408406,0.00991097513622983,0.012325265041774088,0.059555566782581656,0.017248714112458863,0.026442847583004424
0.1093966,0.0018033957828277312,0.02150155492807684,0.008749030661255645,0.00993000144435749,0.012389926819238478,0.059640834579697814,0.01710382103976339,0.02655462578534712
0.1098621,0.0017938004048272916,0.021605731892241905,0.00876623898911605,0.009949089741397589,0.012455017624500159,0.05972427962626235,0.016958703952078377,0.026666137842358457
0.1103276,0.0017842573349378527,0.021709237682130594,0.008784090970794151,0.009968245206399403,0.01252052343545939,0.05980591266450425,0.016813392478759247,0.026777376135816187
0.1107931,0.0017747671769238868,0.02181205553742527,0.008802579595993877,0.009987472975687839,0.012586429860906355,0.059885744696753035,0.01666791592222151,0.02688833300746081
0.1112586,0.0017653304932442797,0.021914168666771313,0.008821697561521718,0.010006778141962915,0.012652722146084787,0.05996378698008675,0.01652230325523819,0.026999000758972238
0.1117241,0.0017559478052766443,0.022015560251144765,0.008841437273581646,0.010026165753395693,0.012719385178407289,0.060040051020889905,0.016376583118327053,0.02710937165191835
0.1121897,0.0017466195935572776,0.0221162134472584,0.008861790850161073,0.01004564081271954,0.012786403493320109,0.06011454856932211,0.0162307838172281,0.027219437907676027
0.1126552,0.0017373462980366484,0.022216111391006224,0.00888275012350714,0.010065208276315709,0.012853761280315023,0.060187291613698256,0.016084933320471926,0.02732919170732555
0.1131207,0.0017281283183503062,0.022315237200946275,0.008904306642692641,0.01008487305329233,0.012921442389085934,0.06025829237478056,0.01593905925703965,0.027438625191519916
0.1135862,0.0017189660141051165,0.022413573981821373,0.008926451676270864,0.010104640004556055,0.012989430335827694,0.060327563299982484,0.015793188914115273,0.02754773046033117
0.1140517,0.0017098597051807066,0.02251110482811744,0.008949176215018662,0.010124513941875727,0.013057708309674617,0.06039511705748414,0.015647349234931492,0.027656499573076528
0.1145172,0.001700809672046007,0.022607812827658707,0.008972470974767012,0.010144499626937592,0.013126259179276059,0.06046096653025854,0.015501566816709965,0.02776492454812741
0.1149828,0.0016918161560907597,0.0227036810652392,0.008996326399318355,0.010164601770391732,0.013195065499506399,0.06052512481000767,0.015355867908697089,0.027872997362704616
0.1154483,0.0016828793599718513,0.02279869262628973,0.009020732663449946,0.010184825030889508,0.013264109518306777,0.06058760519100737,0.015210278410296192,0.02798070995266279
0.1159138,0.0016739994479743182,0.022892830600579925,0.009045679676002394,0.010205174014111909,0.013333373183655874,0.060648421163859954,0.015064823869296907,0.028088054212267125
0.1163793,0.0016651765463868635,0.022986078085954955,0.009071157083052585,0.010225653271788709,0.013402838150667035,0.06070758640915346,0.014919529480202465,0.028195021993965123
0.1168448,0.0016564107438917103,0.023078418192106955,0.009097154271170103,0.010246267300708415,0.013472485788809026,0.060765114791026635,0.014774420082655396,0.02830160510815603
0.1173103,0.0016477020919686122,0.023169834044381304,0.00912366037075624,0.010267020541718918,0.013542297189247755,0.060821020350638924,0.01462952015996206,0.028407795322960377
0.1177759,0.00163905060531283,0.02326030878761826,0.009150664259464685,0.010287917378718803,0.013612253172306311,0.060875317299545054,0.014484853837716345,0.02851358436399203
0.1182414,0.0016304562622668811,0.023349825590030505,0.009178154565702944,0.010308962137639203,0.013682334295040831,0.060928020012974496,0.014340444882522741,0.028618963914135074
0.1187069,0.0016219190052658497,0.02343836764711737,0.009206119672213544,0.010330159085416143,0.013752520858929727,0.06097914302301636,0.014196316700818886,0.02872392561332792
0.1191724,0.0016134387412960443,0.023525918185616286,0.009234547719734107,0.010351512428953309,0.013822792917673982,0.061028701011710415,0.014052492337797685,0.028828461058356944
0.1196379,0.0016050153423667758,0.02361246046749204,0.009263426610735372,0.010373026314075304,0.013893130285106154,0.06107670880404521,0.013908994476429,0.02893256180266208
0.1201034,0.0015966486459950222,0.023697977793964313,0.009292744013236319,0.010394704824471555,0.01396351254320579,0.06112318136086427,0.0137658454365809,0.02903621935615666
0.120569,0.0015883384557027508,0.023782453509573753,0.009322487364695486,0.010416551980631131,0.014033919050218968,0.06116813377168145,0.013623067174240468,0.029139425185063857
0.1210345,0.0015800845415266562,0.023865871006286968,0.009352643875977583,0.010438571738768918,0.014104328948879674,0.06121158124740692,0.013480681280834043,0.029242170711772035
0.1215,0.001571886640540073,0.02394821372764075,0.009383200535394444,0.010460767989743588,0.014174721174730641,0.06125353911298534,0.013338708982646786,0.029344447314711378
0.1219655,0.0015637444573868198,0.024029465172925837,0.00941414411281933,0.010483144557967913,0.014245074464541275,0.06129402279994812,0.013197171140341364,0.02944624632825398
0.122431,0.0015556576648267338,0.02410960890141073,0.009445461163873488,0.010505705200311912,0.014315367364820218,0.06133304783888131,0.013056088248575503,0.02954755904263959
0.1228966,0.0015476259042926594,0.02418862853660595,0.009477138034183923,0.010528453604999315,0.014385578240419989,0.06137062985181091,0.01291548043571806,0.029648376703929058
0.1233621,0.001539648786458673,0.024266507770569386,0.009509160863711221,0.010551393390497713,0.014455685283231146,0.06140678454450705,0.012775367463663185,0.029748690513987392
0.1238276,0.001531725891819337,0.02434323036825328,0.00954151559114638,0.010574528104402797,0.014525666520963256,0.06144152769870945,0.012635768727742155,0.029848491630498443
0.1242931,0.0015238567712797869,0.024418780171893525,0.009574187958375514,0.010597861222317007,0.014595499826009993,0.061474875164276584,0.012496703256732338,0.029947771167013037
0.1247586,0.0015160409467564625,0.024493141105441832,0.009607163515011357,0.010621396146722922,0.014665162924395535,0.061506842851262254,0.012358189712962831,0.03004652019303233
0.1252241,0.0015082779117883039,0.02456629717904133,0.009640427622990447,0.01064513620585167,0.01473463340479943,0.061537446721923156,0.012220246392516223,0.030144729734128184
0.1256897,0.0015005671321582335,0.02463823249354608,0.009673965461234875,0.010669084652546618,0.01480388872765707,0.061566702782661874,0.012082891225525957,0.0302423907721021
0.1261552,0.0014929080465247544,0.02470893124508479,0.00970776203037742,0.010693244663122617,0.014872906234332874,0.06159462707591023,0.011946141776568754,0.030339494245184295
0.1266207,0.0014853000670634934,0.024778377729669048,0.009741802157548893,0.010717619336221064,0.014941663156363279,0.06162123567195824,0.011810015245151503,0.030436031048274338
0.1270862,0.0014777425801185185,0.024846556347846025,0.009776070501226508,0.01074221169166106,0.015010136624766615,0.061646544660735256,0.011674528466291894,0.030531992033224712
0.1275517,0.001470234946863258,0.024913451609395544,0.00981055155614216,0.010767024669286867,0.015078303679416956,0.0616705701435502,0.011539697911192097,0.030627368009168654
0.1280172,0.0014627765039708573,0.024979048138071235,0.009845229658249606,0.010792061127812067,0.015146141278478886,0.06169332822479829,0.011405539688004661,0.030722149742893598
0.1284828,0.0014553665642938083,0.025043330676385287,0.009880088989749583,0.010817323843660782,0.015213626307900172,0.06171483500364163,0.011272069542689776,0.0308163279592615
0.1289483,0.001448004417552691,0.025106284090436196,0.009915113584171995,0.010842815509806503,0.015280735590959223,0.06173510656567101,0.011139302859963037,0.030909893341677167
0.1294138,0.001440689331033854,0.025167893374778698,0.009950287331514315,0.010868538734609088,0.015347445897864158,0.06175415897455586,0.011007254664332838,0.031002836532605636
0.1298793,0.001433420550295873,0.025228143657334952,0.009985593983435357,0.010894496040650651,0.015413733955400235,0.0617720082636893,0.01087593962122652,0.03109514813413971
0.1303448,0.0014261972998846,0.02528702020434587,0.010021017158503544,0.010920689863571148,0.01547957645662234,0.06178867042783516,0.01074537203820442,0.03118681870861873
0.1308103,0.001419018784056623,0.025344508425361276,0.01005654034749876,0.010947122550904605,0.015544950070589128,0.06180416141478384,0.010615565866260942,0.03127783877929988
0.1312759,0.0014118841875109518,0.025400593878267406,0.010092146918766885,0.01097379636091706,0.01560983145213528,0.06181849711702396,0.010486534701211669,0.03136819883108347
0.1317414,0.0014047926761287322,0.02545526227435027,0.010127820123626034,0.011000713461447325,0.015674197251678294,0.06183169336343688,0.010358291785165553,0.03145788931129377
0.1322069,0.0013977433977207983,0.025508499483393295,0.010163543101823536,0.01102787592875188,0.01573802412505604,0.06184376591102134,0.010230850008081032,0.03154690063051673
0.1326724,0.001390735482782872,0.02556029153880755,0.010199298887042664,0.011055285746355122,0.01580128874339127,0.06185473043665513,0.010104221909404954,0.031635223163496345
0.1331379,0.0013837680452582289,0.025610624642792942,0.010235070412458169,0.011082944803906366,0.015863967802979034,0.061864602528900726,0.009978419679793031,0.031722847250091085
0.1336034,0.0013768401833076456,0.025659485171528603,0.01027084051633968,0.011110854896044903,0.015926038035192974,0.0618733976798618,0.009853455162910512,0.03180976319629194
0.134069,0.001369950980086444,0.02570685968039069,0.010306591947702028,0.011139017721274423,0.015987476216406206,0.061881131277097816,0.009729339857311708,0.03189596127530344
0.1345345,0.0013630995045284537,0.025752734909195742,0.010342307372001605,0.011167434880848176,0.01604825917792251,0.0618878185956039,0.009606084918396872,0.03198143172868898
0.135,0.0013562848121366992,0.025797097787467416,0.010377969376877799,0.011196107877666261,0.016108363815913372,0.061893474789864185,0.009483701160444936,0.032066164767581624
0.1354655,0.0013495059457806172,0.025839935439724515,0.01041356047793855,0.011225038115186643,0.01616776710135634,0.06189811488598693,0.009362199058720468,0.032150150573961644
0.135931,0.0013427619364996006,0.025881235190787968,0.010449063124588967,0.01125422689635152,0.01622644608997008,0.06190175377393004,0.009241588751653158,0.03223337930200197
0.1363966,0.0013360518043126625,0.025920984571104415,0.01048445970590193,0.011283675422530878,0.016284377932141544,0.06190440619982559,0.009121880043088082,0.03231584107948274
0.1368621,0.0013293745590340024,0.02595917132208397,0.010519732556529571,0.011313384792485195,0.0163415398828407,0.06190608675841159,0.009003082404604849,0.03239752600927606
0.1373276,0.0013227292010942681,0.025995783401449524,0.010554863962654482,0.01134335600134928,0.016397909311518247,0.061906809885579187,0.008885204977903696,0.032478424170902055
0.1377931,0.0013161147223672964,0.02603080898859484,0.010589836167979476,0.011373589939639314,0.016453463711981885,0.06190658985104255,0.008768256577256541,0.032558525622156866
0.1382586,0.0013095301070021258,0.026064236489948586,0.010624631379754706,0.011404087392285031,0.01650818071224651,0.06190544075113883,0.008652245692020876,0.032637820400813373
0.1387241,0.0013029743322600783,0.026096054544341052,0.010659231774840922,0.011434849037689083,0.016562038084353865,0.06190337650176485,0.008537180489214372,0.03271629852639494
0.1391897,0.0012964463693566984,0.026126252028370323,0.010693619505807574,0.01146587544681544,0.01661501375415694,0.06190041083145701,0.00842306881614805,0.03279395000202237
0.1396552,0.0012899451843083444,0.026154818061764347,0.010727776707064414,0.011497167082308721,0.01666708581106431,0.0618965572746208,0.008309918203115803,0.03287076481633425
0.1401207,0.0012834697387832212,0.026181742012735182,0.010761685501025143,0.011528724297646335,0.01671823251773967,0.061891829164915965,0.00819773586613808,0.032946732945480554
0.1405862,0.0012770189909566394,0.02620701350332163,0.0107953280043016,0.011560547336325219,0.01676843231975145,0.061886239628803505,0.008086528709757583,0.033021844355189366
0.1410517,0.0012705918963702852,0.026230622414716256,0.010828686333926944,0.011592636331084927,0.016817663855167475,0.06187980157926051,0.007976303329884792,0.03309608900290623
0.1415172,0.0012641874087952825,0.026252558892572952,0.010861742613606238,0.011624991303168802,0.016865905964089416,0.06187252770966828,0.007867066016691281,0.03316945684000595
0.1419828,0.001257804481098831,0.026272813352290925,0.010894478979992876,0.011657612161624885,0.016913137698121795,0.06186443048787917,0.007758822757548796,0.0332419378140764
0.1424483,0.0012514420661142017,0.026291376484271024,0.010926877588989244,0.01169049870264816,0.016959338329770222,0.06185552215046711,0.007651579240012221,0.03331352187127435
0.1429138,0.0012450991175138777,0.026308239259140193,0.010958920622069959,0.011723650608965673,0.017004487361763722,0.061845814697166365,0.007545340854844658,0.03338419895875326
0.1433793,0.0012387745906856323,0.026323392932939622,0.010990590292626046,0.011757067449265926,0.017048564536295892,0.06183531988550303,0.007440112699082921,0.03345395902716354
0.1438448,0.0012324674436113322,0.02633682905227211,0.011021868852328413,0.011790748677673915,0.017091549844179755,0.061824049225622874,0.007335899579141899,0.033522792033225404
0.1443103,0.0012261766377482583,0.02634853945940398,0.01105273859750889,0.011824693633273028,0.0171334235339111,0.06181201397531941,0.007232706013956204,0.03359068794237466
0.1447759,0.0012199011389127316,0.0263585162973167,0.011083181875557221,0.011858901539674959,0.017174166120635086,0.06179922513526532,0.0071305362381576245,0.03365763673148143
0.1452414,0.0012136399181658364,0.026366752014703385,0.011113181091332382,0.011893371504638707,0.017213758395010794,0.061785693444450195,0.007029394205286844,0.033723628391641815
0.1457069,0.0012073919527010291,0.02637323937090514,0.011142718713586675,0.011928102519739588,0.017252181431968463,0.06177142937582718,0.006929283591037867,0.0337886529310421
0.1461724,0.001201156226733427,0.026377971440782213,0.011171777281401065,0.011963093460089115,0.01728941659935417,0.06175644313217072,0.006830207796533642,0.03385270037789496
0.1466379,0.0011949317323905735,0.026380941619515007,0.01120033941063023,0.011998343084106557,0.017325445566456817,0.06174074464214707,0.006732169951631384,0.03391576078344702
0.1471034,0.0011887174706044733,0.026382143627329876,0.011228387800355824,0.012033850033342779,0.017360250312412506,0.06172434355659864,0.006635172918256158,0.033977824225056796
0.147569,0.0011825124520046994,0.02638157151414487,0.011255905239346359,0.012069612832357007,0.017393813134481476,0.06170724924504326,0.006539219293761411,0.03403888080934177
0.1480345,0.0011763156978123724,0.026379219664130506,0.011282874612522122,0.012105629888646986,0.01742611665619285,0.06168947079238875,0.006444311414315176,0.034098920675393225
0.1485,0.0011701262407348085,0.026375082800180746,0.01130927890742348,0.012141899492632991,0.017457143835352504,0.06167101699586359,0.006350451358310808,0.034157933998057256
0.1489655,0.0011639431258606407,0.026369155988289077,0.011335101220681043,0.012178419817696023,0.017486877971909433,0.06165189636216413,0.006257640949801128,0.03421591099128013
0.149431,0.0011577654115552088,0.026361434641824753,0.011360324764486146,0.012215188920270494,0.017515302715675966,0.06163211710481911,0.006165881761954925,0.03427284191151609
0.1498966,0.0011515921703560146,0.026351914525703787,0.011384932873060324,0.01225220473999161,0.017542402073897418,0.061611687141772314,0.006075175120534784,0.03432871706119534
0.1503621,0.0011454224898680306,0.02634059176044939,0.011408909009122451,0.012289465099897564,0.017568160418666826,0.061590614093184046,0.005985522107395242,0.03438352679225002
0.1508276,0.0011392554736586486,0.0263274628261363,0.011432236770352402,0.01232696770668659,0.017592562494180508,0.06156890527945219,0.005896923564000308,0.03443726150969548
0.1512931,0.001133090242152042,0.026312524566213292,0.011454899895850074,0.012364710151028822,0.01761559342383018,0.061546567719453237,0.005809380094959393,0.03448991167526443
0.1517586,0.0011269259335227155,0.026295774191198093,0.011476882272588676,0.012402689907932777,0.017637238717127638,0.061523608129003565,0.005722892071580755,0.03454146781109131
0.1522241,0.0011207617045880006,0.026277209282238853,0.011498167941861178,0.012440904337166268,0.01765748427645793,0.061500032919541404,0.005637459635441553,0.03459192050344384
0.1526897,0.00111459673169925,0.02625682779453626,0.011518741105718823,0.012479350683731452,0.0176763164036573,0.06147584819702987,0.005553082701973621,0.03464126040649897
0.1531552,0.0011084302116314752,0.02623462806062062,0.011538586133400586,0.012518026078393609,0.017693721806412172,0.061451059761081644,0.005469760964064079,0.03468947824615974
0.1536207,0.0011022613624711653,0.026210608793478408,0.011557687567752379,0.012556927538263206,0.01770968760447555,0.061425673104306334,0.005387493895669847,0.03473656482390974
0.1540862,0.0010960894245020155,0.02618476908952301,0.011576030131634782,0.012596051967430705,0.017724201335697215,0.06139969341188148,0.005306280755445101,0.034782511020701484
0.1545517,0.0010899136610882905,0.026157108431404702,0.011593598734317975,0.01263539615765355,0.01773725096186428,0.06137312556134807,0.0052261205903807425,0.034827307800875215
0.1550172,0.0010837333595555372,0.026127626690655294,0.011610378477862516,0.012674956789094692,0.0177488248743487,0.06134597412263139,0.0051470122394548555,0.03487094621610419
0.1554828,0.0010775478320683633,0.026096324130163155,0.01162635466348462,0.012714730431112039,0.017758911899558635,0.06131824335828768,0.005068954337293182,0.03491341740936293
0.1559483,0.0010713564165049836,0.02606320140647443,0.011641512797904518,0.012754713543098178,0.0177675013041907,0.06128993722397695,0.004991945317838628,0.03495471261891462
0.1564138,0.0010651584773282326,0.026028259571916557,0.01165583859967647,0.012794902475369739,0.017774582800280467,0.06126105936916179,0.0049159834180288195,0.03499482318231402
0.1568793,0.001058953406452747,0.025991500076539987,0.01166931800549897,0.01283529347010577,0.017780146550048625,0.061231613138031854,0.004841066681480738,0.03503374054042211
0.1573448,0.0010527406241080193,0.025952924769874132,0.011681937176503553,0.012875882662334524,0.017784183170540254,0.061201601570653276,0.00476719296218149,0.03507145624142903
0.1578103,0.0010465195796970333,0.02591253590249337,0.01169368250452071,0.012916666080967991,0.017786683738054896,0.061171027404341785,0.004694359928184293,0.035107961944881375
0.1582759,0.0010402897526502022,0.025870336127388784,0.01170454061832143,0.012957639649883609,0.017787639792365192,0.06113989307525804,0.004622565065308779,0.03514324942571008
0.1587414,0.0010340506532743369,0.02582632850114147,0.011714498389832939,0.01299879918905249,0.01778704334072215,0.06110820072022329,0.004551805680844768,0.03517731057825499
0.1592069,0.0010278018235963743,0.025780516484893354,0.011723542940327297,0.013040140415713566,0.0177848868616454,0.061075952178753015,0.0044820789072587104,0.035210137420282235
0.1596724,0.001021542838201598,0.02573290394511184,0.011731661646581673,0.013081658945592987,0.017781163308497147,0.061043148995305836,0.004413381705902052,0.03524172209699039
0.1601379,0.00101527330506608,0.025683495154145277,0.01173884214700919,0.013123350294168033,0.017775866112838865,0.06100979242174491,0.004345710870720787,0.03527205688500146
0.1606034,0.0010089928663830749,0.0256322947905668,0.011745072347759318,0.013165209877974735,0.017768989187569927,0.06097588342000859,0.004279063031965501,0.03530113419633263
0.161069,0.001002701199383097,0.025579307939305147,0.011750340428786898,0.013207233015958369,0.017760526929847684,0.06094142266498697,0.0042134346599011835,0.0353289465823449
0.1615345,0.0009963980171474025,0.02552454009156177,0.011754634849888895,0.013249414930865847,0.017750474223788778,0.060906410547600584,0.004148822068516109,0.03535548673766471
0.162,0.0009900830694145966,0.025467997144514518,0.011757944356708076,0.013291750750679062,0.017738826442951716,0.06087084717807707,0.004085221419229053,0.035380747504074786
0.1624655,0.0009837561433800796,0.025409685400808946,0.011760257986702742,0.013334235510088145,0.01772557945260079,0.060834732389421275,0.004022628724594126,0.035404721874370444
0.162931,0.0009774170644880405,0.02534961156783889,0.011761565075081698,0.01337686415200361,0.01771072961175157,0.06079806574107395,0.003961039852002489,0.03542740299617785
0.1633966,0.0009710656972156953,0.02528778275681837,0.011761855260703538,0.0134196315291063,0.017694273774998298,0.06076084652275388,0.0039004505273801723,0.035448784175730885
0.1638621,0.0009647019458494657,0.02522420648164698,0.011761118491939369,0.013462532405434026,0.0176762092941234,0.06072307375847788,0.0038408563388812153,0.035468858881603504
0.1643276,0.0009583257552527795,0.0251588906575711,0.011759345032498002,0.013505561458003737,0.01765653401948954,0.06068474621075275,0.003782252740575297,0.03548762074839474
0.1647931,0.000951937111625172,0.025091843599643365,0.01175652546721272,0.013548713278468074,0.017635246301214415,0.06064586238493308,0.0037246350561290216,0.0355050635803634
0.1652586,0.0009455360432523592,0.025023074020983072,0.011752650707788585,0.013591982374805182,0.017612344990128672,0.0606064205337383,0.0036679984824799865,0.035521181355009736
0.1657241,0.0009391226212469536,0.024952591030840295,0.01174771199850928,0.01363536317304068,0.017587829438517402,0.060566418661922215,0.0036123380935027486,0.03553596822660173
0.1661897,0.0009326969602794932,0.024880404132466918,0.011741700921902383,0.013678850019000724,0.017561699500645792,0.06052585453108782,0.0035576488436657745,0.0355494185296436
0.1666552,0.0009262592192994545,0.024806523220798123,0.011734609404361862,0.013722437180095186,0.01753395553306972,0.060484725664639985,0.0035039255716784803,0.035561526782284546
0.1671207,0.0009198096022459222,0.024730958579948153,0.011726429721726519,0.01376611884712997,0.017504598394732243,0.06044302935286907,0.0034511630041274637,0.03557228768966589
0.1675862,0.0009133483587475818,0.024653720880524387,0.011717154504813058,0.013809889136147453,0.017473629446846935,0.06040076265815789,0.0033993557591010764,0.035581696147204876
0.1680517,0.0009068757848116998,0.02457482117676396,0.01170677674490231,0.013853742090294099,0.017441050552569313,0.060357922420305285,0.0033484983498015433,0.03558974724381366
0.1685172,0.0009003922235017574,0.024494270903497335,0.011695289799177106,0.013897671681714168,0.017406864076457796,0.06031450526195919,0.0032985851881438743,0.03559643626505191
0.1689828,0.0008938980656034032,0.0244120818729432,0.011682687396110178,0.013941671813468358,0.017371072883726066,0.0602705075941526,0.003249610588340883,0.03560175869621148
0.1694483,0.0008873937502783926,0.024328266271339286,0.01166896364080038,0.013985736321476214,0.017333680339289125,0.06022592562193616,0.003201568770473637,0.03560571022533154
0.1699138,0.0008808797657061828,0.02424283665541355,0.01165411302025551,0.014029858976481027,0.017294690306605822,0.060180755350101686,0.003154453864046703,0.035608286746142526
0.1703793,0.0008743566497128547,0.024155805948700117,0.011638130408619858,0.014074033486035854,0.01725410714632084,0.060134992588991805,0.0031082599115275465,0.03560948436093738
0.1708448,0.0008678249903870344,0.024067187437704494,0.0116210110723446,0.014118253496509211,0.017211935714709352,0.060088632960391165,0.0030629808718694892,0.03560929938336864
0.1713103,0.0008612854266825069,0.02397699476792225,0.011602750675298982,0.014162512595108971,0.01716818136192749,0.06004167190349558,0.0030186106240176623,0.035607728341170077
0.1717759,0.0008547386490072255,0.023885241939715453,0.011583345283820271,0.014206804311922899,0.017122849930071758,0.059994104680954986,0.0029751429703974504,0.035604767978801584
0.1722414,0.000848185399798443,0.023791943304050954,0.011562791371700272,0.014251122121974397,0.017075947751050504,0.05994592638498586,0.0029325716403849605,0.035600415260016005
0.1727069,0.0008416264740836952,0.023697113558104603,0.011541085825106217,0.014295459447292007,0.01702748164427043,0.05989713194354861,0.002890890293759098,0.03559466737034646
0.1731724,0.0008350627200273807,0.023600767740735266,0.011518225947433803,0.014339809658991377,0.01697745891414133,0.059847716126584835,0.002850092524134865,0.03558752171951241
0.1736379,0.0008284950394626739,0.023502921227832565,0.011494209464090153,0.014384166079368387,0.01692588734740223,0.059797673552309,0.002810171862377495,0.03557897594374273
0.1741034,0.0008219243884085058,0.02340358972754211,0.011469034527204441,0.01442852198400213,0.016872775210272188,0.059746998693548686,0.0027711217799970323,0.035569027908013744
0.174569,0.0008153517775713515,0.02330278927537181,0.011442699720263905,0.01447287060386649,0.0168181312454292,0.05969568588412707,0.002732935692522962,0.03555767570820024
0.1750345,0.0008087782728315562,0.023200536229182823,0.011415204062672938,0.014517205127449133,0.01676196466882063,0.05964372932528099,0.002695606962858477,0.03554491767313743
0.1755,0.0008022049957139349,0.023096847264068465,0.011386547014232935,0.014561518702876714,0.016704285166308914,0.05959112309210765,0.0026591289046139616,0.035530752366592186
0.1759655,0.0007956331238423718,0.022991739367124436,0.011356728479540489,0.014605804440045266,0.016645102890156437,0.05953786114003293,0.002623494785419237,0.03551517858914188
0.176431,0.000789063891378146,0.022885229832113343,0.01132574881230154,0.014650055412754812,0.01658442845535377,0.05948393731129433,0.0025886978302141154,0.035498195379959664
0.1768966,0.0007824985894417068,0.022777336254026444,0.011293608819559072,0.014694264660847384,0.01652227293579555,0.05942934534143229,0.0025547312245167817,0.03547980201850479
0.1773621,0.0007759385665176175,0.022668076523545348,0.011260309765831927,0.01473842519234776,0.016458647860308415,0.05937407886578353,0.0025215881176695295,0.03545999802611692
0.1778276,0.0007693852288423896,0.02255746882140618,0.011225853377162394,0.0147825299856063,0.016393565208535563,0.05931813142597113,0.0024892616260613534,0.03543878316751301
0.1782931,0.0007628400407749297,0.02244553161266859,0.011190241845070163,0.014826571991443301,0.01632703740668265,0.059261496476385664,0.0024577448363269088,0.03541615745218555
0.1787586,0.0007563045251493334,0.02233228364089196,0.011153477830410322,0.014870544135294294,0.01625907732312986,0.05920416739065257,0.0024270308085213195,0.0353921211357007
0.1792241,0.0007497802636097654,0.02221774392222101,0.011115564467133061,0.014914439319355625,0.016189698263915305,0.05914613746808045,0.0023971125792703087,0.03536667472089498
0.1796897,0.0007432688969271747,0.022101931739383178,0.011076505365942776,0.014958250424729605,0.01611891396809492,0.059087399940085404,0.0023679831648951146,0.03533981895896935
0.1801552,0.000736772125297604,0.021984866635600075,0.011036304617854313,0.015001970313568503,0.01604673860298426,0.05902794797658602,0.002339635564511635,0.035311554850479494
0.1806207,0.0007302917086218663,0.021866568408415544,0.01099496679764408,0.015045591831216624,0.01597318675928758,0.058967774692363986,0.002312062763103242,0.035281883646221736
0.1810862,0.0007238294667663713,0.021747057103442716,0.01095249696719377,0.015089107808349718,0.01589827344611954,0.05890687315338511,0.0022852577345667084,0.03525080684801428
0.1815517,0.0007173872798048918,0.02162635300803254,0.01090890067872437,0.015132511063111007,0.015822014085924894,0.05884523638307535,0.0022592134447306646,0.03521832620937387
0.1820172,0.0007109670882410594,0.02150447664486609,0.010864183977918133,0.015175794403243209,0.015744424509301348,0.05878285736854692,0.0022339228543460325,0.035184443736088394
0.1824828,0.0007045708932113792,0.021381448765472755,0.01081835340692623,0.015218950628216068,0.01566552094973076,0.058719729066769484,0.002209378922047869,0.03514916168668602
0.1829483,0.0006982007566685531,0.02125729034367652,0.010771416007259713,0.015261972531349016,0.01558532003822371,0.05865584441068226,0.002185574607288081,0.03511248257280155
0.1834138,0.0006918588015448976,0.021132022568972127,0.010723379322561606,0.015304852901928647,0.015503838797882299,0.0585911963152435,0.0021625028732384912,0.03507440915944082
0.1838793,0.0006855472118956444,0.021005666839833136,0.010674251401258102,0.015347584527320815,0.015421094638386024,0.05852577768341401,0.0021401566896637513,0.03503494446514375
0.1843448,0.0006792682330219153,0.020878244756953834,0.010624040799087053,0.015390160195077144,0.015337105350405384,0.05845958141207198,0.0021185290357636113,0.03499409176204678
0.1848103,0.000673024171573169,0.02074977811642723,0.010572756581502179,0.015432572695035679,0.015251889099947765,0.05839260039785617,0.002097612902984075,0.034951854575845265
0.1852759,0.000666817395628929,0.020620288902861713,0.010520408325951703,0.015474814821415411,0.015165464422640097,0.058324827542933985,0.002077401297796974,0.03490823668565619
0.1857414,0.0006606503347596119,0.020489799282439353,0.010467006124030256,0.015516879374904258,0.015077850217952589,0.05825625576069105,0.002057887244447491,0.03486324212378136
0.1862069,0.0006545254800662868,0.020358331595919307,0.010412560583503025,0.015558759164739954,0.014989065743367795,0.05818687798133831,0.0020390637876691693,0.03481687517537105
0.1866724,0.0006484453841992027,0.02022590835159035,0.01035708283020115,0.015600447010783268,0.014899130608499121,0.05811668715743339,0.0020209239953659455,0.03476914037798776
0.1871379,0.0006424126613549186,0.02009255221817674,0.01030058450978736,0.01564193574558287,0.014808064769162733,0.05804567626931344,0.0020034609612607614,0.03472004252106991
0.1876034,0.0006364299872518742,0.019958286017701905,0.010243077789390851,0.015683218216431184,0.01471588852140677,0.05797383833043737,0.0019866678075103456,0.034669586645294785
0.188069,0.0006305000990842337,0.019823132718314478,0.010184575359110404,0.015724287287410606,0.014622622495501576,0.05790116639263695,0.001970537687285775,0.034617778041840346
0.1885345,0.0006246257954538369,0.01968711542708117,0.010125090433384809,0.015765135841429495,0.014528287649894531,0.057827653551276344,0.0019550637873184647,0.03456462225154519
0.189,0.0006188099362800906,0.019550257382750836,0.010064636752229638,0.015805756782247504,0.014432905265132988,0.05775329295032051,0.0019402393304112648,0.0345101250639663
0.1894655,0.000613055442687638,0.01941258194849407,0.01000322858233948,0.01584614303648972,0.014336496937758625,0.05767807778731252,0.0019260575779143619,0.03445429251633436
0.189931,0.0006073652968716423,0.019274112604622643,0.009940880718054662,0.015886287555649206,0.014239084574176497,0.05760200131826044,0.0019125118321657209,0.03439713089240643
0.1903966,0.0006017425419405261,0.019134872941293065,0.009877608482191505,0.015926183318077387,0.01414069038450186,0.05752505686243367,0.0018995954388958132,0.034338646721216025
0.1908621,0.0005961902817360115,0.01899488665119851,0.00981342772673506,0.015965823330961786,0.014041336876387847,0.0574472378070691,0.0018873017895964014,0.03427884677572086
0.1913276,0.0005907116806303068,0.018854177522253254,0.0097483548333932,0.0160052006322906,0.013941046848836855,0.05736853761198674,0.0018756243238531643,0.03421773807134853
0.1917931,0.0005853099633003006,0.01871276943027385,0.009682406714010904,0.01604430829280374,0.013839843385998493,0.05728894981411542,0.001864556531641965,0.03415532786444087
0.1922586,0.0005799884144786248,0.01857068633166114,0.009615600810843488,0.01608313941793008,0.013737749850956774,0.05720846803192894,0.001854091955588571,0.03409162365059766
0.1927241,0.0005747503786814542,0.01842795225608713,0.009547955096687474,0.01612168714971082,0.013634789879509153,0.05712708596979427,0.001844224193191645,0.0340266331629207
0.1931897,0.0005695992599129153,0.01828459129919063,0.009479488074867704,0.016159944668709025,0.013530987373939842,0.057044797422233666,0.001834946899008819,0.03396036437015925
0.1936552,0.0005645385213459781,0.018140627615285468,0.009410218779079303,0.016197905195905363,0.013426366496789754,0.05696159627810255,0.0018262537868056607,0.03389282547475804
0.1941207,0.0005595716849797211,0.01799608541008504,0.009340166773083067,0.016235561994580087,0.013320951664625305,0.056877476524685396,0.0018181386316673286,0.0338240249108089
0.1945862,0.0005547023312728753,0.017850988933446686,0.009269352150252772,0.01627290837218133,0.01321476754180819,0.056792432251710885,0.00181059527207271,0.033753971341907385
0.1950517,0.0005499340987535793,0.01770536247213937,0.009197795532972881,0.016309937682179802,0.01310783903426809,0.0567064576552879,0.001803617611930818,0.03368267365891533
0.1955172,0.0005452706836053,0.01755923034263803,0.009125518071885092,0.016346643325910026,0.013000191283280213,0.056619547041763224,0.0017971996225792303,0.03361014097763027
0.1959828,0.0005407158392288987,0.017412616883947817,0.009052541444982068,0.016383018754398408,0.012891849659249471,0.056531694831501694,0.0017913353447443485,0.03353638263636254
0.1964483,0.0005362733757808385,0.017265546450461338,0.00897888785654662,0.016419057470178477,0.012782839755502968,0.056442895562589225,0.0017860188904632607,0.03346140819342053
0.1969138,0.0005319471596875408,0.017118043404851936,0.008904580035934574,0.016454753029093692,0.012673187382092447,0.05635314389445868,0.0017812444449669964,0.03338522742450457
0.1973793,0.0005277411131359067,0.016970132111005856,0.008829641236199422,0.016490099042088174,0.012562918559608232,0.05626243461143842,0.001777006268524967,0.033307850320009796
0.1978448,0.0005236592135400187,0.016821836926996132,0.008754095232556873,0.016525089176985707,0.01245205951300612,0.056170762626223225,0.001773298698250405,0.03322928708223808
0.1983103,0.0005197054929840432,0.01667318219810087,0.008677966320687265,0.016559717160257222,0.012340636665448549,0.056078122983267115,0.0017701161498666234,0.033149548122519384
0.1987759,0.0005158840376413541,0.01652419224986856,0.008601279314873844,0.016593976778776904,0.012228676632161322,0.05598451086209769,0.0017674531194339436,0.033068644058242634
0.1992414,0.0005121989871699035,0.016374891381232957,0.008524059545974762,0.016627861881567046,0.012116206214307057,0.055889921580551546,0.0017653041850371526,0.03298658570979629
0.1997069,0.0005086545340838696,0.016225303857680003,0.008446332859226672,0.016661366381531643,0.01200325239287648,0.05579435059792996,0.0017636640084333702,0.032903384097418595
0.2001724,0.0005052549231016105,0.016075453904469295,0.008368125611877726,0.0166944842571787,0.01188984232259857,0.05569779351807397,0.0017625273366602325,0.032819050437957596
0.2006379,0.0005020044504699527,0.015925365699912486,0.008289464670647763,0.01672720955433113,0.011776003325870511,0.05560024609235729,0.0017618890036043158,0.03273359614154087
0.2011034,0.0004989074632648441,0.015775063368711092,0.008210377409013406,0.01675953638782615,0.011661762886708284,0.05550170422259558,0.0017617439315297462,0.03264703280815483
0.201569,0.0004959683586683947,0.015624570975355996,0.008130891704315787,0.016791458943203004,0.011547148644718622,0.05540216396387028,0.0017620871325669549,0.032559372224133507
0.2020345,0.0004931915832223349,0.01547391251759099,0.008051035934688524,0.016822971478378648,0.011432188389093002,0.05530162152726483,0.0017629137101615332,0.03247062635855674
0.2025,0.0004905816320579169,0.015323111919942541,0.007970838975803557,0.016854068325311115,0.011316910052624234,0.055200073282511024,0.0017642188604831276,0.032380807359557576
0.2029655,0.00048814304810229474,0.015172193027317819,0.007890330197432347,0.016884743891649984,0.011201341705746149,0.05509751576054298,0.0017659978737943156,0.03228992755053903
0.203431,0.0004858804212614224,0.015021179598672987,0.007809539459819947,0.016914992662373354,0.01108551155059679,0.05499394565595597,0.001768246135779394,0.032197999426300715
0.2038966,0.0004837983875795154,0.014870095300753606,0.007728497109869423,0.016944809201410563,0.010969447915105469,0.054889359829367275,0.0017709591288329989,0.03210503564907633
0.2043621,0.0004819016283751365,0.014718963701908986,0.007647233977134159,0.016974188153249803,0.010853179247103993,0.05478375530967585,0.0017741324333084727,0.03201104904448357
0.2048276,0.00048019486935397464,0.0145678082659822,0.0075657813696155905,0.017003124244529655,0.010736734108462275,0.05467712929621767,0.001777761728725882,0.031916052597388424
0.2052931,0.00047868287969839255,0.014416652346277403,0.007484171069364153,0.017031612285613448,0.010620141169248525,0.05456947916081362,0.0017818427949395736,0.03182005944768632
0.2057586,0.00047737047113383173,0.014265519179606074,0.0074024353278813425,0.017059647172145222,0.010503429201914116,0.05446080244970736,0.001786371513265159,0.03172308288600301
0.2062241,0.0004762624969721714,0.014114431880413628,0.007320606861321118,0.017087223886585963,0.01038662707550321,0.05435109688539109,0.0017913438675658034,0.03162513634931889
0.2066897,0.00047536385113215404,0.013963413434987816,0.007238718845489115,0.017114337499728634,0.01026976374988708,0.05424036036831752,0.0017967559452977055,0.03152623341652144
0.2071552,0.00047467946713700566,0.01381248669575026,0.007156804910638407,0.017140983172190507,0.010152868270023091,0.054128590978496524,0.001802603938514667,0.03142638780389066
0.2076207,0.0004742143170893995,0.013661674375632395,0.0070748991360608,0.017167156155881123,0.010035969760238251,0.05401578697697483,0.0018088841448316774,0.03132561336052303
0.2080862,0.0004739734106239306,0.013510999042537076,0.006993036044472853,0.017192851795444154,0.009919097418537156,0.05390194680719691,0.0018155929683474547,0.031223924063699445
0.2085517,0.00047396179383728466,0.013360483113887033,0.0069112505961959605,0.01721806552967136,0.009802280510934082,0.05378706909624553,0.001822726920525917,0.031121334014202716
0.2090172,0.0004741845481962988,0.013210148851261424,0.006829578183129918,0.017242792892886764,0.009685548365808979,0.05367115265596049,0.0018302826210365609,0.031017857431590166
0.2094828,0.0004746467894241295,0.013060018355121711,0.0067480546225194525,0.01726702951629911,0.009568930368287,0.053554196483934696,0.0018382567985537608,0.030913508649427095
0.2099483,0.00047535366636475767,0.012910113559628154,0.006666716150513222,0.017290771129320634,0.009452455954641165,0.05343619976438736,0.0018466462915150068,0.030808302110486713
0.2104138,0.0004763103598260846,0.01276045622754814,0.00658559941551482,0.01731401356085016,0.00933615460671772,0.05331716186891493,0.0018554480488381204,0.030702252361922318
0.2108793,0.0004775220814018914,0.012611067945257596,0.006504741471325392,0.01733675274051853,0.009220055846383673,0.05319708235712088,0.0018646591305975023,0.030595374050417422
0.2113448,0.0004789940722729552,0.012461970117836682,0.006424179770077624,0.017358984699894348,0.009104189229995922,0.05307596097712629,0.0018742767086594699,0.030487681917319487
0.2118103,0.00048073160198762856,0.012313183964260923,0.006343952154961069,0.01738070557364829,0.008988584342891353,0.05295379766596431,0.0018842980672767445,0.03037919079376282
0.2122759,0.000482739967222203,0.012164730512688774,0.006264096852739115,0.01740191160067425,0.008873270793897164,0.052830592549863206,0.0018947206036421377,0.03026991559578623
0.2127414,0.0004850244905213815,0.012016630595846655,0.0061846524660582325,0.017422599125166013,0.008758278209860611,0.05270634594442343,0.001905541828401483,0.03015987131945077
0.2132069,0.00048759051901918916,0.011868904846512332,0.006105657965550605,0.01744276459764817,0.008643636230197321,0.05258105835469521,0.0019167593661258496,0.03004907303596293
0.2136724,0.0004904434231406529,0.011721573693097523,0.006027152681731691,0.01746240457596025,0.008529374501457276,0.05245473047516356,0.0019283709557430698,0.029937535886808638
0.2141379,0.00049358859528458,0.011574657355330562,0.005949176296694741,0.01748151572619316,0.00841552267190753,0.05232736318964775,0.0019403744509286069,0.029825275078903184
0.2146034,0.0004970314484877659,0.011428175840039936,0.005871768835604632,0.017500094823577023,0.008302110386130728,0.052198957571122466,0.0019527678204557847,0.029712305879762223
0.215069,0.0005007774150709592,0.011282148937039455,0.005794970657993675,0.01751813875331939,0.008189167279638494,0.05206951488146748,0.001965549148505409,0.029598643612698664
0.2155345,0.0005048319452669112,0.011136596215115827,0.005718822448862272,0.017535644511392875,0.008076722973498773,0.051939036571152904,0.0019787166349348145,0.02948430365205012
0.216,0.0005092005058308359,0.010991537018119267,0.0056433652095873475,0.01755260920527124,0.007964807068976357,0.05180752427886667,0.0019922685955064004,0.029369301418441268
0.2164655,0.0005138885786336011,0.01084699046115777,0.005568640248641587,0.01756903005461289,0.007853449142185892,0.0516749798310905,0.002006203462075743,0.02925365237408529
0.216931,0.0005189016592379737,0.010702975426895535,0.0054946891721264855,0.017584904391890938,0.00774267873875687,0.051541405241630596,0.002020519782739411,0.029137372018128216
0.2173966,0.0005242452554582471,0.010559510561955978,0.005421553874122206,0.017600229662969154,0.007632525368510197,0.05140680271110907,0.002035216221942642,0.02902047588203983
0.2178621,0.0005299248859035874,0.010416614273429704,0.005349276526857227,0.01761500342762327,0.007523018500146035,0.051271174626421626,0.0020502915605470633,0.028902979525054454
0.2183276,0.000535946078505445,0.010274304725487645,0.005277899570700766,0.017629223360007412,0.007414187555942742,0.05113452356016692,0.002065744695858686,0.028784898529664753
0.2187931,0.0005423143690293962,0.010132599836099621,0.0052074657039809435,0.017642887249065667,0.007306061906466866,0.05099685227005297,0.002081574641616413,0.028666248497171493
0.2192586,0.0005490352995717902,0.009991517273858446,0.005138017872631713,0.01765599299888924,0.007198670865294298,0.050858163698285774,0.0020977805279413313,0.028547045043291856
0.2197241,0.0005561144170415771,0.009851074454909733,0.005069599259671606,0.017668538629019907,0.007092043683742931,0.05071846097094522,0.002114361601247087,0.02842730379382883
0.2201897,0.0005635572716277004,0.009711288539987489,0.005002253274517379,0.01768052227470077,0.006986209545617294,0.05057774739735317,0.00213131722411165,0.02830704038040387
0.2206552,0.0005713694152524389,0.00957217643155562,0.004936023542135739,0.017691942187075666,0.006881197561965759,0.05043602646943813,0.0021486468751107895,0.028186270436255004
0.2211207,0.0005795564000110836,0.009433754771055434,0.004870953892036382,0.017702796733338445,0.006777036765851008,0.0502933018611009,0.002166350148613582,0.028065009592102258
0.2215862,0.0005881237765983386,0.009296039936259225,0.00480708834710967,0.017713084396833393,0.006673756107134405,0.05014957742758533,0.0021844267545402564,0.027943273472082128
0.2220517,0.0005970770927218381,0.009159048038729982,0.004744471112312392,0.017722803777108068,0.006571384447274976,0.05000485720485777,0.0022028765180826955,0.027821077689752536
0.2225172,0.0006064218915031708,0.009022794921387245,0.004683146563205105,0.017731953589919712,0.0064699505541436445,0.049859145408998724,0.002221699379387896,0.027698437844169563
0.2229828,0.0006161637098668068,0.008887296156179099,0.004623159234344656,0.0177405326671963,0.006369483096853397,0.04971244643560996,0.0022408953932046773,0.027575369516036972
0.2234483,0.0006263080769173257,0.008752567041860223,0.004564553807535505,0.017748539956953385,0.00627001064060601,0.049564764859239684,0.002260464728493926,0.027451888263929452
0.2239138,0.0006368605123053394,0.0086186226018759,0.00450737509994353,0.017755974523167812,0.0061715616415559706,0.04941610543282837,0.0022804076680026488,0.027328009620590208
0.2243793,0.000647826524582506,0.008485477582351833,0.004451668052075997,0.01776283554560938,0.006074164441692208,0.0492664730871772,0.002300724607802104,0.027203749089303515
0.2248448,0.0006592116095460249,0.008353146450189594,0.004397477715631435,0.017769122319631514,0.005977847263738253,0.04911587293044104,0.002321416056790272,0.027079122140342467
0.2253103,0.0006710212485729988,0.008221643391267451,0.004344849241223139,0.017774834255921974,0.0058826382060714315,0.048964310247647705,0.002342482636158933,0.026954144207492224
0.2257759,0.0006832609069450463,0.008090982308746266,0.004293827865980079,0.017779970880214626,0.005788565237661721,0.04881179050024511,0.0023639250788256194,0.026828830684648735
0.2262414,0.0006959360321635453,0.007961176821480119,0.0042444589010289715,0.017784531832963354,0.005695656193030915,0.04865831932567782,0.0023857442288307057,0.026703196922492848
0.2267069,0.0007090520522558897,0.007832240262531225,0.004196787718861286,0.01778851686897933,0.005603938767232769,0.04850390253699422,0.002407941040699922,0.026577258225239504
0.2271724,0.0007226143740731434,0.007704185677788699,0.00415085974058896,0.017791925857032754,0.005513440510854798,0.04834854612248539,0.0024305165787725917,0.026451029847461484
0.2276379,0.0007366283815794859,0.00757702582469061,0.0041067204230925405,0.017794758779420227,0.005424188825042413,0.04819225624535639,0.002453472016495926,0.026324526990987127
0.2281034,0.0007510994341338453,0.0074507731710487905,0.00406441524606547,0.017797015731499014,0.005336210956546056,0.048035039243430486,0.002476808635685751,0.026197764801871307
0.228569,0.0007660328647641235,0.007325439893975787,0.004023989698958196,0.017798696921189315,0.005249533992792005,0.04787690162888644,0.0025005278257540665,0.026070758367438853
0.2290345,0.0007814339784344164,0.007201037878913339,0.003985489267825791,0.017799802668445622,0.005164184856977485,0.04771785008802875,0.00252463108290386,0.02594352271339966
0.2295,0.0007973080503056369,0.007077578718761705,0.003948959422082708,0.01780033340469818,0.005080190303190794,0.047557891481090214,0.0025491200092916063,0.025816072801034855
0.2299655,0.0008136603239899503,0.006955073713109129,0.003914445601168345,0.01780028967226548,0.004997576911557145,0.04739703284206639,0.0025739963121579057,0.025688423524453607
0.230431,0.0008304960097994377,0.006833533867560727,0.003881993201127045,0.017799672123738626,0.004916371083411067,0.04723528137858051,0.0025992618029266838,0.025560589707920082
0.2308966,0.0008478202829894047,0.006712969893165999,0.0038516475611061994,0.017798481521338314,0.0048365990364962145,0.047072644471777884,0.0026249183962734064,0.025432586103250526
0.2313621,0.0008656382819967565,0.006593392205944174,0.0038234539497760955,0.017796718736245144,0.004758286800193535,0.0469091296762481,0.0026509681091627475,0.02530442738728037
0.2318276,0.0008839551066738609,0.006474810926506562,0.0037974575516751745,0.01779438474790397,0.004681460210778728,0.04674474471997362,0.002677413059856166,0.02517612815940162
0.2322931,0.0009027758165183195,0.006357235879775044,0.003773703453484343,0.017791480643302975,0.004606144906709929,0.046579497504302673,0.002704255466889849,0.0250477029391709
0.2327586,0.0009221054288990819,0.006240676594795838,0.0037522366302339847,0.01778800761622808,0.004532366323946535,0.04641339610394433,0.0027314976480234884,0.024919166163988555
0.2332241,0.000941948917279345,0.006125142304647654,0.003733101931447274,0.017783966966493224,0.004460149691300013,0.04624644876698353,0.002759142019160364,0.02479053218684919
0.2336897,0.0009623112094367017,0.0060106419464433574,0.0037163440672233917,0.01777936009914699,0.004389520025817539,0.04607866391491322,0.0027871910932391855,0.024661815274163806
0.2341552,0.0009831971856810227,0.005897184161424219,0.0037020075942641993,0.017774188523655938,0.004320502128199263,0.045910050142680896,0.002815647479098158,0.02453302960365378
0.2346207,0.0010046116770705698,0.005784777295145858,0.0036901369018479025,0.017768453853064876,0.004253120578249967,0.04574061621874621,0.002844513880311708,0.02440418926231668
0.2350862,0.001026559463626852,0.005673429397754933,0.0036807761977532007,0.017762157803134265,0.004187399730365872,0.04557037108514626,0.002873793094000301,0.024275308244464038
0.2355517,0.001049045272548738,0.005563148224355608,0.0036739694941373903,0.017755302191454797,0.004123363709057327,0.045399323857564976,0.0029034880096137673,0.0241464004498312
0.2360172,0.0010720737764263464,0.0054539412354648095,0.003669760593371861,0.017747888936539145,0.004061036404508128,0.04522748382540262,0.0029336016076885484,0.024017479681759085
0.2364828,0.0010956495914552253,0.005345815597555238,0.0036681930738384095,0.017739920056890807,0.004000441468172177,0.04505486045184142,0.002964136958579261,0.023888559645447918
0.2369483,0.0011197772756513396,0.0052387781836850935,0.0036693102756897634,0.01773139767004998,0.003941602308408211,0.044881463373902974,0.0029950972211649864,0.023759653946282745
0.2374138,0.0011444613270673778,0.005132835574213419,0.0036731552865776748,0.017722323991616228,0.0038845420861533344,0.04470730240249281,0.0030264856415306842,0.023630776088230613
0.2378793,0.0011697061820108922,0.005027994057599981,0.0036797709273519398,0.017712701334247797,0.003829283710636067,0.04453238752242735,0.0030583055516241416,0.023501939472309302
0.2383448,0.001195516213264791,0.00492425963128855,0.0036891997377336864,0.017702532106637282,0.0037758498351296572,0.04435672889243803,0.0030905603678888787,0.023373157395127426
0.2388103,0.0012218957283107108,0.004821638002672416,0.0037014839619662664,0.01769181881246341,0.00372426285274638,0.04418033684514702,0.003123253589873452,0.023244443047495764
0.2392759,0.0012488489675558051,0.004720134590140979,0.003716665534447091,0.01768056404931873,0.0036745448922735503,0.04400322188700931,0.0031563887988176253,0.023115809513109608
0.2397414,0.0012763801025635045,0.0046197545242061995,0.0037347860653437785,0.017668770507612945,0.0036267178140519927,0.04382539469821546,0.0031899696562158785,0.02298726976730182
0.2402069,0.0013044932342888055,0.004520502648707672,0.003755886826198026,0.01765644096945161,0.003580803205897687,0.04364686613254993,0.0032239999023587454,0.022858836675866193
0.2406724,0.0013331923913186578,0.004422383522095073,0.0037800087355206783,0.01764357830748985,0.0035368223790673333,0.043467647217199624,0.0032584833548524755,0.022730522993950602
0.2411379,0.0013624815281180155,0.004325401418786705,0.0038071923443815585,0.017630185483760802,0.0034947963642685837,0.043287749152507944,0.003293423907117521,0.022602341365019245
0.2416034,0.0013923645232821217,0.0042295603306028474,0.0038374778219977296,0.017616265548478626,0.003454745907715686,0.04310718331166963,0.003328825526866338,0.022474304319883228
0.242069,0.0014228451777955886,0.004134863968272599,0.0038709049413239425,0.01760182163881581,0.0034166914672312996,0.042925961240362236,0.0033646922545610036,0.02234642427579853
0.2425345,0.001453927213298836,0.004041315763012909,0.003907513064649155,0.017586856977654768,0.0033806532083952533,0.04274409465631039,0.003401028201851121,0.0222187135356303
0.243,0.001485614270362443,0.0039489188681784415,0.00394734112920311,0.017571374872313767,0.0033466510007410044,0.04256159544877948,0.0034378375499924817,0.02209118428708237
0.2434655,0.001517909906769976,0.003857676160980943,0.003990427632777047,0.017555378713247215,0.003314704414000548,0.04237847567799613,0.003475124548246955,0.021963848601990646
0.243931,0.001550817595809843,0.0037675902442767238,0.004036810619362767,0.017538871972720367,0.0032848327143985175,0.04219474757449353,0.0035128935122640545,0.02183671843567905
0.2443966,0.0015843407245767316,0.003678663448420884,0.004086527664814316,0.017521858203458546,0.003257054860996181,0.04201042353838058,0.0035511488224446632,0.021709805626376366
0.2448621,0.0016184825922831902,0.0035908978331868793,0.004139615862536668,0.017504341037270898,0.003231389502086043,0.04182551613853468,0.0035898949222873595,0.021583121894692324
0.2453276,0.0016532464085819189,0.0035042951897500075,0.004196111809205813,0.017486324183648906,0.0032078549716377,0.04164003811171791,0.0036291363167178185,0.021456678843151025
0.2457931,0.0016886352918993454,0.0034188570427333923,0.004256051590524701,0.017467811428340006,0.0031864692857955916,0.04145400236161716,0.0036688775704017467,0.021330487955779714
0.2462586,0.0017246522677810772,0.003334584652314997,0.004319470767019504,0.01744880663189675,0.0031672501394292675,0.04126742195780815,0.0037091233060418385,0.021204560597750662
0.2467241,0.001761300267249822,0.0032514790163941975,0.004386404359880649,0.01742931372820214,0.0031502149027367522,0.04108031013464406,0.003749878202659261,0.021078908015073897
0.2471897,0.0017985821251763716,0.00316954087281642,0.004456886836853034,0.017409336722971697,0.0031353806179015686,0.04089268029006933,0.003791146993860209,0.020953541334338445
0.2476552,0.0018365005786642422,0.003088770701654343,0.004530952098179863,0.017388879692233024,0.0031227639958039677,0.0407045459843596,0.0038329344660880922,0.020828471562499527
0.2481207,0.001875058265448557,0.0030091687275441447,0.004608633462604497,0.017367946780783326,0.003112381412786891,0.04051592093878857,0.003875245456861923,0.020703709586709283
0.2485862,0.0019142577223097525,0.0029307349220752846,0.004689963653434731,0.017346542200625415,0.0031042489074771806,0.040326819034222625,0.003918084853001501,0.0205792661741884
0.2490517,0.0019541013835026743,0.0028534690062323002,0.004774974784673931,0.01732467022938259,0.003098382177662548,0.04013725430964382,0.003961457588839954,0.020455151972136005
0.2495172,0.0019945915792016254,0.002777370452887121,0.004863698347223484,0.01730233520869283,0.00309479657722477,0.03994724096060157,0.004005368644424256,0.02033137750767502
0.2499828,0.0020357305339619167,0.0027024384893403934,0.0049561651951610395,0.017279541542582766,0.003093507113129578,0.039756793337592994,0.004049823043704315,0.020207953187830047
0.2504483,0.0020775203651984694,0.0026286720999103438,0.005052405532099096,0.017256293695822034,0.0030945284424736797,0.0395659259443717,0.004094825852711266,0.02008488929953478
0.2509138,0.002119963081682002,0.0025560700285676987,0.005152448897628512,0.01723259619225884,0.0030978748695893394,0.03937465343618446,0.004140382177725612,0.019962196009665943
0.2513793,0.0021630605820533283,0.002484630781615213,0.005256324153851596,0.017208453613137813,0.003103560343206894,0.03918299061793485,0.004186497163435864,0.019839883365100616
0.2518448,0.0022068146533562793,0.0024143526304103305,0.005364059472009488,0.017183870595401406,0.0031115984536755755,0.0389909524422728,0.004233175991088377,0.01971796129279393
0.2523103,0.0022512269695897638,0.0023452336141295293,0.005475682319208614,0.017158851829976347,0.0031220024302430044,0.03879855400760851,0.00428042387662905,0.01959643959987406
0.2527759,0.002296299090279463,0.0022772715425728694,0.005591219445251074,0.01713340206004685,0.0031347851383936695,0.03860581055604921,0.004328246068837583,0.019475327973751313
0.2532414,0.0023420324590696542,0.0022104639990072556,0.00571069686957386,0.017107526079316326,0.0031499590772467267,0.03841273747125663,0.004376647847454967,0.01935463598223806
0.2537069,0.0023884284023356303,0.0021448083430469214,0.005834139868301891,0.01708122873025949,0.0031675363770134195,0.03821935027622308,0.004425634521304858,0.01923437307367622
0.2541724,0.002435488127817191,0.002080301713569636,0.005961572961419911,0.017054514902366584,0.0031875287965144362,0.03802566463096369,0.00447521142640948,0.019114548577068912
0.2546379,0.0024832127232736487,0.002016941031667131,0.00609301990006833,0.017027389530381607,0.003209947720757507,0.037831696330122476,0.004525383924100679,0.01899517170221296
0.2551034,0.0025316031551608034,0.00195472300362828,0.006228503653968136,0.016999857592536118,0.003234804158575528,0.037637461300489415,0.004576157399126735,0.018876251539829008
0.255569,0.0025806602673303365,0.001893644123953561,0.006368046398980079,0.01697192410878032,0.003262108740325508,0.037442975598426104,0.004627537257755544,0.018757797061686118
0.2560345,0.002630384779752089,0.0018337006783993594,0.0065116695048033245,0.016943594139012835,0.003291871715648595,0.037248255407197166,0.004679528925874743,0.018639817120717946
0.2565,0.002680777287259684,0.001774888747050677,0.006659393522818867,0.0169148727813105,0.003324102951291443,0.03705331703420482,0.004732137847089393,0.018522320451127946
0.2569655,0.002731838258319969,0.0017172042074208116,0.006811238174082993,0.016885765170159564,0.0033588119289891367,0.03685817690812352,0.004785369480817788,0.018405315668481338
0.257431,0.002783568033826731,0.001660642737576567,0.006967222337476122,0.01685627647468937,0.0033960077434098722,0.03666285157593172,0.004839229300386007,0.018288811269781893
0.2578966,0.0028359668259191418,0.0016051998192875428,0.007127364038012378,0.016826411896909668,0.003435699100161573,0.03646735769983751,0.004893722791121871,0.018172815633531934
0.2583621,0.0028890347168253833,0.001550870741198049,0.007291680435315245,0.016796176669952582,0.0034778943138605925,0.03627171205409473,0.00494885544844898,0.018057337019774255
0.2588276,0.0029427716577319113,0.001497650602020185,0.0074601878122646775,0.01676557605632028,0.0035226013062626144,0.03607593152170609,0.005004632775981582,0.017942383570114878
0.2592931,0.0029971774676788234,0.001445534313746614,0.007632901563821019,0.016734615346139427,0.003569827604455855,0.03588003309100952,0.005061060283620999,0.01782796330772573
0.2597586,0.0030522518324817985,0.0013945166048815818,0.007809836186031063,0.016703299855423695,0.0036195803391166374,0.035684033852144345,0.005118143485654322,0.017714084137326266
0.2602241,0.0031079943036811043,0.0013445920236887276,0.007991005265221595,0.016671634924345678,0.00367186624282739,0.035487950993393934,0.005175887898856091,0.01760075384514315
0.2606897,0.0031644042975181616,0.0012957549414542681,0.008176421467385685,0.016639625915519853,0.003726691648457089,0.03529180179740275,0.005234299040593629,0.017487980098847073
0.2611552,0.0032214810939401764,0.001247999555764139,0.008366096527767023,0.01660727821229832,0.003784062487604168,0.0350956036372666,0.005293382426936681,0.01737577044746596
0.2616207,0.003279223835633338,0.0012013198937936948,0.008560041240647532,0.016574597217081145,0.0038439842891018696,0.03489937397249632,0.00535314357077204,0.017264132321273825
0.2620862,0.0033376315270850785,0.0011557098156085796,0.008758265449343524,0.016541588349643116,0.003906462177586033,0.03470313034485644,0.005413587979923826,0.017153073031654725
0.2625517,0.003396703033675891,0.0011111630174753743,0.008960778036415573,0.016508257045478657,0.003971500872125279,0.0345068903740811,0.005474721155280068,0.017042599770941448
0.2630172,0.0034564370808011875,0.001067673035180648,0.00916758691409733,0.016474608754166505,0.004039104684913547,0.03431067175347074,0.005536548588926264,0.016932719612228895
0.2634828,0.0035168322530236685,0.0010252332473570545,0.009378699014948347,0.016440648937755716,0.0041092775200249195,0.03411449224537431,0.005599075762286577,0.016823439509162316
0.2639483,0.0035778869932566767,0.0009838368788151516,0.009594120282735992,0.016406383069174378,0.004182022872230673,0.033918369676562594,0.005662308144273288,0.016714766295700855
0.2644138,0.0036395996019790303,0.0009434770038796688,0.009813855663551441,0.016371816630662377,0.004257343825878414,0.0337223219334992,0.0057262511894450915,0.01660670668585709
0.2648793,0.003701968236481843,0.0009041465497290046,0.010037909097164717,0.016336955112229375,0.004335243053833184,0.03352636695751588,0.0057909103361747935,0.016499267273413474
0.2653448,0.0037649909101478917,0.0008658382997367989,0.010266283508623656,0.016301804010139115,0.00441572281648035,0.033330522739899296,0.0058562910048269405,0.01639245453161681
0.2658103,0.0038286654917641075,0.0008285448968144779,0.01049898080010166,0.01626636882542109,0.0044987849607900695,0.033134807316895956,0.005922398595945854,0.016286274812851928
0.2662759,0.0038929897048678164,0.0007922588467537086,0.010736001842998995,0.01623065506241039,0.0045844309194431115,0.03293923876464227,0.005989238488454542,0.016180734348295957
0.2667414,0.0039579611271273706,0.0007569725215677337,0.010977346470302437,0.01619466822731652,0.004672661710017767,0.032743835194026696,0.006056816037864903,0.016075839247554444
0.2672069,0.004023577189757808,0.0007226781628305792,0.011223013469207871,0.016158413826821833,0.004763477934237568,0.032548614745491,0.006125136574499662,0.015971595498280783
0.2676724,0.004089835176972185,0.0006893678850131565,0.011473000574010484,0.01612189736671025,0.004856879777279541,0.03235359558377768,0.006194205401726445,0.01586800896578032
0.2681379,0.00415673222546922,0.0006570336788153043,0.011727304459267082,0.01608512435052669,0.004952867007142653,0.0321587958926306,0.006264027794204372,0.015765085392600704
0.2686034,0.00422426532395786,0.0006256674144928389,0.011985920733235038,0.01604810027826774,0.005051438974076129,0.03196423386945569,0.006334608996143574,0.015662830398110075
0.269069,0.004292431312719407,0.0005952608451787009,0.012248843931592278,0.01601083064510386,0.005152594610067254,0.03176992771994832,0.0064059542195780235,0.015561249478064892
0.2695345,0.004361226883207792,0.0005658056101973198,0.012516067511442635,0.015973320940133474,0.005256332428388268,0.03157589565269382,0.006478068642652072,0.015460348004169285
0.27,0.004430648577688558,0.0005372932383713568,0.012787583845610849,0.015935576645169158,0.0053626505232019315,0.03138215587374748,0.006550957407921141,0.015360131223627957
0.2704655,0.00450069278891711,0.0005097151513200353,0.013063384217231347,0.015897603233556053,0.005471546569225292,0.031188726581200192,0.006624625620666978,0.015260604258694651
0.270931,0.0045713557598567375,0.00048306266674831745,0.01334345881463491,0.01585940616902259,0.005583017821451213,0.030995625959735887,0.006699078347227926,0.015161772106218208
0.2713966,0.004642633583436913,0.00045732700172622636,0.013627796726537177,0.01582099090456347,0.005697061114927161,0.030802872175186465,0.006774320613344594,0.015063639637188297
0.2718621,0.0047145222023523385,0.0004324992759576461,0.013916385937532942,0.015782362881354844,0.005813672864590793,0.030610483369090124,0.006850357402521338,0.014966211596282863
0.2723276,0.004787017408903211,0.0004085705150379564,0.01420921332390007,0.015743527527701567,0.005932849065161884,0.030418477653258433,0.006927193654403877,0.01486949260141943
0.2727931,0.004860114844877146,0.000385531653699876,0.014506264649716823,0.015704490258016263,0.0060545852910901315,0.030226873104357455,0.007004834263173393,0.014773487143312251
0.2732586,0.004933810001473197,0.0003633735390469033,0.014807524563296337,0.01566525647183,0.00617887669655838,0.030035687758507984,0.007083284075957355,0.014678199585037351
0.2737241,0.005008098219268343,0.0003420869337737514,0.015112976593941983,0.015625831552834216,0.0063057180155408135,0.02984493960590961,0.007162547891257362,0.014583634161607333
0.2741897,0.00508297468822681,0.00032166251937318374,0.015422603149027367,0.015586220867953521,0.0064351035619156175,0.029654646585493293,0.007242630457394211,0.014489794979557784
0.2746552,0.005158434447752544,0.00030209089932866257,0.015736385511404726,0.015546429766449016,0.00656702722963168,0.029464826579606813,0.007323536470970378,0.014396686016547026
0.2751207,0.005234472386785138,0.0002833626022922282,0.016054303837145425,0.015506463579051511,0.006701482492928915,0.029275497408737357,0.007405270575350123,0.014304311120970761
0.2755862,0.005311083243939501,0.00026546808524703625,0.016376337153616236,0.015466327617124255,0.006838462406611923,0.029086676826275307,0.007487837359157324,0.01421267401159312
0.2760517,0.00538826160768955,0.0002483977366539857,0.01670246335789497,0.01542602717185464,0.006977959606376807,0.028898382513323145,0.007571241354791196,0.014121778277195511
0.2765172,0.005466001916596226,0.0002321418795818802,0.017032659215528954,0.015385567513474363,0.007119966309191117,0.028710632073553073,0.007655487036959916,0.014031627376244487
0.2769828,0.005544298459580132,0.00021669077482057057,0.0173669003596397,0.015344953890507447,0.007264474313727052,0.02852344302811695,0.007740578821232245,0.013942224636579846
0.2774483,0.005623145376239092,0.00020203462397653063,0.017705161290377,0.01530419152904544,0.007411475000848134,0.02833683281061173,0.007826521062607119,0.013853573255124093
0.2779138,0.0057025366572108676,0.00018816357255032175,0.018047415374725553,0.015263285632049008,0.007560959334149668,0.0281508187621036,0.007913318054101165,0.013765676297614346
0.2783793,0.0057824661445812975,0.00017506771299540558,0.01839363484666702,0.015222241378675061,0.007712917860553289,0.02796541812621369,0.008000974025354088,0.01367853669835778
0.2788448,0.005862927532338079,0.00016273708775777103,0.018743790807700368,0.01518106392362844,0.007867340710955907,0.0277806480442682,0.008089493141251772,0.013592157260011667
0.2793103,0.005943914366870342,0.00015116169229585023,0.019097853227723113,0.01513975839653711,0.00802421760093336,0.027596525550515658,0.008178879500566998,0.013506540653389092
0.2797759,0.0060254200475141715,0.00014033147808020942,0.019455790946276006,0.015098329901349824,0.008183537831499086,0.02741306756741384,0.008269137134617605,0.01342168941729149
0.2802414,0.006107437827144192,0.00013023635557251386,0.019817571674153482,0.015056783515755156,0.008345290289918237,0.02723029090098875,0.008360270005942038,0.013337605958369178
0.2807069,0.006189960812811286,0.00012086619718327788,0.020183161995382056,0.015015124290620838,0.008509463450577851,0.027048212236268,0.008452282006992204,0.013254292551011009
0.2811724,0.006272981966426463,0.00011221084020792285,0.020552527369568706,0.014973357249452323,0.008676045375913828,0.02686684813279069,0.008545176958843574,0.013171751337264276
0.2816379,0.006356494105490865,0.00010426008974067315,0.020925632134621126,0.014931487387869575,0.008845023717395654,0.026686215020195636,0.008638958609922556,0.01308998432678603
0.2821034,0.006440489903871845,9.700372156582516e-05,0.021302439509841516,0.014889519673101126,0.009016385716569871,0.026506329193889816,0.008733630634751128,0.01300899339682682
0.282569,0.006524961892625031,9.04314850259274e-05,0.021682911599395557,0.0148474590434945,0.009190118206163313,0.026327206810798493,0.008829196632708805,0.012928780292247984
0.2830345,0.006609902460862262,8.453310586641297e-05,0.022067009396157966,0.014805310408042146,0.009366207611247165,0.02614886388519843,0.00892566012681194,0.012849346625573509
0.2835,0.006695303856665299,7.929828905623142e-05,0.022454692785935947,0.01476307864592195,0.009544639950462955,0.025971316284635348,0.009023024562510328,0.01277069387707744
0.2839655,0.006781158188045231,7.471672158403786e-05,0.022845920552071675,0.014720768606051414,0.00972540083731156,0.02579457972592663,0.009121293306501044,0.01269282339490777
0.284431,0.006867457423947539,7.077807522951388e-05,0.0232406503804249,0.014678385106654548,0.009908475481506408,0.02561866977124997,0.009220469645559372,0.012615736395247705
0.2848966,0.006954193395302827,6.747200930941319e-05,0.023638838864736486,0.014635932934840518,0.010093848690391996,0.02544360182431865,0.00932055678538661,0.01253943396251504
0.2853621,0.0070413577961232696,6.478817339794245e-05,0.02404044151237361,0.014593416846193025,0.010281504870428884,0.025269391126643698,0.009421557849474538,0.0124639170496004
0.2858276,0.007128942184644849,6.271621002109948e-05,0.024445412750457175,0.014550841564369527,0.010471428028746213,0.02509605275388318,0.009523475877986258,0.012389186478144907
0.2862931,0.007216937984515452,6.124575732459975e-05,0.02485370593237177,0.01450821178070931,0.01066360177476284,0.024923601612278547,0.009626313826653058,0.012315242938857824
0.2867586,0.007305336486028906,6.03664517150272e-05,0.025265273344658463,0.014465532153849459,0.010858009321878045,0.02475205243517789,0.009730074565686888,0.012242086991874582
0.2872241,0.007394128847404996,6.006793047385105e-05,0.02568006621429033,0.014422807309347734,0.011054633489232813,0.024581419779645803,0.009834760878708052,0.012169719067155565
0.2876897,0.007483306096115532,6.033983434395438e-05,0.026098034716330605,0.014380041839311311,0.011253456703542594,0.02441171802315936,0.009940375461687611,0.012098139464925882
0.2881552,0.007572859130256511,6.117181008832406e-05,0.02651912798197307,0.014337240302030381,0.0114544610010024,0.024242961360389666,0.010046920921904085,0.01202734835615634
0.2886207,0.007662778719966476,6.255351302055548e-05,0.026943294106964114,0.014294407221615518,0.01165762802926504,0.024075163800068425,0.010154399776914012,0.011957345783085705
0.2890862,0.0077530555088911705,6.44746095068285e-05,0.027370480160405636,0.014251547087637794,0.01186293904949327,0.023908339161938876,0.01026281445353598,0.011888131659784256
0.2895517,0.007843680015694623,6.692477943901534e-05,0.027800632193937795,0.014208664354770618,0.01207037493848657,0.023742501073790532,0.010372167286847795,0.011819705772758583
0.2900172,0.007934642635616782,6.989371867858536e-05,0.028233695251300546,0.014165763442432356,0.012279916190883191,0.02357766296857696,0.010482460519196513,0.011752067781597444
0.2904828,0.008025933642077827,7.337114147098023e-05,0.028669613378272545,0.014122848734428931,0.012491542921438137,0.023413838081615974,0.010593696299221201,0.011685217219658534
0.2909483,0.008117543188329282,7.734678283014367e-05,0.029108329632986027,0.014079924578595705,0.012705234867377698,0.023251039447871488,0.010705876680888423,0.011619153494795765
0.2914138,0.008209461309151974,8.181040089290453e-05,0.02954978609661609,0.014036995286438054,0.012920971390831237,0.023089279899316292,0.01081900362254056,0.011553875890126786
0.2918793,0.008301677922600883,8.675177924292654e-05,0.029993923884442667,0.01399406513277009,0.013138731481340869,0.02292857206237503,0.010933078985957152,0.011489383564840224
0.2923448,0.008394182831796855,9.216072920395057e-05,0.03044068315728327,0.013951138355351122,0.013358493758449797,0.0227689283554469,0.011048104535429542,0.011425675555042142
0.2928103,0.00848696572676504,9.802709210206728e-05,0.03089000313329457,0.013908219154519346,0.013580236474370014,0.02261036098650756,0.011164081936848976,0.011362750774641025
0.2932759,0.008580016186319903,0.00010434074149677092,0.03134182210014046,0.013865311692822378,0.013803937516730118,0.022452881950789837,0.01128101275680845,0.011300608016270626
0.2937414,0.008673323679996592,0.00011109158538056043,0.03179607742752426,0.013822420094644244,0.014029574411403936,0.022296503028542903,0.011398898461718479,0.011239245952249878
0.2942069,0.008766877570028343,0.00011826956834687319,0.03225270558008253,0.013779548445828594,0.014257124325420669,0.022141235782869625,0.011517740416937072,0.011178663135579133
0.2946724,0.00886066711336961,0.00012586467372615876,0.03271164213063776,0.013736700793298152,0.014486564069957108,0.02198709155764166,0.011637539885914098,0.011118858000971997
0.2951379,0.008954681463764512,0.00013386692568992557,0.03317282177380698,0.01369388114467066,0.014717870103412497,0.021834081475491873,0.011758298029350358,0.011059828865922052
0.2956034,0.009048909673860118,0.0001422663913226168,0.0336361783399633,0.013651093467871796,0.014951018534566433,0.02168221643588343,0.011880015904371622,0.011001573931803699
0.296069,0.009143340697364034,0.00015105318266119255,0.03410164480954695,0.013608341690745642,0.015185985125820197,0.021531507113254814,0.012002694463718037,0.0109440912850064
0.2965345,0.0092379633912457,0.00016021745870230817,0.0345691533277225,0.013565629700663377,0.015422745296521736,0.021381963955239915,0.012126334554949445,0.010887378898101503
0.297,0.009332766517980682,0.00016974942737698782,0.035038635219378646,0.013522961344130802,0.015661274126374455,0.021233597180962172,0.01225093691966729,0.010831434631040747
0.2974655,0.009427738747837243,0.0001796393474926983,0.035510021004466846,0.01348034042639529,0.015901546358929937,0.02108641677940183,0.012376502192754017,0.010776256232385546
0.297931,0.009522868661204364,0.00018987753064273393,0.035983240413675295,0.013437770711052788,0.016143536405164596,0.020940432507835515,0.012503030901630869,0.010721841340566042
0.2983966,0.009618144750960348,0.00020045434308282962,0.03645822240443441,0.01339525591965544,0.016387218347140263,0.020795653890347647,0.012630523465535077,0.010668187485168828
0.2988621,0.009713555424881094,0.00021136020757492433,0.036934895177250286,0.013352799731320376,0.01663256594174866,0.02065209021641357,0.012758980194817382,0.010615292088252236
0.2993276,0.009809089008087092,0.00022258560519800705,0.03741318619236247,0.013310405782340244,0.016879552624539797,0.020509750539554575,0.01288840129026081,0.010563152465688007
0.2997931,0.009904733745528183,0.0002341210771259879,0.03789302218672231,0.013268077665795998,0.017128151513634088,0.020368643676065067,0.01301878684242157,0.010511765828528195
0.3002586,0.010000477804505137,0.00024595722637255345,0.03837432919128823,0.013225818931172471,0.017378335413718096,0.020228778203812126,0.013150136830992963,0.010461129284396138
0.3007241,0.010096309277227057,0.0002580847195029834,0.038857032548633784,0.013183633083977252,0.01763007682012368,0.02009016246110768,0.01328245112419307,0.010411239838900315
0.3011897,0.010192216183403652,0.00027049428831292196,0.039341056930864496,0.013141523585363322,0.01788334792299028,0.019952804545653364,0.013415729478177018,0.010362094397069928
0.3016552,0.01028818647287137,0.0002831767314741156,0.0398263263578388,0.013099493851755939,0.018138120611509934,0.019816712313558034,0.013549971536474503,0.010313689764811104
0.3021207,0.010384208028252361,0.0002961229161471398,0.04031276421568846,0.013057547254484254,0.018394366478254574,0.01968189337842784,0.013685176829453185,0.010266022650382612
0.3025862,0.01048026866764519,0.00030932377956114553,0.040800293275633434,0.0130156871194181,0.018652056823585093,0.01954835511052859,0.013821344773808522,0.010219089665890043
0.3030517,0.010576356147346143,0.00032277033056066223,0.0412888357130861,0.012973916726610345,0.018911162660141482,0.01941610463602012,0.013958474672080468,0.010172887328797427
0.3035172,0.01067245816459994,0.00033645365111950164,0.04177831312703968,0.012932239309945259,0.019171654717413313,0.019285148836262242,0.014096565712197487,0.010127412063455273
0.3039828,0.010768562360378625,0.00035036489782181677,0.04226864655973569,0.012890658056793314,0.01943350344638976,0.019155494347191826,0.01423561696704826,0.01008266020264407
0.3044483,0.010864656322187347,0.00036449530331038576,0.04275975651660551,0.012849176107672774,0.019696679024288274,0.019027147558770358,0.014375627394081441,0.010038627989132293
0.3049138,0.010960727586895794,0.0003788361777021998,0.04325156298648133,0.012807796555918481,0.01996115135936092,0.01890011461450141,0.014516595834933801,0.009995311577248093
0.3053793,0.011056763643594049,0.00039337890997144715,0.0437439854620718,0.012766522447358236,0.020226890095777272,0.018774401411017203,0.014658521015087002,0.009952707034463907
0.3058448,0.01115275193647163,0.00040811496929999086,0.04423694296069794,0.01272535677999715,0.020493864618582627,0.01865001359773331,0.014801401543553248,0.009910810342993312
0.3063103,0.011248679867718585,0.000423035906395445,0.04473035404528499,0.012684302503710386,0.020762044058730153,0.018526956576570518,0.014945235912589998,0.009869617401399475
0.3067759,0.011344534800447479,0.0004381333547769567,0.045224136845605924,0.012643362519944714,0.02103139729818566,0.018405235501742643,0.015090022497443857,0.009829124026214574
0.3072414,0.011440304061635301,0.0004533990320288018,0.045718209079772094,0.012602539681429334,0.02130189297510357,0.01828485527960903,0.015235759556123822,0.009789325953569504
0.3077069,0.011535974945084355,0.00046882474102190156,0.04621248807596636,0.012561836791896337,0.021573499489072962,0.018165820568590316,0.015382445229204065,0.009750218840833238
0.3081724,0.011631534714401228,0.00048440237110336374,0.04670689079441391,0.012521256605811226,0.021846185006432546,0.018048135779146053,0.01553007753965656,0.009711798268261105
0.3086379,0.011726970605993009,0.0005001238992541519,0.0472013338495853,0.0124808018281139,0.022119917465653685,0.017931805073812732,0.015678654392713955,0.009674059740651336
0.3091034,0.011822269832080057,0.0005159813912149823,0.04769573353262611,0.012440475113970352,0.02239466458279049,0.017816832367300802,0.015828173575763084,0.009636998689009088
0.309569,0.011917419583724605,0.0005319670025805516,0.048190005834007274,0.012400279068535386,0.02267039385699613,0.01770322132664926,0.015978632758269495,0.009600610472217148
0.3100345,0.012012407033874519,0.0005480729798622049,0.048684066466389654,0.01236021624672651,0.02294707257610437,0.01759097537143643,0.016130029491733342,0.009564890378712505
0.3105,0.01210721934042158,0.0005642916615191588,0.04917783088769605,0.012320289153009137,0.023224667822275547,0.017480097674045368,0.016282361209676962,0.009529833628167915
0.3109655,0.012201843649273656,0.000580615478958411,0.049671214324383546,0.01228050024119314,0.023503146477706075,0.01737059115998248,0.016435625227664476,0.00949543537317759
0.311431,0.01229626709744006,0.0005970369575034743,0.050164131794908834,0.01224085191424073,0.02378247523040082,0.017262458508247643,0.01658981874335382,0.009461690700946133
0.3118966,0.01239047681612946,0.0006135487173320826,0.050656498133378705,0.012201346524085614,0.024062620580007583,0.017155702151754278,0.016744938836581607,0.009428594634979831
0.3123621,0.012484459933859654,0.0006301434743830179,0.05114822801337742,0.012161986371463289,0.024343548843713002,0.017050324277797544,0.016900982469481428,0.009396142136779364
0.3128276,0.012578203579578786,0.0006468140412322112,0.05163923597196234,0.012122773705752274,0.024625226162199112,0.01694632682856878,0.01705794648663602,0.00936432810753296
0.3132931,0.012671694885797535,0.0006635533279382653,0.05212943643381898,0.012083710724825966,0.024907618505659777,0.016843711501714213,0.01721582761526375,0.009333147389808996
0.3137586,0.012764920991732015,0.0006803543428575457,0.05261874373556586,0.012044799574914774,0.025190691679876035,0.016742479750935974,0.01737462246543966,0.009302594769247007
