Time,Rectus Femoris right,Rectus Femoris left,Hamstrings right,Hamstrings left,TibilaisÂ Anterior right,TibilaisÂ Anterior left,Gastrocnemius right,Gastrocnemius left
0.0,0.012195402531338436,-0.007705504685090516,0.00030571654515477043,-0.003038648914911025,0.007043938091326484,0.011093046106775794,0.004340946173505762,0.0011417773485864892
0.0004655,0.0122788455397179,-0.007480613122102088,0.00041793957012796587,-0.0029735784556982362,0.007169835722751286,0.011277358975519078,0.004441809590335833,0.001182125241235524
0.000931,0.012361958748384893,-0.007256440945223168,0.0005299650804168104,-0.0029087544275189186,0.007295997844159233,0.011462615601173082,0.004543813825435406,0.001222824957174926
0.0013966,0.01244472595729131,-0.007033020127437905,0.0006417760259980309,-0.002844181317192624,0.007422408447331547,0.011648797221819444,0.0046469573949650565,0.001263873041320437
0.0018621,0.012527130999334769,-0.006810382455506207,0.0007533553735058674,-0.0027798634256692087,0.007549051439531124,0.011835884832253023,0.004751238644152765,0.0013052659399617715
0.0023276,0.012609157746048878,-0.006588559519691346,0.0008646861113045996,-0.0027158048645738787,0.0076759106479956886,0.012023859188123678,0.004856655747460457,0.0013470000009767058
0.0027931,0.012690790113301117,-0.0063675827035767334,0.0009757512545586298,-0.002652009552823375,0.007802969824460472,0.012212700810154976,0.004963206708799466,0.0013890714740741675
0.0032586,0.012772012066993424,-0.006147483173978133,0.0010865338502974182,-0.0025884812133161873,0.007930212649707133,0.012402389988437018,0.005070889361794289,0.001431476511066305
0.0037241,0.01285280762876076,-0.005928291870957548,0.0011970169824726648,-0.0025252233696996407,0.008057622738135815,0.012592906786790672,0.0051797013700941655,0.0014742111661695421
0.0041897,0.012933160881663101,-0.005710039497944833,0.001307183777005247,-0.0024622393432166497,0.008185183642357452,0.012784231047200641,0.0052896402277320615,0.0015172713963346625
0.0046552,0.013013055975866543,-0.005492756511973062,0.0014170174068195175,-0.002399532249634876,0.008312878857803511,0.012976342394314775,0.005400703259530784,0.0015606530616059956
0.0051207,0.013092477134309444,-0.005276473114033572,0.0015265010968626446,-0.0023371049962609557,0.00844069182735037,0.01316922024000701,0.005512887621555942,0.0016043519255097847
0.0055862,0.013171408658349693,-0.005061219239556512,0.001635618129106726,-0.00227496027904241,0.008568605945955508,0.013362843788001313,0.005626190301615497,0.0016483636554718334
0.0060517,0.013249834933389366,-0.004847024549022594,0.0017443518475314288,-0.002213100579759763,0.008696604565302697,0.013557192038554024,0.005740608119805615,0.0016926838232645296
0.0065172,0.013327740434473077,-0.004633918418711628,0.001852685663084933,-0.00215152816331131,0.008824670998453408,0.013752243793191864,0.005856137729102552,0.0017373079054833279
0.0069828,0.013405109731856373,-0.004421929931593206,0.00196060305862097,-0.00209024507509291,0.008952788524501718,0.013947977659502923,0.005972775616000251,0.0017822312840527798
0.0074483,0.01348192749654048,-0.004211087868364672,0.0020680875938097723,-0.002029253138475059,0.009080940393230031,0.014144372055977938,0.006090518101193396,0.0018274492467621913
0.0079138,0.0135581785057696,-0.0040014206986412545,0.002175122910020776,-0.001968553952379428,0.00920910982976297,0.014341405216899031,0.006209361340305562,0.0018729569878309761
0.0083793,0.013633847648486928,-0.003792956572302933,0.0022816927351749852,-0.0019081488889569234,0.00933728003921683,0.014539055197273089,0.0063293013246621625,0.0019187496085037717
0.0088448,0.013708919930745394,-0.0035857233110023184,0.002387780888564969,-0.0018480390913692326,0.009465434211341958,0.01473729987780695,0.006450333882107796,0.0019648221176753722
0.0093103,0.013783380481069123,-0.0033797483998374905,0.002493371285640525,-0.0017882254716756916,0.00959355552515541,0.01493611696992159,0.006572454677867572,0.002011169432545535
0.0097759,0.013857214555761613,-0.0031750589791934443,0.0025984479427581114,-0.001728708708827204,0.009721627153561271,0.015135484020802763,0.006695659215451971,0.002057786379303707
0.0102414,0.013930407544156621,-0.002971681836755523,0.002702994981892214,-0.0016694892467688423,0.009849632267956035,0.015335378418485703,0.00681994283760475,0.002104667693843738
0.0107069,0.014002944973807748,-0.0027696433996979614,0.0028069966353068787,-0.001610567292652661,0.009977554042816562,0.01553577739697191,0.006945300727293398,0.0021518080225086432
0.0111724,0.014074812515612743,-0.0025689697270504974,0.0029104372501857195,-0.0015519428151621571,0.010105375660268145,0.015736658041376264,0.007071727908741638,0.0021992019228655067
0.0116379,0.014145995988868532,-0.0023696865022458462,0.0030133012932187573,-0.0014936155429497193,0.01023308031463034,0.015937997293102985,0.007199219248503447,0.002246843864510603
0.0121034,0.014216481366252903,-0.002171819025850754,0.0031155733551444967,-0.0014355849631882986,0.010360651216938301,0.016139771955049283,0.007327769456578014,0.0022947282299048384
0.012569,0.01428625477872886,-0.0019753922084832735,0.003217238155245694,-0.0013778503202384242,0.010488071599437508,0.016341958696835638,0.007457373087565047,0.002342849315239605
0.0130345,0.014355302520367668,-0.001780430563918825,0.003318280545797282,-0.0013204106144315598,0.010615324720049835,0.016544534060061834,0.007588024541859784,0.002391201331333159
0.0135,0.014423611053086595,-0.0015869582023875222,0.0034186855164649445,-0.0012632646009706821,0.010742393866809016,0.016747474463588007,0.007719718066887026,0.0024397784045576435
0.0139655,0.014491167011297455,-0.001394998824065132,0.003518438198652826,-0.0012064107889488372,0.010869262362263621,0.01695075620883984,0.007852447758373461,0.0024885745777968728
0.014431,0.014557957206462066,-0.001204575712759875,0.0036175238697988784,-0.0011498474404863222,0.010995913567845723,0.017154355485137076,0.00798620756165751,0.002537583811435023
0.0148966,0.014623968631550693,-0.001015711729797074,0.003715927957616303,-0.00109357256998703,0.011122330888203615,0.0173582483750444,0.008120991273035883,0.002586799984376351
0.0153621,0.014689188465399568,-0.0008284293081034145,0.00381363604427956,-0.0010375839435144058,0.011248497775496906,0.017562410859743582,0.00825679254114598,0.0026362168950960804
0.0158276,0.014753604076963566,-0.0006427504464923042,0.003910633870553383,-0.0009818790782873841,0.011374397733652434,0.017766818824425656,0.008393604868383264,0.0026858282627225775
0.0162931,0.014817203029460017,-0.0004586967041515566,0.004006907339863216,-0.0009264552422966018,0.011500014322579601,0.017971448063701947,0.00853142161235263,0.0027356277281509506
0.0167586,0.014879973084399744,-0.000276289195334385,0.004102442522305472,-0.0008713094540411248,0.01162533116234383,0.018176274287032557,0.008670235987352807,0.0027856088551881796
0.0172241,0.014941902205501465,-9.554858425447346e-05,0.004197225658595976,-0.0008164384823858727,0.011750331937296904,0.018381273124171066,0.008810041065892773,0.0028357651317298775
0.0176897,0.015002978562486032,8.350491981429323e-05,0.004291243163954971,-0.0007618388465398817,0.011875000400163104,0.018586420130624122,0.008950829780239112,0.0028860899709687465
0.0181552,0.015063190534747362,0.0002608515672330199,0.004384481631927047,-0.0007075068161555142,0.011999320376080145,0.01879169079312448,0.009092594923993214,0.0029365767126347973
0.0186207,0.015122526714897404,0.00043647207248761436,0.004476927838134432,-0.0006534384115486983,0.01212327576659396,0.018997060535116073,0.009235329153697229,0.0029872186242673594
0.0190862,0.015180975912183044,0.000610347618473021,0.0045685687439621534,-0.00059962940404026,0.012246850553606555,0.019202504722249592,0.009379024990467574,0.0030380089025189177
0.0195517,0.015238527155773306,0.0007824598605717518,0.004659391500173661,-0.0005460753164183845,0.012370028803276182,0.019407998667886926,0.00952367482165488,0.0030889406744908053
0.0200172,0.015295169697915608,0.0009527909305266698,0.004749383450455587,-0.0004927714235222218,0.012492794669869118,0.019613517638612712,0.009669270902529248,0.003140006999100783
0.0204828,0.015350893016960094,0.0011213234401080676,0.004838532134890398,-0.0004397127529466054,0.012615132399562475,0.019819036859751137,0.009815805357989673,0.0031912008684825384
0.0209483,0.015405686820251242,0.001288040484575171,0.004926825293355704,-0.0003868940858678032,0.012737026334197495,0.020024531520886023,0.00996327018429656,0.003242515209417139
0.0214138,0.015459541046886235,0.0014529256459322774,0.005014250868849046,-0.00033430995799015435,0.012858460914982868,0.020229976781382056,0.010111657250826205,0.0032939428847964486
0.0218793,0.01551244587033981,0.0016159629959798091,0.005100797010736992,-0.0002819546606133738,0.012979420686147733,0.020435347775904913,0.010260958301846203,0.0033454766951185027
0.0223448,0.015564391700955851,0.0017771370991606352,0.005186452077927413,-0.000229822241820231,0.013099890298544192,0.020640619619938,0.010411164958310808,0.003397109380014828
0.0228103,0.015615369188306317,0.0019364330152020777,0.0052712046419638664,-0.00017790650778422908,0.013219854513199234,0.020845767415293426,0.010562268719675347,0.0034488336198096672
0.0232759,0.01566536922341866,0.00209383630155408,0.005355043490041027,-0.00012620102419682894,0.013339298204816148,0.02105076625561482,0.010714260965728861,0.0035006420371110555
0.0237414,0.01571438294087313,0.0022493330156240863,0.005437957627940146,-7.469911781367627e-05,0.013458206365225614,0.021255591231869687,0.010867132958444208,0.003552527198433684
0.0242069,0.01576240172077174,0.0024029097168092395,0.005519936282883517,-2.339387811920326e-05,0.01357656410678681,0.021460217437828978,0.01102087584384489,0.0036044816158534677
0.0246724,0.01580941719058082,0.0025545534683265882,0.005600968906306943,2.7721840891108888e-05,0.013694356665738937,0.021664619975531544,0.011175480653887909,0.003656497748693705
0.0251379,0.01585542122684916,0.0027042518388420683,0.005681045176549179,7.865541881160195e-05,0.01381156940550374,0.021868773960731353,0.011330938308361916,0.003708568005242723
0.0256034,0.015900405956803847,0.002851992903899103,0.005760155001457319,0.00012941446681132143,0.013928187819939456,0.022072654528325294,0.011487239616799965,0.003760684744502869
0.026069,0.015944363759825886,0.002997765247147744,0.005838288520907064,0.00018000682550386012,0.014044197536546718,0.02227623683775961,0.011644375280406094,0.0038128402779707016
0.0265345,0.015987287268807576,0.003141557961375384,0.005915436109236807,0.00023044056270319805,0.014159584319626734,0.02247949607841287,0.011802335893994908,0.0038650268714482154
0.027,0.016029169371393738,0.0032833606493401237,0.005991588377594427,0.00028072397106664927,0.014274334073392106,0.02268240747495348,0.011961111947943295,0.003917236746884908
0.0274655,0.016070003211108807,0.0034231634244079813,0.006066736176195658,0.0003308655656260963,0.014388432845030448,0.022884946292669708,0.012120693830153365,0.003969462084250471
0.027931,0.016109782188371845,0.0035609569109951926,0.006140870596492878,0.00038087408120875187,0.014501866827720937,0.02308708784277025,0.012281071828025611,0.00402169502343786
0.0283966,0.016148499961401507,0.003696732244816923,0.006213982973253165,0.00043075846974873784,0.014614622363603811,0.023288807487653142,0.01244223613044132,0.00407392766619648
0.0288621,0.016186150447013065,0.003830481072943757,0.006286064886544508,0.0004805278974908187,0.014726685946702713,0.023490080646140873,0.012604176829753132,0.004126152078095187
0.0293276,0.01622272782130951,0.003962195553667355,0.0063571081636291,0.0005301917420876683,0.014838044225799742,0.02369088279867939,0.012766883923782637,0.0041783602905148005
0.0297931,0.016258226520268728,0.004091868356176719,0.006427104880762823,0.0005797595895920952,0.014948684007262946,0.023891189492498573,0.012930347317823812,0.004230544302669814
0.0302586,0.016292641240228698,0.004219492660046552,0.006496047364900165,0.0006292412313456995,0.015058592257826001,0.024090976346731928,0.013094556826651043,0.0042826960836589625
0.0307241,0.016325966938272523,0.004345062154539271,0.0065639281953040005,0.0006786466607654812,0.015167756107319795,0.024290219057493068,0.013259502176530538,0.004334807574544326
0.0311897,0.01635819883251523,0.0044685710377222534,0.00663074020505987,0.0007279860700299632,0.015276162851355635,0.02448889340290683,0.013425173007234045,0.004386870690458579
0.0316552,0.01638933240229415,0.004590014015401964,0.006696476482494572,0.0007772698466664339,0.0153837999539598,0.02468697524809289,0.013591558874053765,0.004438877322740006
0.0321207,0.01641936338826476,0.004709386299876589,0.006761130372498999,0.0008265085700409357,0.015490655050159164,0.024884440550099838,0.013758649249817444,0.004490819341094833
0.0325862,0.016448287792404002,0.004826683608508772,0.006824695477755214,0.0008757130077526497,0.015596715948517552,0.02508126536278775,0.013926433526902662,0.00454268859578643
0.0330517,0.016476101877922856,0.004941902162120087,0.006887165659867862,0.0009248941119343347,0.015701970633622452,0.02527742584165731,0.01409490101924937,0.00459447691985086
0.0335172,0.016502802169090135,0.00505503868320886,0.006948535040399983,0.0009740630154604818,0.01580640726852163,0.025472898248623938,0.014264040964369817,0.004646176131338255
0.0339828,0.01652838545096924,0.005166090393993003,0.007008798001813292,0.001023231028064848,0.01591001419710909,0.025667658956735607,0.014433842525355137,0.0046977780355794375
0.0344483,0.01655284876906963,0.0052750550142795834,0.007067949188313013,0.001072409632369029,0.01601277994645979,0.02586168445483351,0.014604294792877911,0.004749274427477183
0.0349138,0.016576189428914537,0.005381930759162889,0.007125983506597347,0.0011216104798237297,0.016114693229112468,0.02605495135215513,0.014775386787190169,0.0048006570938214695
0.0353793,0.01659840499552647,0.005486716336552861,0.0071828961265116885,0.0011708453865643897,0.016215742945299944,0.026247436382879435,0.014947107460116267,0.004851917815628042
0.0358448,0.016619493292831914,0.00558941094453579,0.007238682481607783,0.0012201263291828125,0.016315918185126295,0.026439116410614062,0.015119445697040167,0.004903048370499575
0.0363103,0.01663945240298658,0.005690014268569242,0.007293338269608061,0.0012694654404164492,0.01641520823069038,0.026629968432824294,0.01529239031888664,0.004954040535008655
0.0367759,0.016658280665622457,0.0057885264785133075,0.0073468594527754776,0.0013188750047569888,0.016513602558155194,0.0268199695852037,0.015465930084096104,0.005004886087101833
0.0372414,0.01667597667701791,0.005884948225500404,0.007399242258189282,0.0013683674539799184,0.016611090839762466,0.027009097145986195,0.01564005369059283,0.005055576808523875
0.0377069,0.016692539289192048,0.005979280638646015,0.007450483177927195,0.001417955362596725,0.016707662945791995,0.027197328540199257,0.015814749777746356,0.005106104487261394
0.0381724,0.016707967608924543,0.006071525321602941,0.007500578969154626,0.001467651443231425,0.016803308946465187,0.02738464134385812,0.015990006928325994,0.005156460920004933
0.0386379,0.016722260996702043,0.006161684348961712,0.007549526654121594,0.0015174685419231202,0.016898019113792066,0.02757101328810061,0.016165813670448337,0.005206637914628592
0.0391034,0.016735419065592262,0.006249760262499962,0.0075973235200680845,0.0015674196333562971,0.016991783923361106,0.027756422263262148,0.016342158479517692,0.0052566272926862475
0.039569,0.016747441680046826,0.006335756067283548,0.00764396711903863,0.0016175178160206106,0.017084594056071066,0.02794084632289061,0.016519029780159254,0.005306420891923393
0.0400345,0.016758328954633805,0.006419675227622297,0.0076894552676068425,0.0016677763073019293,0.017176440399803938,0.02812426368770049,0.01669641594814493,0.0053560105688035915
0.0405,0.016768081252700903,0.006501521662883294,0.007733786046510621,0.001718208438506443,0.017267314051037923,0.028306652749466,0.016874305312311485,0.005405388201048534
0.0409655,0.016776699184970222,0.00658129974316475,0.007776957800198711,0.0017688276498196702,0.017357206316399407,0.028487992074852725,0.017052686156470723,0.0054545456901906285
0.041431,0.016784183608065537,0.00665901428483352,0.007818969136289215,0.0018196474852022347,0.017446108714152753,0.028668260409187664,0.01723154672131122,0.005503474964137028
0.0418966,0.01679053562297301,0.006734670545929495,0.0078598189249406,0.0018706815872243094,0.017534012975626654,0.028847436680167503,0.01741087520629111,0.005552167979743992
0.0423621,0.016795756573436425,0.006808274221440143,0.00789950629813571,0.00192194369184065,0.0176209110465757,0.02902550000150497,0.017590659771521328,0.005600616725400382
0.0428276,0.016799848044288124,0.006879831438448573,0.007938030648879171,0.001973447623108175,0.01770679508847577,0.029202429676513524,0.0177708885396387,0.005648813223619119
0.0432931,0.016802811859717014,0.006949348751158556,0.007975391630308625,0.0020252072878480703,0.017791657479751557,0.029378205201630432,0.01795154959766816,0.005696749533635348
0.0437586,0.016804650081475126,0.007016833135800033,0.008011589154720037,0.002077236670254434,0.017875490816934635,0.029552806269878492,0.018132630998873356,0.005744417754010073
0.0442241,0.01680536500702426,0.007082291985418725,0.008046623392507484,0.002129549826451509,0.01795828791575013,0.029726212774266538,0.018314120764594908,0.005791810025237957
0.0446897,0.016804959167624266,0.0071457331045535165,0.00808049477101775,0.0021821608790015797,0.018040041812130078,0.02989840481112872,0.018496006886075386,0.005838918532357995
0.0451552,0.016803435326364555,0.007207164703805333,0.008113203973320165,0.002235084011365639,0.018120745763151525,0.030069362683402476,0.018678277326270157,0.005885735507565739
0.0456207,0.016800796476140207,0.007266595394301309,0.008144751936892184,0.0022883334623189384,0.018200393247897392,0.030239066903844994,0.018860920021643062,0.00593225323282572
0.0460862,0.0167970458375742,0.007324034182058052,0.008175139852221297,0.0023419235203235547,0.01827897796823836,0.03040749819818792,0.019043922883945786,0.005978464042482688
0.0465517,0.01679218685688711,0.007379490462247843,0.00820436916132399,0.0023958685178601135,0.01835649384953427,0.030574637508230015,0.01922727380197966,0.006024360325870297
0.0470172,0.016786223203715585,0.0074329740133716685,0.00823244155618253,0.0024501828257208,0.01843293504125368,0.030740465994867634,0.019410960643338512,0.0060699345299157735
0.0474828,0.016779158768880868,0.0074844949913429465,0.008259358977100449,0.0025048808472658,0.018508295917510412,0.030904965041062875,0.019594971256131036,0.0061151791617391205
0.0479483,0.01677099766210849,0.00753406392348583,0.008285123610977668,0.002559977012645296,0.01858257107751636,0.031068116254749475,0.019779293470681036,0.0061600867912454
0.0484138,0.01676174420970011,0.007581691702451922,0.008309737889506232,0.0026154857729891404,0.018655755345949872,0.03122990147167689,0.019963915101203794,0.006204650053708585
0.0488793,0.016751402952158347,0.007627389580059192,0.008333204487287625,0.002671421594566336,0.018727843773239668,0.03139030275819318,0.020148823947456686,0.0062488616523455
0.0493448,0.0167399786417654,0.007671169161056871,0.008355526319872748,0.0027277989529164368,0.018798831635764405,0.03154930241396789,0.020334007796362033,0.006292714360878307
0.0498103,0.016727476240116165,0.007713042396820013,0.008376706541725662,0.002784632326954979,0.018868714435968232,0.03170688297465622,0.020519454423600095,0.006336201026084004
0.0502759,0.016713900915606515,0.007753021578977361,0.008396748544112247,0.0028419361930550635,0.018937487902392622,0.03186302721450604,0.020705151595169884,0.006379314570329355
0.0507414,0.01669925804087754,0.007791119332976137,0.00841565595291496,0.0028997250191071812,0.01900514798962478,0.03201771814890914,0.020891087068915355,0.006422047994089638
0.0512069,0.016683553190216388,0.007827348611587313,0.008433432626374936,0.0029580132585593937,0.01907169087816282,0.032170939036898195,0.02107724859601442,0.006464394378449573
0.0516724,0.016666792136914573,0.00786172268835494,0.008450082652762727,0.0030168153444399813,0.019137112974197772,0.03232267338359059,0.021263623922427997,0.006506346887584721
0.0521379,0.016648980850584496,0.007894255150993058,0.008465610347979054,0.00307614568336469,0.0192014109093128,0.03247290494258055,0.021450200790306285,0.006547898771221645
0.0526034,0.016630125494435044,0.007924959894733711,0.008480020253087124,0.0031360186495307373,0.019264581540099992,0.03262161771828066,0.02163696693934945,0.006589043367075054
0.053069,0.01661023242250723,0.007953851115629632,0.008493317131778193,0.0031964485786997415,0.01932662194769555,0.03276879596821415,0.021823910108119886,0.006629774103260127
0.0535345,0.01658930817687112,0.007980943303815088,0.008505505967772279,0.003257449762171775,0.019387529437234503,0.03291442420525911,0.022011018035303358,0.006670084500678221
0.054,0.01656735948478568,0.008006251236728476,0.008516591962156006,0.0033190364407527256,0.019447301537226208,0.03305848719984583,0.02219827846091624,0.006709968175374155
0.0544655,0.016544393255823544,0.008029789972300208,0.008526580530659742,0.003381222798717182,0.019505935998851996,0.03320096998210817,0.02238567912745618,0.006749418840863285
0.054931,0.016520416578963058,0.008051574842109476,0.008535477300876209,0.003444022957769049,0.01956343079518627,0.033341857843989915,0.022573207780993487,0.006788430310426646
0.0553966,0.0164954367196502,0.008071621444513453,0.008543288109422831,0.0035074509710020974,0.01961978412034229,0.0334811363413067,0.022760852172200693,0.0068269964993724315
0.0558621,0.016469461116832992,0.008089945637752487,0.008550018999050044,0.0035715208168626373,0.01967499438854383,0.03361879129576425,0.02294860005731777,0.006865111427262168
0.0563276,0.01644249737997117,0.008106563533034787,0.008555676215697723,0.0036362463931164956,0.019729060233123905,0.0337548087969334,0.02313643919905077,0.006902769220099948
0.0567931,0.01641455328602365,0.00812149148760405,0.008560266205501897,0.003701641510822445,0.019781980505451727,0.0338891752041826,0.02332435736740199,0.006939964112483155
0.0572586,0.016385636776416468,0.008134746097793438,0.008563795611753773,0.003767719888314214,0.019833754273789136,0.03402187714856838,0.02351234234043024,0.006976690449713095
0.0577241,0.016355755953993648,0.008146344192069221,0.00856627127181312,0.0038344951451931815,0.019884380822077663,0.034152901534684234,0.02370038190494015,0.0070129426898640455
0.0581897,0.01632491907995343,0.008156302824067358,0.008567700213977963,0.0039019807963338407,0.019933859648657407,0.03428223554246834,0.023888463857099834,0.007048715405809211
0.0586552,0.0162931345707721,0.008164639265626251,0.008568089654312513,0.003970190245904084,0.01998219046491881,0.034409866628970186,0.024076576002986416,0.007084003287202111
0.0591207,0.016260410995117672,0.008171370999818786,0.008567446993435177,0.00403913678140235,0.020029373193888478,0.03453578253007629,0.0242647061590591,0.007118801142411954
0.0595862,0.016226757070755434,0.00817651571398676,0.00856577981326845,0.004108833567713639,0.020075407968750302,0.034659971262194986,0.024452842152559773,0.0071531039004116065
0.0600517,0.016192181661447376,0.00818009129278072,0.008563095873752423,0.004179293641186375,0.02012029513130317,0.034782421123900405,0.0246409718218418,0.0071869066126168096
0.0605172,0.016156693773847233,0.008182115811208123,0.008559403109523548,0.004250529903732103,0.0201640352303569,0.03490312069753565,0.02482908301662847,0.0072202044546753955
0.0609828,0.01612030255439287,0.008182607527692757,0.00855470962656029,0.00432255511694996,0.02020662902006816,0.03502205885077538,0.025017163598203624,0.007252992728205439
0.0614483,0.01608301728619751,0.008181584877148202,0.008549023698797181,0.00439538189627784,0.020248077458218352,0.03513922473814826,0.02520520143953786,0.007285266862481411
0.0619138,0.016044847385941245,0.008179066464068076,0.008542353764708813,0.004469022705172176,0.020288381704435688,0.035254607802519655,0.025393184425354463,0.007317022416067445
0.0623793,0.01600580240076406,0.008175071055635771,0.008534708423865209,0.0045434898493182,0.020327543118363718,0.035368197776535326,0.025581100452139415,0.007348255078396923
0.0628448,0.01596589200516154,0.008169617574856266,0.00852609643345998,0.004618795470872575,0.02036556325777874,0.035479984684027036,0.025768937428100255,0.007378960671297555
0.0633103,0.015925125997884197,0.008162725093712568,0.008516526704812621,0.004694951542740228,0.020402443876658495,0.03558995884138142,0.025956683273078467,0.0074091351504610775
0.0637759,0.015883514298841318,0.008154412826349256,0.008506008299846239,0.004771969862887269,0.020438186923204642,0.035698110858873776,0.0261443259184203,0.007438774606856687
0.0642414,0.01584106694601002,0.008144700122285568,0.008494550427541984,0.004849862048691821,0.020472794537821342,0.035804431641968754,0.026331853306810787,0.007467875268087252
0.0647069,0.01579779409235009,0.008133606459660376,0.008482162440371399,0.004928639531334652,0.020506269051052316,0.03590891239258987,0.026519253392075774,0.007496433499687305
0.0651724,0.015753706002725024,0.008121151438511373,0.008468853830707833,0.005008313550231426,0.020538612981478643,0.0360115446103596,0.02670651413895659,0.007524445806361762
0.0656379,0.015708813050829582,0.008107354774090738,0.008454634227218143,0.005088895147508453,0.020569829033579526,0.03611232009381156,0.02689362352286183,0.007551908833164295
0.0661034,0.015663125716123997,0.008092236290219452,0.008439513391235847,0.005170395162523757,0.020599920095558086,0.036211230941576175,0.027080569529600675,0.007578819366614241
0.066569,0.015616654580774905,0.008075815912682437,0.008423501213116982,0.005252824226435304,0.0206288892371341,0.036308269553540794,0.02726734015510199,0.007605174335750942
0.0670345,0.015569410326602888,0.008058113662666611,0.008406607708579924,0.005336192756818193,0.02065673970730556,0.03640342863198503,0.02745392340512328,0.007630970813124378
0.0675,0.01552140373203644,0.008039149650243927,0.00838884301503052,0.0054205109523325894,0.020683474932080677,0.03649670118269178,0.027640307294953505,0.007656206015720927
0.0679655,0.015472645669072064,0.008018944067901388,0.008370217387873878,0.005505788787444192,0.0207090985121819,0.0365880805160341,0.02782647984911369,0.007680877305823075
0.068431,0.015423147100240111,0.007997517184120003,0.00835074119681419,0.005592036007198966,0.020733614220723423,0.03667756024803791,0.028012429101059066,0.007704982191801859
0.0688966,0.015372919075575897,0.007974889337004566,0.008330424922144048,0.00567926212205387,0.02075702600086352,0.036765134301420074,0.02819814309288627,0.007728518328840818
0.0693621,0.015321972729595677,0.007951080927966068,0.008309279151024812,0.005767476402765301,0.020779337963432995,0.03685079690660135,0.028383609875049058,0.00775148351959028
0.0698276,0.015270319278277059,0.007926112415458564,0.008287314573759688,0.005856687875336976,0.0208005543845409,0.03693454260269356,0.028568817506085576,0.007773875714750897
0.0702931,0.015217970016043511,0.007900004308772175,0.008264541980061388,0.0059469053160289605,0.020820679703158543,0.037016366238460344,0.02875375405236007,0.007795693013585486
0.0707586,0.015164936312752703,0.00787277716188388,0.008240972255316285,0.0060381372464295684,0.020839718518682777,0.037096262973250825,0.02893840758782179,0.007816933664358434
0.0712241,0.015111229610688488,0.007844451567367718,0.008216616376847058,0.00613039192859184,0.020857675588479514,0.03717422827790593,0.029122766193783532,0.007837596064702078
0.0716897,0.015056861421556333,0.00781504815036589,0.008191485410175808,0.006223677360236295,0.02087455582540831,0.0372502579356369,0.02930681795872219,0.007857678761909634
0.0721552,0.015001843323482067,0.00778458756262228,0.008165590505289614,0.0063180012700216415,0.02089036429532901,0.03732434804287558,0.02949055097810361,0.007877180453154366
0.0726207,0.014946186958013702,0.007753090476579767,0.008138942892910436,0.0064133711128851285,0.02090510621459128,0.037396495010096134,0.029673953354234037,0.00789609998563482
0.0730862,0.014889904027126054,0.007720577579542703,0.008111553880771253,0.0065097940654541865,0.0209187869475079,0.0374666955626077,0.029857013196140546,0.007914436356646196
0.0735517,0.01483300629022786,0.007687069567905876,0.008083434849900263,0.006607277021531056,0.02093141200381244,0.037534946741317146,0.030039718619482774,0.007932188713577941
0.0740172,0.014775505561170998,0.007652587141451194,0.008054597250914926,0.006705826587652135,0.020942987036102003,0.037601245903461304,0.03022205774649837,0.007949356353837905
0.0744828,0.014717413705261438,0.007617150997713313,0.008025052600327558,0.006805449078723789,0.02095351783726561,0.03766559072330744,0.03040401870598445,0.007965938724703338
0.0749483,0.014658742636271519,0.007580781826415357,0.007994812476864135,0.006906150513736453,0.02096301033789868,0.037727979192820976,0.030585589633317173,0.007981935423099154
0.0754138,0.01459950431345319,0.007543500303975859,0.007963888517797932,0.0070079366115589166,0.020971470603704034,0.037788409622299034,0.030766758670511433,0.007997346195303907
0.0758793,0.014539710738551936,0.007505327088088007,0.007932292415299531,0.007110812786814723,0.02097890483287973,0.03784688064096862,0.030947513966322397,0.008012170936584037
0.0763448,0.014479373952821206,0.007466282812372275,0.007900035912804703,0.007214784145842744,0.02098531935349399,0.03790339119754802,0.031127843676390324,0.008026409690756912
0.0768103,0.014418506034037236,0.0074263880811034225,0.007867130801401575,0.007319855482744031,0.02099072062084737,0.03795794056077032,0.03130773596342991,0.008040062649683299
0.0772759,0.014357119093514248,0.007385663464012863,0.007833588916238508,0.00742603127551714,0.02099511521482233,0.038010528319867745,0.03148717899746511,0.008053130152689858
0.0777414,0.014295225273120002,0.007344129491167299,0.007799422132954004,0.00753331568228417,0.02099850983722025,0.03806115438501596,0.03166616095611024,0.008065612685922244
0.0782069,0.014232836742291742,0.0073018066479244885,0.0077646423641299775,0.007641712537609784,0.02100091130908621,0.03810981898773761,0.03184467002489771,0.008077510881629375
0.0786724,0.014169965695052649,0.007258715369966929,0.007729261555769639,0.0077512253489154925,0.021002326568021645,0.03815652268126446,0.032022694397652755,0.008088825517379421
0.0791379,0.014106624347029095,0.007214876038414216,0.007693291683801246,0.007861857292991423,0.021002762665485425,0.03820126634085742,0.03220022227691532,0.008099557515208088
0.0796034,0.014042824932469226,0.007170308975014763,0.007656744750608942,0.007973611212607786,0.021002226764083743,0.03824405116408378,0.03237724187440899,0.008109707940699809
0.080069,0.013978579701263656,0.007125034437417567,0.007619632781591879,0.00808648961322819,0.021000726134849334,0.03828487867105066,0.0325537414115571,0.0081192780020025
0.0805345,0.013913900915969222,0.007079072614524614,0.007581967821752809,0.008200494659826925,0.0209982681545105,0.038323750704593686,0.03272970912004565,0.0081282690487766
0.081,0.013848800848836914,0.007032443621924496,0.0075437619323173175,0.008315628173812354,0.020994860302750388,0.03836066943041953,0.032905133242433146,0.008136682571079159
0.0814655,0.013783291778845214,0.006985167497407769,0.007505027187384903,0.008431891630058502,0.020990510159457142,0.03839563733720098,0.03308000203280676,0.008144520198183748
0.081931,0.013717385988740064,0.00693726419656453,0.007465775670613015,0.008549286154047018,0.020985225401965575,0.038428657236622664,0.03325430375748443,0.00815178369733697
0.0823966,0.01365109576208269,0.006888753588464623,0.007426019471935177,0.008667812519121567,0.020979013802291346,0.03845973226337564,0.03342802669576219,0.008158474972452402
0.0828621,0.013584433380306609,0.0068396554514208825,0.007385770684314243,0.008787471143856786,0.020971883224358816,0.03848886587509856,0.033601159140706126,0.008164596062742833
0.0833276,0.013517411119785053,0.006789989468835717,0.007345041400531768,0.008908262089543838,0.020963841621223833,0.03851606185226313,0.03377368939998795,0.008170149141291697
0.0837931,0.013450041248910045,0.0067397752251313475,0.007303843710014438,0.00903018505779459,0.020954897032292676,0.03854132429800125,0.03394560579676364,0.00817513651356458
0.0842586,0.013382336025184271,0.006689032201763908,0.007262189695698422,0.009153239388266371,0.020945057580538422,0.03856465763787118,0.03411689667059405,0.008179560615861668
0.0847241,0.013314307692326862,0.006637779773321599,0.007220091430932504,0.009277424056509257,0.0209343314697158,0.03858606661956016,0.0342875503784066,0.008183424013711967
0.0851897,0.013245968477394067,0.0065860372037070385,0.007177560976420752,0.009402737671937809,0.020922726981575487,0.03860555631252086,0.03445755529549669,0.008186729400210058
0.0856552,0.013177330587915807,0.006533823642403917,0.007134610377205499,0.009529178475929215,0.020910252473078716,0.03862313210753946,0.03462689981656768,0.008189479594296167
0.0861207,0.013108406209049066,0.006481158120828027,0.00709125165969131,0.00965674434004979,0.02089691637361298,0.03863879971623323,0.03479557235680764,0.008191677538980285
0.0865862,0.013039207500749106,0.006428059548762717,0.0070474968287106135,0.00978543276441187,0.020882727182209515,0.038652565170475946,0.03496356135300138,0.008193326299511087
0.0870517,0.012969746594959588,0.006374546710878775,0.0070033578646316085,0.009915240876163169,0.020867693464763346,0.03866443482174972,0.03513085526467575,0.008194429061490406
0.0875172,0.012900035592822712,0.006320638263338713,0.006958846720509031,0.010046165428110659,0.020851823851256543,0.03867441534042198,0.03529744257527639,0.008194989128934127
0.0879828,0.012830086561910623,0.0062663527304853955,0.006913975319278331,0.010178202797481104,0.020835127032985498,0.038682513714946326,0.035463311793374024,0.008195009922280358
0.0884483,0.012759911533479345,0.00621170850161492,0.006868755550993771,0.010311348984820301,0.020817611759792777,0.03868873725098603,0.035628451453898265,0.008194494976345881
0.0889138,0.012689522499746447,0.006156723827833633,0.0068231992701109235,0.010445599613033093,0.020799286837304153,0.0386930935704586,0.03579285011939733,0.008193447938231875
0.0893793,0.01261893141119373,0.006101416818999137,0.0067773182928139875,0.010580949926566165,0.020780161124171193,0.03869559061049986,0.035956496381322256,0.008191872565179972
0.0898448,0.012548150173896126,0.0060458054407451275,0.006731124394388339,0.0107173947907356,0.020760243529319804,0.03869623662234582,0.03611937886133416,0.008189772722379704
0.0903103,0.012477190646878128,0.005989907511589831,0.006684629306638671,0.01085492869120106,0.020739543009205105,0.03869504017013075,0.03628148621263354,0.008187152380728509
0.0907759,0.012406064639499021,0.005933740700127812,0.006637844715353082,0.010993545733588395,0.020718068565072897,0.038692010129599774,0.03644280712131007,0.008184015614545442
0.0912414,0.012334783908868212,0.005877322522304838,0.006590782257813378,0.011133239643262407,0.02069582924022802,0.03868715568673484,0.03660333030771142,0.008180366599239802
0.0917069,0.012263360157291927,0.005820670338775495,0.006543453520351873,0.011274003765251424,0.02067283411730977,0.038680486336293084,0.036763044527829504,0.008176209608935867
0.0921724,0.01219180502975247,0.005763801352343156,0.006495870035954852,0.01141583106432526,0.020649092315574605,0.038672011880256985,0.03692193857470217,0.008171549014054903
0.0926379,0.012120130111421159,0.005706732605481901,0.006448043281912862,0.011558714125227989,0.020624612988186356,0.03866174242619639,0.03708000127982855,0.008166389278855709
0.0931034,0.012048346925206066,0.005649480977939939,0.00639998467751793,0.011702645153066968,0.020599405319514284,0.038649688385542204,0.03723722151459575,0.008160734958935028
0.093569,0.011976466929335598,0.005592063184424092,0.006351705581807776,0.011847615973859374,0.020573478522439275,0.03863586047177217,0.03739358819171474,0.00815459069868931
0.0940345,0.011904501514979043,0.005534495772364781,0.006303217291357008,0.011993618035237493,0.020546841835668565,0.03862026969850886,0.03754909026666309,0.00814796122873939
0.0945,0.011832462003905243,0.005476795119760985,0.006254531038115254,0.012140642407313922,0.020519504521059464,0.038602927377530016,0.03770371673913215,0.008140851363319747
0.0949655,0.011760359646180552,0.0054189774331045845,0.006205657987292143,0.01228867978370768,0.02049147586095265,0.038583845116691,0.03785745665447615,0.008133265997634012
0.095431,0.011688205617907371,0.0053610587453834626,0.006156609235289018,0.012437720482732137,0.020462765155515858,0.038563034817759086,0.03801029910516043,0.008125210105178532
0.0958966,0.011616011019004417,0.005303054914162717,0.006107395807677235,0.01258775444874563,0.020433381720099154,0.038540508674159014,0.03816223323220611,0.008116688735035715
0.0963621,0.01154378687102999,0.0052449816197433375,0.006058028657222893,0.012738771253665541,0.020403334882603347,0.03851627916862932,0.03831324822662818,0.008107707009139075
0.0968276,0.011471544115049354,0.005186854363397668,0.006008518661957847,0.012890760098646462,0.02037263398086329,0.03849035907078899,0.03846333333086449,0.008098270119511839
0.0972931,0.011399293609547372,0.005128688465680983,0.005958876623296785,0.013043709815923104,0.02034128836004805,0.03846276143461421,0.03861247784019314,0.00808838332548109
0.0977586,0.011327046128387575,0.005070499064818488,0.005909113264200165,0.013197608870818415,0.02030930737007995,0.038433499595825135,0.03876067110413637,0.00807805195086943
0.0982241,0.01125481235881884,0.005012301115167081,0.005859239227382776,0.013352445363917389,0.02027670036307457,0.038402587169182587,0.038907902527849106,0.008067281381166231
0.0986897,0.011182602899530884,0.004954109385751162,0.005809265073567656,0.013508207033406888,0.020243476690803636,0.03837003804569524,0.03905416157349094,0.008056077060680523
0.0991552,0.0111104282587598,0.0048959384588718345,0.0057592012797851155,0.013664881257581786,0.020209645702182782,0.03833586638973808,0.03919943776158012,0.00804444448967763
0.0996207,0.011038298852444848,0.004837802728788819,0.005709058237716621,0.013822455057517563,0.02017521674078587,0.038300086636083634,0.0393437206723285,0.008032389221501651
0.1000862,0.010966225002437676,0.004779716400474413,0.005658846252083283,0.01398091509990945,0.020140199142387585,0.03826271348684823,0.03948699994695609,0.008019916859685871
0.1005517,0.010894216934765246,0.0047216934884388466,0.005608575539078671,0.014140247700078075,0.020104602232535764,0.03822376190835583,0.039629265288984236,0.008007033055053124
0.1010172,0.0108222847779475,0.004663747815626359,0.005558256224845704,0.014300438825141513,0.02006843532415467,0.038183247127922496,0.03977050646550597,0.007993743502808154
0.1014828,0.010750438561370883,0.004605893012381347,0.005507898343997314,0.014461474097353535,0.020031707715180418,0.03814118463056462,0.039910713308432856,0.007980053939623916
0.1019483,0.010678688213718712,0.004548142515483891,0.0054575118381805544,0.014623338797607677,0.01999442868622944,0.038097590155633826,0.040049875715717345,0.007965970140723802
0.1024138,0.010607043561459346,0.00449050956725398,0.005407106554683814,0.014786017869106743,0.01995660749830082,0.03805247969338162,0.04018798365254991,0.007951497916961724
0.1028793,0.01053551432739303,0.004433007214723716,0.005356692245086785,0.014949495921197141,0.019918253390513032,0.03800586948145658,0.040325027152530314,0.007936643111902016
0.1033448,0.010464110129258207,0.004375648308876759,0.0053062785639528525,0.015113757233367362,0.01987937557787559,0.03795777600133656,0.04046099631881248,0.007921411598901106
0.1038103,0.01039284047839797,0.0043184455039542375,0.005255875067563568,0.015278785759409818,0.019839983249095833,0.03790821597469844,0.040595881325222995,0.007905809278192908
0.1042759,0.010321714778487302,0.0042614112568263585,0.005205491212694882,0.015444565131745129,0.019800085564421144,0.037857206359727426,0.04072967241735315,0.007889842073979858
0.1047414,0.010250742324321606,0.004204557826428901,0.005155136355434843,0.015611078665907807,0.01975969165351659,0.03780476434736782,0.040862359913625045,0.007873515931531514
0.1052069,0.01017993230066697,0.004147897273263822,0.005104819750042492,0.015778309365192193,0.01971881061337817,0.03775090735751705,0.040993934206331975,0.007856836814292577
0.1056724,0.01010929378117251,0.004091441458963186,0.005054550547847693,0.015946239925457403,0.019677451506281644,0.03769565303516444,0.04112438576265339,0.007839810701002224
0.1061379,0.010038835727345095,0.0040352020459156574,0.005004337796191691,0.01611485274008992,0.019635623357766942,0.037639019246475974,0.04125370512564477,0.007822443582826586
0.1066034,0.00996856698758665,0.003979190496954797,0.004954190437408152,0.0162841299051223,0.019593335154657967,0.03758102407482604,0.041381882915202575,0.007804741460506161
0.107069,0.009898496296294194,0.003923418075108446,0.0049041173078445055,0.01645405322450641,0.019550595843117486,0.03752168581677705,0.0415089098290043,0.007786710341520007
0.1075345,0.009828632273022646,0.0038678958434085063,0.004854127136923355,0.016624604215539417,0.01950741432673673,0.03746102297800738,0.04163477664342338,0.0077683562372684875
0.108,0.009758983421710398,0.0038126346647604516,0.004804228546243761,0.016795764114440767,0.019463799464659075,0.03739905426918814,0.04175947421441868,0.007749685160276336
0.1084655,0.009689558129967519,0.003757645201871916,0.004754430048722129,0.016967513882078147,0.01941976006973723,0.03733579860180919,0.04188299347839767,0.007730703121417785
0.108931,0.009620364668426447,0.003702937917239735,0.004704740047772479,0.01713983420984038,0.019375304906723165,0.03727127508395499,0.04200532545305263,0.007711416127165469
0.1093966,0.009551411190154882,0.003648523073194816,0.004655166836525811,0.017312705525655114,0.019330442690490182,0.03720550301603079,0.04212646123816879,0.0076918301768647826
0.1098621,0.009482705730130589,0.003594410732004242,0.004605718597088335,0.017486108000149044,0.019285182084286454,0.037138501886439905,0.04224639201640311,0.007671951260035373
0.1103276,0.009414256204777744,0.0035406107560300203,0.00455640339983832,0.01766002155294837,0.01923953169801949,0.037070291367212856,0.0423651090540328,0.0076517853537013914
0.1107931,0.009346070411564426,0.0034871328079438923,0.004507229202761297,0.017834425859117046,0.019193500086571124,0.037000891309589425,0.04248260370167254,0.007631338419752135
0.1112586,0.009278156028660813,0.003433986350997636,0.004458203850823412,0.01800930035573037,0.01914709574814267,0.03693032173955484,0.04259886739495996,0.007610616402334657
0.1117241,0.00921052061465762,0.003381180649348284,0.004409335075382671,0.018184624248581253,0.019100327122630018,0.036858602853331736,0.042713891655209196,0.007589625225279911
0.1121897,0.009143171608344268,0.003328724768437679,0.00436063049363785,0.018360376519016473,0.019053202590028417,0.036785755012829664,0.042827668090032696,0.007568370789563957
0.1126552,0.009076116328546217,0.0032766275754257763,0.004312097608114802,0.01853653593090012,0.019005730468866694,0.036711798741054166,0.04294018839393155,0.007546858970805721
0.1131207,0.00900936197402089,0.0032248977396770943,0.0042637438061898965,0.01871308103770133,0.018957919014670654,0.036636754717476905,0.04305144434885497,0.007525095616802806
0.1135862,0.008942915623411547,0.0031735437332997057,0.004215576359650294,0.018889990189703394,0.01890977641845533,0.036560643773368706,0.043161427824729516,0.007503086545106792
0.1140517,0.008876784235258416,0.0031225738317361418,0.004167602424290737,0.019067241541331263,0.01886131080524593,0.03648348688709675,0.04327013077995899,0.007480837540639418
0.1145172,0.008810974648066343,0.0030719961144055705,0.00411982903954648,0.019244813058594434,0.018812530232627418,0.036405305179387115,0.04337754526189537,0.0074583543533510025
0.1149828,0.008745493580428164,0.003021818465396582,0.004072263128162002,0.019422682526642067,0.018763442689322587,0.036326119908553646,0.043483663407281686,0.007435642695922406
0.1154483,0.0086803476312029,0.002972048574209903,0.004024911495895104,0.019600827557427064,0.018714056093798653,0.03624595246569413,0.04358847744266709,0.007412708241511774
0.1159138,0.008615543279747864,0.002922693936550353,0.0039777808312559705,0.01977922559747583,0.018664378292902278,0.03616482436985432,0.04369197968479493,0.007389556621547264
0.1163793,0.00855108688620366,0.0028737618551673556,0.003930877705280772,0.019957853935760234,0.018614417060522866,0.036082757263160445,0.04379416254096448,0.007366193423566899
0.1168448,0.00848698469183106,0.0028252594407433213,0.003884208571339325,0.020136689711668498,0.018564180096284025,0.035999772905920276,0.043895018509367736,0.007342624189106586
0.1173103,0.008423242819398635,0.002777193612829216,0.003837779764976342,0.02031570992307168,0.01851367502426305,0.035915893171693115,0.04399454017940301,0.00731885441163738
0.1177759,0.008359867273620035,0.002729571100826659,0.0037915975037857716,0.020494891434482715,0.0184629093917383,0.03583114004232868,0.04409272023196786,0.007294889534552925
0.1182414,0.008296863941639768,0.002682398445015894,0.003745667887317683,0.020674210985304906,0.0184118906679643,0.035745535602974735,0.044189551439734145,0.007270734949208024
0.1187069,0.008234238593566305,0.0026356819976289894,0.00369999689701716,0.02085364519816689,0.01836062624297433,0.035659102037053664,0.044285026667408356,0.007246395993009264
0.1191724,0.008171996883051338,0.0025894279239676407,0.003654590396194636,0.02103317058734099,0.01830912342641023,0.035571861621208054,0.04437913887198029,0.007221877947558571
0.1196379,0.008110144347913987,0.00254364220356492,0.0036094541300271017,0.021212763567241787,0.01825738944637899,0.035483836720215545,0.04447188110296368,0.007197186036850537
0.1201034,0.008048686410808803,0.0024983306313903545,0.0035645937255895785,0.02139240046100173,0.018205431448335693,0.035395049781873224,0.044563246502631985,0.0071723254255243105
0.120569,0.007987628379936372,0.0024534988190976787,0.003520014691916252,0.021572057509120408,0.018153256493992288,0.03530552333185178,0.044653228306253435,0.007147301217170809
0.1210345,0.007926975449795393,0.0024091521963146003,0.003475722420090632,0.021751710878184196,0.018100871560251922,0.035215279968519815,0.04474181984232853,0.007122118452695947
0.1215,0.007866732701975078,0.0023652960119739095,0.003431722183364118,0.02193133666965271,0.018048283538168473,0.03512434235773856,0.04482901453283393,0.007096782108740498
0.1219655,0.007806905105986805,0.0023219353356852546,0.0033880191373023474,0.02211091092870859,0.01799549923193098,0.03503273322762752,0.04491480589347581,0.007071297096157199
0.122431,0.007747497520133871,0.0022790750591468855,0.003344618319958748,0.022290409653167125,0.01794252535787265,0.03494047536330145,0.044999187533955945,0.0070456682585456525
0.1228966,0.007688514692418277,0.0022367198975966705,0.0033015246520747394,0.02246980880244222,0.017889368543504144,0.034847591601579186,0.045082153158253334,0.007019900370845561
0.1233621,0.00762996126148336,0.0021948743913016737,0.003258742937306065,0.022649084306565398,0.017836035326570656,0.0347541048256646,0.04516369656492384,0.006993998137988816
0.1238276,0.007571841757591137,0.002153542907085576,0.003216277862474787,0.022828212075254282,0.0177825321541325,0.034660037959799835,0.04524381164742003,0.006967966193610889
0.1242931,0.0075141606036331346,0.002112729639893203,0.0031741339978464856,0.02300716800702722,0.017728865381668894,0.03456541396389083,0.045322492394433034,0.0069418090988219655
0.1247586,0.007456922116173533,0.0020724386143914195,0.003132315797432232,0.023185927998360424,0.017675041272204876,0.034470255828105006,0.04539973289025785,0.006915531341038176
0.1252241,0.0074001305065233705,0.002032673686605632,0.003090827599314908,0.023364467952884008,0.017621065995461246,0.03437458656744128,0.04547552731518326,0.0068891373328732325
0.1256897,0.0073437898818445885,0.0019934385455911236,0.003049673625999444,0.02354276379061307,0.017566945627027722,0.03427842921627272,0.04554986994590694,0.006862631411090713
0.1261552,0.007287904246282676,0.001954736715138436,0.0030088579847865346,0.023720791457209726,0.017512686147559534,0.03418180682286278,0.0456227551559763,0.00683601783561719
0.1266207,0.00723247750212664,0.0019165715555119977,0.00296838466816941,0.02389852693327195,0.01745829344199812,0.03408474244385658,0.045694177416254964,0.006809300788616336
0.1270862,0.007177513450995062,0.0018789462652211693,0.0029282575542532,0.024075946243644758,0.017403773298816805,0.033987259138748956,0.045764131295414665,0.006782484373624084
0.1275517,0.007123015795046967,0.0018418638828228862,0.002888480407196456,0.024253025466749248,0.017349131409292652,0.03388937996433134,0.045832611460451846,0.006755572614744898
0.1280172,0.007068988138216262,0.0018053272887550457,0.0028490568776743824,0.024429740743924608,0.017294373366805782,0.03379112796911947,0.045899612677228065,0.006728569455909167
0.1284828,0.007015433987468504,0.0017693392071997933,0.002809990503363313,0.024606068288778267,0.017239504666167773,0.033692526187763985,0.04596512981103298,0.0067014787601916885
0.1289483,0.00696235675407878,0.001733902207975849,0.002771284709445958,0.024781984396539114,0.017184530702980542,0.033593597635445706,0.046029157827168495,0.006674304309191195
0.1294138,0.0069097597549295005,0.001699018708459012,0.0027329428091369453,0.02495746545340844,0.01712945677302726,0.03349436530225726,0.04609169179155251,0.006647049802470873
0.1298793,0.006857646213826964,0.001664690975529972,0.0026949680042281355,0.025132487945903257,0.017074288071696822,0.03339485214757254,0.04615272687134062,0.006619718857059722
0.1303448,0.006806019262835557,0.0016309211275485533,0.0026573633856532067,0.025307028470186482,0.01701902969344333,0.03329508109440535,0.04621225833556424,0.0065923150070145995
0.1308103,0.006754881943628537,0.0015977111363534996,0.002620131934070982,0.025481063741378315,0.016963686631282213,0.03319507502375827,0.046270281555783145,0.0065648417030427465
0.1312759,0.006704237208854334,0.0015650628292869044,0.0025832765204669653,0.025654570602842985,0.01690826377632461,0.033094856768962795,0.046326792006750786,0.006537302312184522
0.1317414,0.006654087923517424,0.0015329778912423749,0.002546799906772574,0.025827526035444946,0.016852765917351634,0.03299444911001136,0.046381785267090185,0.006509700117556093
0.1322069,0.006604436866372819,0.0015014578667360088,0.0025107047465015558,0.025999907166768407,0.01679719774043018,0.03289387476788203,0.0464352570199785,0.006482038318151772
0.1326724,0.0065552867313332765,0.0014705041619992563,0.002474993585403115,0.026171691280294153,0.016741563828571726,0.03279315639885625,0.04648720305383828,0.006454320028705724
0.1331379,0.006506640128888388,0.0014401180470927314,0.0024396688621312777,0.02634285582452727,0.01668586866143561,0.03269231658883011,0.04653761926303359,0.006426548279612711
0.1336034,0.006458499587534722,0.0014103006580400276,0.0024047329089300655,0.026513378422069564,0.01663011661507809,0.0325913778476194,0.04658650164856906,0.006398726016907581
0.134069,0.006410867555216248,0.0013810529989805899,0.002370187952334038,0.02668323687863015,0.016574311961748404,0.03249036260325867,0.04663384631878992,0.006370856102303145
0.1345345,0.006363746400774318,0.0013523759443406836,0.0023360361138837983,0.026852409191967797,0.016518458869733115,0.03238929319629463,0.0466796494900809,0.006342941313286137
0.135,0.006317138415406515,0.001324270241021494,0.0023022794108560514,0.027020873560758413,0.01646256140324983,0.032288191874074536,0.046723907487561875,0.0063149843432708805
0.1354655,0.006271045814133685,0.0012967365106033872,0.0022689197570078014,0.027188608393381077,0.016406623522391417,0.032187080785030006,0.04676661674577763,0.006286987801810343
0.135931,0.006225470737274528,0.0012697752515653529,0.002235958963334267,0.027355592316615766,0.01635064908312166,0.03208598197295737,0.046807773809379595,0.006258954214864196
0.1363966,0.006180415251927079,0.0012433868415186397,0.002203398738840078,0.027521804184245838,0.016294641837323355,0.03198491737129547,0.04684737533379706,0.006230886025123543
0.1368621,0.0061358813534564145,0.0012175715394535957,0.002171240691323302,0.027687223085558214,0.01623860543289962,0.031883908797402355,0.046885418085895816,0.006202785592392002
0.1373276,0.0060918709669879265,0.0011923294879987193,0.0021394863281718295,0.027851828353733888,0.01618254341392914,0.03178297794683222,0.04692189894462188,0.00617465519402279
0.1377931,0.00604838594890551,0.001167660715690922,0.002108137057171655,0.028015599574121273,0.01612645922087596,0.03168214638761436,0.04695681490162834,0.006146497025411517
0.1382586,0.006005428088354053,0.0011435651392559952,0.002077194187326571,0.02817851659238482,0.016070356190854257,0.0315814355545358,0.046990163061883757,0.0061183132005444415
0.1387241,0.005962999108745649,0.0011200425658982726,0.0020466589296887945,0.028340559522520976,0.016014237557948556,0.031480866743429446,0.04702194064426049,0.0060901057526018985
0.1391897,0.00592110066926899,0.00109709269559847,0.0020165323982000317,0.028501708754733488,0.015958106453589534,0.03138046110546951,0.04705214498210199,0.0060618766346167115
0.1396552,0.005879734366401489,0.0010747151234186832,0.001986815610542478,0.02866194496315982,0.015901965906985664,0.031280239641476006,0.04708077352376783,0.006033627720187354
0.1401207,0.005838901735423656,0.0010529093418135147,0.001957509488999246,0.028821249113440393,0.01584581884561072,0.031180223196230386,0.04710782383315591,0.0060053608042456505
0.1405862,0.005798604251935363,0.0010316747429462972,0.0019286148613237028,0.028979602470122025,0.01578966809574711,0.031080432452804663,0.04713329359020157,0.005977077603878754
0.1410517,0.005758843333373619,0.001011010621009388,0.0019001324616172064,0.0291369866038868,0.015733516383084917,0.030980887926906422,0.04715718059135403,0.005948779759205149
0.1415172,0.005719620340531542,0.0009909161745474929,0.0018720629312147514,0.029293383398597373,0.015677366333376533,0.030881609961242524,0.04717948275003158,0.005920468834304385
0.1419828,0.005680936579078247,0.0009713905087829873,0.001844406819578043,0.029448775058149575,0.015621220473146603,0.030782618719904287,0.04720019809705725,0.005892146318200296
0.1424483,0.005642793301079421,0.0009524326379421915,0.001817164585195546,0.0296031441131229,0.015565081230457006,0.030683934182776818,0.04721932478107693,0.005863813625897402
0.1429138,0.0056051917065183835,0.0009340414875815593,0.0017903365964890624,0.02975647342721949,0.01550895093572644,0.030585576139975028,0.04723686106896228,0.005835472099470263
0.1433793,0.0055681329448175046,0.0009162158969127349,0.0017639231327264005,0.029908746203482127,0.015452831822604096,0.030487564186308914,0.04725280534620007,0.005807123009205531
0.1438448,0.005531618116359881,0.0008989546211254332,0.001737924384939688,0.030059945990281934,0.015396726028896896,0.030389917715780465,0.047267156117269886,0.005778767554796471
0.1443103,0.005495648274011222,0.0008822563337071212,0.0017123404568489063,0.030210056687066757,0.015340635597549727,0.030292655916114637,0.04727991200601143,0.0057504068665897
0.1447759,0.00546022442464192,0.0008661196287584963,0.0016871713657902274,0.03035906254986155,0.01528456247767818,0.030195797763326874,0.047291071755982385,0.005722042006883894
0.1452414,0.005425347530649318,0.0008505430233037956,0.0016624170436487823,0.030506948196512736,0.015228508525653425,0.03009936201632971,0.04730063423080781,0.005693673971280193
0.1457069,0.005391018511480209,0.000835524959595011,0.0016380773377955348,0.030653698611669136,0.015172475506238828,0.03000336721158092,0.04730859841452125,0.005665303690084006
0.1461724,0.005357238245153583,0.000821063807409124,0.0016141520120280045,0.030799299151492866,0.015116465093778045,0.029907831657775757,0.04731496341189797,0.005636932029757873
0.1466379,0.005324007569783665,0.000807157866337517,0.0015906407475146413,0.030943735548094386,0.015060478873434232,0.02981277343058592,0.04731972844878012,0.005608559794425045
0.1471034,0.005291327285103273,0.0007938053680667556,0.0015675431437427063,0.031086993913686762,0.015004518342479931,0.029718210367447966,0.0473228928723938,0.005580187727423356
0.147569,0.005259198153987486,0.0007810044786499565,0.001544858719469562,0.031229060744454598,0.01494858491163714,0.029624160062404162,0.047324456151657715,0.005551816512908989
0.1480345,0.005227620903977638,0.0007687533007679818,0.0015225869136772918,0.03136992292413364,0.01489267990646698,0.029530639860998856,0.04732441787748337,0.005523446777509643
0.1485,0.00519659622880558,0.0007570498759797139,0.0015007270865306027,0.031509567727297544,0.014836804568808329,0.02943766685523353,0.04732277776306682,0.005495079092026626
0.1489655,0.005166124789918158,0.000745892186960684,0.0014792785203379532,0.03164798282234913,0.014780960058264712,0.029345257878583653,0.047319535644172295,0.0054667139731853255
0.149431,0.005136207218001859,0.0007352781597293506,0.001458240420515865,0.03178515627421473,0.014725147453738718,0.029253429501080213,0.04731469147940802,0.005438351885433518
0.1498966,0.005106844114507536,0.0007252056658603512,0.001437611916556363,0.03192107654674187,0.014669367755013167,0.02916219802445856,0.04730824535049454,0.005409993242786908
0.1503621,0.005078036053175144,0.0007156725246840741,0.0014173920629974893,0.032055732504802543,0.014613621884378236,0.029071579477377027,0.047300197462525936,0.005381638410721288
0.1508276,0.005049783581558373,0.0007066765054719322,0.001397579840396828,0.03218911341610583,0.014557910688303779,0.028981589610707605,0.047290548144224155,0.00535328770811072
0.1512931,0.005022087222549091,0.0006982153296067359,0.0013781741563079779,0.032321208952724584,0.014502234939156209,0.02889224389290081,0.047279297848186415,0.0053249414092111135
0.1517586,0.004994947475901471,0.0006902866727375892,0.001359173846259895,0.032452009192341806,0.014446595336959385,0.02880355750542673,0.04726644715112521,0.005296599745688548
0.1522241,0.0049683648197556786,0.0006828881669187448,0.001340577674739027,0.0325815046192223,0.014390992511199076,0.028715545338294218,0.04725199675410061,0.005268262908691693
0.1526897,0.004942339712161019,0.0006760174027318676,0.0013223843361741437,0.03270968612491546,0.014335427022670611,0.028628221985650147,0.04723594748274427,0.005239931050967626
0.1531552,0.004916872592598434,0.0006696719313911607,0.0013045924559237669,0.03283654500869498,0.01427989936536931,0.028541601741460598,0.047218300287474285,0.005211604289020346
0.1536207,0.004891963883502253,0.0006638492668308205,0.0012872005912660832,0.032962072977741425,0.014224409968423325,0.02845569859527593,0.047199056243700015,0.005183282705311254
0.1540862,0.004867613991781073,0.0006585468877742982,0.0012702072323912184,0.033086262147073754,0.014168959198068569,0.028370526228081897,0.0471782165520156,0.005154966350500838
0.1545517,0.004843823310337645,0.0006537622397848599,0.0012536108033957374,0.0332091050392356,0.014113547359665413,0.028286098008239204,0.04715578253838116,0.005126655245730787
0.1550172,0.004820592219587631,0.0006494927372969453,0.0012374096632792337,0.033330594583742254,0.014058174699756924,0.028202426987514264,0.047131755654290126,0.0050983493849457336
0.1554828,0.004797921088977049,0.0006457357656278295,0.0012216021069428565,0.0334507241162943,0.01400284140816836,0.02811952589720417,0.047106137476920926,0.005070048737253784
0.1559483,0.004775810278498184,0.0006424886829690955,0.00120618636618962,0.03356948737776358,0.013947547620147605,0.028037407144359074,0.04707892970927099,0.005041753249324993
0.1564138,0.004754260140203728,0.0006397488223574183,0.00119116061072633,0.03368687851295745,0.013892293418546173,0.027956082808105426,0.04705013418027049,0.005013462847826873
0.1568793,0.004733271019718865,0.0006375134936241618,0.001176522949166963,0.03380289206916712,0.013837078836040398,0.027875564636073696,0.047019752844872975,0.004985177441896029
0.1573448,0.004712843257751012,0.0006357799853232881,0.0011622714300373186,0.03391752299450566,0.013781903857392273,0.027795864040934086,0.04698778778411946,0.004956896925644992
0.1578103,0.004692977191596866,0.0006345455666370813,0.0011484040427807672,0.034030766636041446,0.013726768421749483,0.027716992097043893,0.04695424120517256,0.004928621180703274
0.1582759,0.004673673156646436,0.0006338074892591948,0.0011349187187649058,0.03414261873773245,0.013671672424983983,0.02763895953720978,0.04691911544131652,0.004900350078791708
0.1587414,0.004654931487883682,0.0006335629892545391,0.0011218133322889287,0.03425307543816697,0.013616615722068523,0.02756177674956833,0.046882412951918924,0.004872083484329096
0.1592069,0.0046367525213834035,0.0006338092888955321,0.0011090857015915267,0.03436213326811654,0.01356159812949032,0.027485453774588005,0.046844136322349655,0.004843821257070212
0.1596724,0.004619136595803967,0.000634543598474243,0.0010967335898591276,0.03446978914790662,0.013506619427701072,0.02741000030219556,0.046804288263852564,0.004815563254774182
0.1601379,0.004602084053875488,0.0006357631180899643,0.0010847547062343024,0.03457604038461053,0.013451679363602373,0.02733542566902981,0.04676287161336559,0.00478730933590227
0.1606034,0.004585595243883032,0.0006374650394117562,0.0010731467068241772,0.03468088466907224,0.013396777653065507,0.027261738855825363,0.046719889333285386,0.004759059362344082
0.161069,0.004569670521144422,0.0006396465474155283,0.0010619071957087057,0.034784320072763275,0.013341913983484482,0.027188948484928886,0.046675344511172924,0.0047308132021712055
0.1615345,0.004554310249482185,0.0006423048220952444,0.0010510337259486719,0.03488634504447921,0.013287088016361203,0.027117062817950226,0.04662924035939737,0.004702570732417314
0.162,0.0045395148026892065,0.0006454370401478805,0.0010405238005933059,0.034986958406880965,0.01323229938992156,0.027046089753550436,0.04658158021471598,0.004674331841883745
0.1624655,0.004525284565987626,0.0006490403766317893,0.001030374873687406,0.03508615935288639,0.013177547721761256,0.02697603682536866,0.04653236753778847,0.004646096433969572
0.162931,0.004511619937480478,0.0006531120065981701,0.0010205843512778705,0.03518394744191737,0.013122832611520242,0.026906911200089475,0.04648160591262485,0.004617864429525168
0.1633966,0.004498521329595632,0.000657649106695362,0.0010111495924195457,0.03528032259600773,0.013068153643584551,0.026838719675652174,0.046429299045965995,0.00458963576972829
0.1638621,0.004485989170521543,0.0006626488567457067,0.0010020679101802978,0.035375285095777455,0.013013510389814353,0.0267714686796032,0.04637545076659681,0.004561410418981663
0.1643276,0.004474023905634347,0.0006681084412947386,0.0009933365726452125,0.03546883557627839,0.012958902412297064,0.026705164267592636,0.04632006502459259,0.004533188367831109
0.1647931,0.004462625998915821,0.0006740250511324728,0.00098495280391983,0.03556097502271671,0.01290432926612426,0.026639812122015542,0.04626314589049966,0.00450496963590323
0.1652586,0.004451795934361727,0.000680395884786567,0.0009769137851323123,0.03565170476605729,0.012849790502191195,0.026575417550798758,0.046204697554451835,0.004476754274861663
0.1657241,0.004441534217380008,0.0006872181499871467,0.0009692166554344376,0.03574102647851497,0.012795285670017543,0.02651198548633356,0.046144724325224505,0.004448542371380893
0.1661897,0.004431841376178318,0.0006944890651030872,0.0009618585130013085,0.03582894216893769,0.012740814320588063,0.02644952048455451,0.04608323062922769,0.004420334050136573
0.1666552,0.004422717963140296,0.0007022058605495612,0.0009548364160296554,0.035915454178086295,0.012686376009211693,0.026388026724164744,0.04602022100943979,0.004392129476811291
0.1671207,0.004414164556189991,0.0007103657801666735,0.0009481473837346079,0.03600056517381557,0.012631970298397627,0.026327508006007815,0.04595570012428334,0.00436392886111466
0.1675862,0.0044061817601438145,0.0007189660825690142,0.0009417883973448033,0.03608427814616106,0.012577596760746835,0.026267967752586215,0.04588967274644398,0.004335732459816598
0.1680517,0.0043987702080493735,0.0007280040424659827,0.0009357564010956934,0.03616659640233604,0.012523254981857409,0.02620940900772665,0.04582214376163455,0.004307540579792658
0.1685172,0.004391930562510542,0.0007374769519527456,0.0009300483032209069,0.03624752356164265,0.012468944563241996,0.026151834436392157,0.04575311816730674,0.004279353581080214
0.1689828,0.004385663516998137,0.000747382121771699,0.0009246609769415187,0.03632706355030128,0.012414665125255558,0.026095246324641243,0.04568260107131352,0.0042511718799443324
0.1694483,0.004379969797145562,0.00075771688254431,0.0009195912614530707,0.03640522059620184,0.012360416310031545,0.026039646579733993,0.04561059769052657,0.0042229959519521085
0.1699138,0.0043748501620288335,0.0007684785859732179,0.0009148359629101879,0.03648199922358043,0.01230619778442454,0.02598503673038522,0.045537113349413676,0.004194826335054229
0.1703793,0.004370305405430379,0.0007796646060144718,0.0009103918554086252,0.03655740424762465,0.012252009242957341,0.025931417927164472,0.045462153478581346,0.004166663632672505
0.1708448,0.004366336357086076,0.0007912723400197831,0.0009062556819645791,0.03663144076901035,0.012197850410770433,0.0258787909430428,0.045385723613288,0.004138508516792102
0.1713103,0.004362943883914993,0.0008032992098486753,0.0009024241554910959,0.036704114168372534,0.012143721046571788,0.025827156174086093,0.04530782939193279,0.004110361731057179
0.1717759,0.004360128891231386,0.000815742662950412,0.0008988939597714074,0.03677543010071282,0.012089620945584825,0.025776513640294967,0.045228476554524936,0.0040822240938686236
0.1722414,0.004357892323938513,0.0008286001734155977,0.0008956617504290216,0.03684539448974531,0.012035549942492384,0.02572686298659095,0.04514767094113804,0.004054096501482592
0.1727069,0.004356235167703879,0.0008418692429973466,0.0008927241558943952,0.036914013522182806,0.011981507914374561,0.02567820348394895,0.04506541849035389,0.004025979931108497
0.1731724,0.004355158450115562,0.0008555474021019248,0.0008900777783680136,0.03698129364196466,0.011927494783638254,0.02563053403067576,0.04498172523769977,0.0039978754440050885
0.1736379,0.00435466324181927,0.0008696322107487877,0.0008877191947797009,0.03704724154442761,0.011873510520936256,0.02558385315383444,0.04489659731408336,0.003969784188573239
0.1741034,0.004354750657635847,0.0008841212594999391,0.0008856449577439803,0.037111864170420256,0.01181955514807372,0.02553815901081444,0.044810040944229086,0.0039417074034440195
0.174569,0.0043554218576589135,0.0008990121703585493,0.0008838515965113068,0.03717516870036186,0.011765628740899802,0.02549344939104739,0.044722062445119594,0.003913646420560643
0.1750345,0.0043566780483323695,0.0009143025976367827,0.0008823356179149903,0.03723716254824555,0.011711731432182286,0.02544972171786811,0.04463266822444633,0.0038856026682528534
0.1755,0.004358520483507474,0.0009299902287927819,0.000881093507313626,0.03729785335558601,0.011657863414462953,0.02540697305052069,0.04454186477907299,0.003857577674302319
0.1759655,0.004360950465479202,0.0009460727852367669,0.0008801217295288504,0.037357248985311155,0.011604024942891403,0.02536520008630896,0.04444965869351554,0.003829573068997625
0.176431,0.0043639693460015795,0.0009625480231062044,0.0008794167297782363,0.03741535751559724,0.011550216338035055,0.025324399162890622,0.044356056638442755,0.003801590588177399
0.1768966,0.004367578527281665,0.0009794137340100042,0.0008789749346031456,0.03747218723364659,0.011496437988663018,0.025284566260714198,0.04426106536920096,0.0037736320762601317
0.1773621,0.004371779462951822,0.0009966677457417003,0.0008787927527913581,0.03752774662940713,0.011442690354501496,0.025245697005597555,0.044164691724366774,0.0037456994892592285
0.1778276,0.004376573659019927,0.0010143079229615695,0.0008788665762943034,0.037582044389232745,0.011388973968958481,0.02520778667144683,0.044066942624331376,0.0037177948977817933
0.1782931,0.004381962674797148,0.0010323321678476457,0.0008791927811387268,0.037635089389483734,0.011335289441815504,0.025170830183114473,0.04396782506991982,0.003689920490009656
0.1787586,0.004387948123802926,0.0010507384207155929,0.0008797677283326294,0.03768689069006658,0.011281637461884339,0.0251348221193949,0.043867346141048494,0.0036620785746611173
0.1792241,0.004394531674646832,0.0010695246606074141,0.0008805877647653255,0.037737457527912806,0.011228018799626576,0.025099756716156357,0.04376551299542402,0.0036342715839318652
0.1796897,0.00440171505188697,0.0010886889058489841,0.00088164922410147,0.037786799310396586,0.011174434309734005,0.025065627869607175,0.04366233286728658,0.0036065020764134946
0.1801552,0.004409500036864648,0.0011082292145764062,0.0008829484276689065,0.03783492560869149,0.011120884933667698,0.025032429139694685,0.04355781306620052,0.0035787727399880344
0.1806207,0.0044178884685150376,0.0011281436852312084,0.0008844816853401879,0.03788184615106688,0.011067371702153694,0.025000153753634742,0.0434519609758951,0.0035510863946968648
0.1810862,0.004426882244153606,0.001148430457024402,0.0008862452964076303,0.037927570816124904,0.011013895737633067,0.024968794609569762,0.04334478405315802,0.00352344599558238
0.1815517,0.004436483320238104,0.0011690877103694357,0.0008882355504517655,0.03797210962597943,0.010960458256664207,0.024938344280352964,0.04323628982678431,0.003495854635500738
0.1820172,0.004446693713105947,0.0011901136672840987,0.0008904487282030632,0.03801547273937829,0.01090706057227509,0.024908795017456593,0.04312648589658299,0.0034683155479040147
0.1824828,0.004457515499686827,0.0012115065917614506,0.0008928811023968014,0.03805767044477034,0.010853704096263347,0.024880138755001464,0.04301537993244349,0.00344083210959008
0.1829483,0.004468950818190442,0.001233264790109879,0.0008955289386209698,0.03809871315331879,0.010800390341442052,0.024852367113905347,0.042902979673464,0.0034134078434184876
0.1834138,0.00448100186876925,0.001255386611262413,0.0008983884961571009,0.03813861139186215,0.01074712092382929,0.024825471406147433,0.04278929292714314,0.0033860464209906705
0.1838793,0.004493670914156206,0.0012778704470554345,0.000901456028813931,0.03817737579582411,0.010693897564779755,0.024799442639146033,0.042674327568636386,0.00335875166529271
0.1843448,0.00450696028027745,0.0013007147324769525,0.0009047277857538077,0.03821501710207345,0.010640722093056791,0.024774271520246655,0.042558091540078224,0.00333152755329894
0.1848103,0.004520872356839975,0.0013239179458846074,0.0009082000123117694,0.03825154614173517,0.010587596446843374,0.02474994846131767,0.04244059284997062,0.003304378218534626
0.1852759,0.004535409597894336,0.0013474786091935906,0.0009118689508072199,0.03828697383295385,0.01053452267569052,0.024726463583450698,0.04232183957263808,0.003277307953595939
0.1857414,0.0045505745223724525,0.0013713952880346648,0.000915730841348131,0.03832131117361026,0.01048150294240163,0.02470380672176298,0.04220183984774917,0.003250321212625424
0.1862069,0.0045663697146005764,0.0013956665918824745,0.0009197819226276997,0.03835456923399271,0.010428539524851262,0.02468196743029882,0.0420806018799041,0.00322342261374115
0.1866724,0.004582797824787496,0.0014202911741543268,0.0009240184327133931,0.038386759149424715,0.010375634817736961,0.024660934987027587,0.0419581339382877,0.003196616941417708
0.1871379,0.004599861569487984,0.0014452677322796413,0.0009284366098283171,0.03841789211285163,0.010322791334262817,0.024640698398935814,0.04183444435638663,0.0031699091488172236
0.1876034,0.004617563732041508,0.0014705950077402588,0.0009330326931248443,0.03844797936738941,0.010270011707753674,0.02462124640721114,0.04170954153176963,0.0031433043600685292
0.188069,0.004635907162986171,0.0014962717860818066,0.0009378029234504472,0.03847703219883968,0.01021729869319904,0.024602567492515895,0.041583433925929295,0.0031168078724926472
0.1885345,0.0046548947804478345,0.0015222968968963268,0.0009427435441056861,0.038505061928176106,0.010164655168725837,0.02458464988034846,0.04145613006418364,0.0030904251587727336
0.189,0.004674529570504343,0.001548669213776371,0.0009478508015943069,0.03853207990400759,0.010112084136999242,0.024567481546490605,0.04132763853563601,0.0030641618690666022
0.1894655,0.004694814587524765,0.0015753876542407563,0.0009531209463654146,0.03855809749502454,0.010059588726550819,0.024551050222539166,0.04119796799319203,0.003038023833059957
0.189931,0.004715752954483554,0.0016024511796321817,0.0009585502335476865,0.038583126082434714,0.010007172193033173,0.02453534340152064,0.04106712715363278,0.003012017061958423
0.1903966,0.004737347863249528,0.0016298587949868952,0.000964134923675589,0.03860717705239506,0.00995483792040033,0.024520348343587114,0.04093512479774405,0.0029861477504164657
0.1908621,0.0047596025748495845,0.0016576095488765952,0.0009698712834075588,0.0386302617884463,0.009902589422013117,0.024506052081792115,0.04080196977050167,0.002960422278401265
0.1913276,0.0047825204197070635,0.001685702533222746,0.0009757555862360997,0.03865239166395638,0.009850430341668956,0.024492441427944794,0.04066767098131338,0.002934847212989613
0.1917931,0.004806104797854681,0.0017141368830834803,0.0009817841131897441,0.03867357803457908,0.009798364454555583,0.024479502978540846,0.040532237404317335,0.0029094293100959067
0.1922586,0.004830359179121986,0.0017429117764132607,0.0009879531535268255,0.03869383223073373,0.009746395668128406,0.02446722312076843,0.04039567807873736,0.0028841755161293
0.1927241,0.004855287103297276,0.0017720264337954643,0.000994259005421002,0.03871316555011167,0.009694528022911318,0.02445558803858735,0.04025800210929465,0.002859092969578079
0.1931897,0.004880892180263966,0.0018014801181480459,0.0010006979766384687,0.03873158925021525,0.009642765693220931,0.02444458371887952,0.04011921866667539,0.0028341890025193367
0.1936552,0.004907178090111403,0.0018312721344024335,0.0010072663852067954,0.03874911454093454,0.009591112987814282,0.024434195957668808,0.03997933698805339,0.0028094711420520013
0.1941207,0.004934148583220167,0.0018614018291557943,0.0010139605600753218,0.03876575257716703,0.009539574350460035,0.02442441036640816,0.039838366377666655,0.002784947111651282
0.1945862,0.004961807480321908,0.0018918685902968092,0.0010207768417670447,0.038781514451485075,0.009488154360433277,0.024415212378331975,0.039696316207446264,0.0027606248324425976
0.1950517,0.00499015867253378,0.0019226718466050891,0.0010277115830219373,0.038796411186855694,0.00943685773293395,0.024406587254871614,0.03955319591769589,0.0027365124243930858
0.1955172,0.005019206121367555,0.0019538110673243685,0.001034761149431657,0.0388104537294171,0.00938568931942889,0.024398520092132368,0.039409015017819765,0.002712618207418798
0.1959828,0.005048953858713466,0.0019852857617096292,0.0010419219200656182,0.038823652941316095,0.00933465410791747,0.024390995827430196,0.03926378308709662,0.0026889507024057363
0.1964483,0.005079405986798837,0.002017095478548325,0.0010491902880884322,0.03883601959361046,0.009283757223120755,0.0243839992458869,0.039117509775496946,0.002665518632142881
0.1969138,0.005110566678121514,0.0020492398056558975,0.001056562661368744,0.038847564359240645,0.009233003926594178,0.0243775149870825,0.03897020480454054,0.0026423309221653914
0.1973793,0.0051424401753581055,0.0020817183693458037,0.0010640354630795097,0.03885829780607531,0.009182399616763674,0.02437152755176344,0.03882187796819104,0.0026193967015061665
0.1978448,0.005175030791246994,0.0021145308338743,0.001071605132289771,0.038868230390035334,0.00913194982888523,0.024366021308605566,0.038672539133783976,0.002596725303354011
0.1983103,0.0052083429084460765,0.0021476769008602578,0.0010792681245479958,0.03887737244830115,0.009081660234927786,0.024360980501030517,0.038522198242984605,0.002574326265616736
0.1987759,0.005242380979365155,0.002181156308680335,0.0010870209124570424,0.03888573419260828,0.009031536643379356,0.02435638925407442,0.038370865312771577,0.0025522093313876137
0.1992414,0.005277149525972868,0.0022149688318398647,0.0010948599862408094,0.03889332570263604,0.008981584998976262,0.024352231581307702,0.038218550436442435,0.002530384449313715
0.1997069,0.005312653139578028,0.00224911428031988,0.0011027818543026214,0.03890015691949455,0.008931811382355322,0.02434849139180483,0.03806526378463661,0.002508861773864771
0.2001724,0.0053488964805852215,0.0022835924989007363,0.0011107830437754017,0.03890623763931514,0.00888222200962891,0.024345152497162903,0.03791101560637165,0.0024876516655012934
0.2006379,0.005385884278224506,0.0023184033664628532,0.0011188601010636715,0.03891157750694916,0.008832823231882747,0.024342198618568033,0.03775581623008843,0.00246676469074076
0.2011034,0.005423621330255019,0.002353546795265123,0.0011270095923774117,0.03891618600978016,0.008783621534596484,0.02433961339390859,0.03759967606470143,0.0024462116221207974
0.201569,0.005462112502642344,0.002389022730201563,0.001135228104257814,0.038920072471654237,0.008734623536987058,0.024337380384934493,0.037442605600650145,0.0024260034380583916
0.2020345,0.005501362729209429,0.0024248311480368034,0.001143512244094944,0.038923246046933195,0.008685835991274935,0.024335483084461637,0.03728461541094845,0.002406151322604284
0.2025,0.0055413770112608994,0.002460972056621001,0.0011518586406373266,0.038925715714675166,0.008637265781873273,0.024333904923620565,0.03712571615222882,0.002386666665091808
0.2029655,0.005582160417180632,0.0024974454940847645,0.0011602639444934666,0.038927490272947333,0.008588919924500052,0.02433262927914839,0.03696591856577868,0.002367561059679469
0.203431,0.0056237180820024124,0.002534251528014674,0.0011687248286253078,0.038928578333275295,0.008540805565213175,0.024331639480722714,0.036805233478566186,0.0023488463047865913
0.2038966,0.005666055206953578,0.0025713902546099596,0.0011772379888336263,0.03892898831523347,0.008492929979368463,0.024330918818336347,0.03664367180425276,0.002330534402421364
0.2043621,0.005709177058971527,0.0026088617978209157,0.0011858001442353538,0.03892872844118068,0.008445300570500436,0.02433045054971139,0.036481244544189544,0.0023126375574006207
0.2048276,0.005753088970193004,0.0026466663084696285,0.0011944080377328122,0.038927806731144925,0.00839792486912573,0.024330217907751167,0.03631796278839533,0.002295168176460685
0.2052931,0.005797796337416077,0.002684803963353593,0.0012030584364748406,0.03892623099786116,0.008350810531468909,0.024330204108028303,0.036153837716513,0.0022781388672586268
0.2057586,0.005843304621534714,0.002723274964332818,0.0012117481323097852,0.03892400884196585,0.008303965338110425,0.024330392356307146,0.03598888059874192,0.0022615624372632702
0.2062241,0.005889619346945893,0.002762079537401016,0.0012204739422303323,0.03892114764735198,0.0082573971925564,0.02433076585609863,0.03582310279674331,0.0022454518925353103
0.2066897,0.005936746100929096,0.0028012179317415,0.0012292327088101616,0.03891765457668842,0.008211114119729879,0.02433130781624534,0.03565651576451588,0.002229820436395901
0.2071552,0.0059846905329980745,0.0028406904187684265,0.0012380213006324108,0.03891353656710742,0.008165124264383214,0.02433200145853452,0.035489131049238724,0.002214681467983102
0.2076207,0.006033458354224686,0.002880497291154062,0.0012468366127099508,0.038908800326064266,0.00811943588943119,0.024332830025336552,0.03532096029207905,0.002200048580695607
0.2080862,0.006083055336534667,0.002920638861842763,0.0012556755668974916,0.03890345232737336,0.008074057374204559,0.024333776787266285,0.03515201522896196,0.002185935560523209
0.2085517,0.006133487311975103,0.002961115463052393,0.0012645351122955529,0.038897498807425074,0.008028997212623679,0.024334825050864532,0.03498230769130012,0.0021723563842634855
0.2090172,0.0061847601719534065,0.003001927445263922,0.001273412225646352,0.03889094576158766,0.00798426401129201,0.02433595816629706,0.03481184960668048,0.002159325217624225
0.2094828,0.006236879866447593,0.003043075176199967,0.0012823039117216802,0.038883798940798464,0.007939866487509373,0.024337159535068396,0.03464065299950602,0.0021468564132111215
0.2099483,0.006289852403187631,0.003084559039793069,0.0012912072037028354,0.03887606384834856,0.007895813467204959,0.024338412617747832,0.034468729991589855,0.002134964508400271
0.2104138,0.006343683846807654,0.003126379435144509,0.0013001191635526991,0.03886774573686447,0.007852113882790208,0.024339700941705084,0.03429609280269989,0.0021236642230950194
0.2108793,0.006398380317968829,0.0031685367754745075,0.0013090368823800267,0.03885884960549065,0.007808776770931739,0.024341008108853042,0.03412275375105223,0.002112970457366688
0.2113448,0.006453947992452679,0.003211031487064646,0.0013179574807960241,0.03884938019727597,0.0077658112702445395,0.024342317803395054,0.03394872525375205,0.002102898288978742
0.2118103,0.00651039310022468,0.0032538640081933817,0.0013268781092632804,0.03883934199676705,0.0077232266189057215,0.024343613799574174,0.03377401982718107,0.002093462970793959
0.2122759,0.006567721924467972,0.0032970347880655194,0.0013357959484371106,0.038828739227811444,0.007681032152189214,0.024344879969421748,0.033598650087330886,0.0020846799280642004
0.2127414,0.006625940800587048,0.003340544285736518,0.001344708209499365,0.038817575851573125,0.00763923729992183,0.0243461002905027,0.033422628750081444,0.0020765647556024148
0.2132069,0.006685056115181331,0.003384392969032491,0.0013536121344847507,0.03880585556476265,0.007597851583861248,0.02434725885365512,0.03324596863142381,0.0020691332148365217
0.2136724,0.006745074304988545,0.003428581313466757,0.0013625049965997117,0.03879358179808422,0.0075568846149965535,0.02434833987072145,0.03306868264762643,0.002062401230744869
0.2141379,0.006806001855797811,0.0034731098011537968,0.0013713841005338957,0.03878075771490166,0.007516346090772092,0.024349327682268773,0.032890783815343994,0.002056384888672983
0.2146034,0.006867845301332376,0.0035179789197214476,0.001380246782764247,0.03876738621012497,0.007476245792235531,0.02435020676529553,0.03271228525166809,0.0020511004310313774
0.215069,0.006930611222101887,0.0035631891612221546,0.0013890904118517467,0.03875346990931915,0.0074365935811110985,0.024350961740921967,0.03253320017411868,0.0020465642538742535
0.2155345,0.0069943062442240885,0.003608741021044108,0.0013979123887308319,0.038739011168036554,0.0073973993967990604,0.024351577382061538,0.03235354190057541,0.0020427929033589973
0.216,0.007058937038215787,0.0036546349968230724,0.0014067101469915195,0.038724012071373735,0.007358673253302494,0.02435203862107029,0.03217332384914762,0.0020398030720865062
0.2164655,0.007124510317752899,0.0037008715873557284,0.001415481153154249,0.03870847443375378,0.007320425236082405,0.024352330557371245,0.03199255953798173,0.0020376115953225395
0.216931,0.007191032838399335,0.0037474512915153316,0.0014242229069374654,0.03869239979893453,0.007282665498842289,0.024352438465050842,0.03181126258500463,0.0020362354471004603
0.2173966,0.007258511396304414,0.003794374607170489,0.0014329329415179496,0.03867578944024311,0.007245404260243241,0.02435234780042412,0.031629446707601226,0.00203569173620588
0.2178621,0.007326952826868493,0.0038416420301078708,0.0014416088237838983,0.0386586443610367,0.007208651800550735,0.02435204420956552,0.03144712572222474,0.002035997702043791
0.2183276,0.007396364003376421,0.0038892540529596744,0.0014502481545807552,0.03864096529538938,0.007172418458214342,0.024351513535801894,0.03126431354393767,0.0020371707103888147
0.2187931,0.007466751835598414,0.003937211164136658,0.0014588485689497862,0.03862275270900433,0.007136714626381653,0.024350741827164242,0.031081024185881906,0.002039228249019217
0.2192586,0.007538123268357893,0.0039855138467675645,0.0014674077363593936,0.03860400680035071,0.007101550749347767,0.02434971534379455,0.030897271758676154,0.00204218792323536
0.2197241,0.007610485280065852,0.004034162577645736,0.0014759233609291593,0.03858472750202401,0.007066937318941789,0.024348420565303956,0.03071307046973896,0.0020460674512632806
0.2201897,0.007683844881221252,0.00408315782618369,0.0014843931816466004,0.03856491448232857,0.007032884870851783,0.02434684419807831,0.03052843462253557,0.002050884659544135
0.2206552,0.007758209112877001,0.0041325000533764126,0.001492814972576635,0.038544567147080704,0.006999403980889705,0.02434497318252707,0.030343378615746815,0.0020566574779103367
0.2211207,0.007833585045071076,0.004182189710774083,0.0015011865430637355,0.038523684641630605,0.006966505261197969,0.02434279470027128,0.03015791694235834,0.0020634039346493086
0.2215862,0.007909979775222405,0.004232227239464909,0.0015095057379267702,0.038502265853101035,0.006934199356399357,0.024340296181266364,0.0299720641886684,0.002071142151455889
0.2220517,0.007987400426491195,0.0042826130690687345,0.0015177704376465278,0.0384803094128406,0.006902496939692178,0.024337465310855105,0.02978583503321321,0.0020798903382745347
0.2225172,0.008065854146103453,0.004333347616742022,0.0015259785585459338,0.0384578136990892,0.006871408708892609,0.024334290036746177,0.02959924424560904,0.002089666788032532
0.2229828,0.008145348103639479,0.004384431286194798,0.0015341280529629722,0.03843477683985301,0.00684094538242623,0.024330758575913415,0.02941230668531097,0.0021004898712654848
0.2234483,0.008225889489286231,0.004435864466720123,0.0015422169094163362,0.038411196715986244,0.006811117695270756,0.02432685942141082,0.029225037300288595,0.0021123780306364043
0.2239138,0.008307485512053412,0.00448764753223659,0.001550243152763828,0.03838707096447669,0.006781936394851981,0.024322581349098107,0.029037451125619142,0.0021253497753497943
0.2243793,0.008390143397953253,0.0045397808403443715,0.0015582048443535301,0.0383623969819324,0.006753412236894889,0.02431791342427159,0.028849563281998666,0.0021394236754621967
0.2248448,0.008473870388143975,0.004592264731395278,0.001566100082167768,0.03833717192826669,0.0067255559812319735,0.02431284500819481,0.02866138897417209,0.002154618356090765
0.2253103,0.00855867373703691,0.004645099527577306,0.0015739270009598886,0.03831139273057879,0.006698378387570737,0.024307365764523366,0.02847294348928302,0.002170952491521513
0.2257759,0.008644560710367259,0.004698285532014148,0.0015816837723838643,0.03828505608722789,0.006671890211222389,0.024301465665618124,0.02828424219514439,0.0021884447992189973
0.2262414,0.008731538583228437,0.004751823027880096,0.0015893686051167309,0.038258158472097924,0.006646102198793707,0.024295134998740926,0.028095300538431213,0.002207114033739319
0.2267069,0.008819614638069928,0.004805712277530787,0.0015969797449738546,0.038230696139051126,0.006621025083844065,0.02428836437212672,0.027906134042796484,0.0022269789805484993
0.2271724,0.0089087961626585,0.004859953521650171,0.001604515475017014,0.038202665126568176,0.006596669582509589,0.024281144720925824,0.02771675830691133,0.00224805844974845
0.2276379,0.008999090448002633,0.0049145469784141055,0.0016119741156552748,0.03817406126257283,0.006573046389096401,0.024273467313010045,0.02752718900243036,0.0022703712697129184
0.2281034,0.009090504786240017,0.004969492842670909,0.0016193540247386353,0.038144880169438775,0.006550166171644928,0.024265323754636126,0.027337441871883077,0.0022939362806358677
0.228569,0.009183046468487914,0.00502479128513924,0.0016266535976444134,0.038115117269176234,0.006528039567467185,0.024256705995959842,0.02714753272649235,0.002318772327994793
0.2290345,0.009276722782656179,0.005080442451623682,0.0016338712673563702,0.03808476778879557,0.0065066771786589876,0.024247606336394025,0.026957477443920838,0.002344898255931498
0.2295,0.009371541011222718,0.005136446462248392,0.0016410055045365673,0.03805382676584512,0.006486089567589046,0.024238017429803558,0.026767291965946658,0.002372332900552877
0.2299655,0.009467508428971164,0.005192803410709258,0.0016480548175899774,0.038022289054120174,0.006466287252366846,0.024227932289530487,0.026576992296069562,0.0024010950831542953
0.230431,0.009564632300690525,0.005249513363544957,0.0016550177527218713,0.03799014932953966,0.006447280702291221,0.024217344293242227,0.02638659449704906,0.002431203603368202
0.2308966,0.009662919878836563,0.005306576359427312,0.0016618928939880016,0.037957402096187136,0.006429080333281503,0.024206247187595807,0.026196114688375988,0.0024626772322406607
0.2313621,0.009762378401154629,0.0053639924084713094,0.001668678863337602,0.03792404169251227,0.006411696503293171,0.024194635092711213,0.02600556904367912,0.0024955347052385258
0.2318276,0.009863015088263686,0.0054217614915650966,0.0016753743206492228,0.03789006229768888,0.00639513950771986,0.024182502506446896,0.025814973788068442,0.002529794715190023
0.2322931,0.009964837141201227,0.005479883559720243,0.0016819779637594146,0.037855457938125295,0.0063794195747836225,0.024169844308470773,0.025624345195416797,0.002565475905161532
0.2327586,0.010067851738928801,0.00553835853344251,0.0016884885284842715,0.03782022249412265,0.006364546860915317,0.02415665576412008,0.025433699585581553,0.0026025968612733976
0.2332241,0.010172066035797895,0.0055971863021233095,0.0016949047886338487,0.037784349706676844,0.006350531446126984,0.024142932528043785,0.02524305332156786,0.0026411761054576316
0.2336897,0.010277487158975999,0.00565636672345203,0.0017012255560194577,0.037747833184419446,0.006337383329378087,0.024128670647621156,0.025052422806634816,0.0026812320881603995
0.2341552,0.010384122205832819,0.005715899622849342,0.001707449680453845,0.03771066641069335,0.006325112423937476,0.02411386656615015,0.024861824481345822,0.002722783180992205
0.2346207,0.010491978241286693,0.005775784792921559,0.0017135760497442496,0.03767284275075875,0.006313728552742932,0.024098517125799294,0.024671274820564176,0.002765847669328714
0.2350862,0.010601062295111437,0.005836021992936104,0.0017196035896783366,0.03763435545912522,0.006303241443760141,0.024082619570316734,0.024480790330394873,0.002810443744865178
0.2355517,0.010711381359203787,0.005896610948318096,0.0017255312640030007,0.037595197687005734,0.006293660725342876,0.024066171547490123,0.02429038754507338,0.0028565894981274647
0.2360172,0.0108229423848117,0.005957551350168025,0.0017313580743960329,0.037555362489888465,0.006284995921596175,0.024049171111351225,0.02410008302380209,0.002904302910942734
0.2364828,0.010935752279723676,0.006018842854800448,0.0017370830604306324,0.03751484283522207,0.006277256447744254,0.02403161672411944,0.023909893347535037,0.0029536018488728073
0.2369483,0.011049817905419219,0.006080485083303592,0.001742705299532734,0.037473631610210195,0.006270451605504885,0.024013507257878645,0.023719835115711293,0.003004504053613325
0.2374138,0.011165146074180586,0.006142477621119768,0.001748223906931115,0.03743172162971065,0.006264590578471973,0.023994841995982313,0.023529924942937513,0.003057027135361793
0.2378793,0.011281743546165957,0.006204820017646442,0.0017536380356002437,0.03738910564423488,0.006259682427508044,0.02397562063418249,0.02334017945562019,0.003111188565157649
0.2383448,0.011399617026444228,0.006267511785857835,0.0017589468761958103,0.03734577634804315,0.006255736086148351,0.023955843281478945,0.02315061528854818,0.003167005667197499
0.2388103,0.011518773161991663,0.006330552401946938,0.0017641496569828928,0.03730172638733131,0.006252760356018312,0.023935510460685885,0.02296124908142645,0.0032244956111287058
0.2392759,0.01163921853865073,0.006393941304987844,0.0017692456437567003,0.03725694836850478,0.006250763902265934,0.023914623108714332,0.0227720974753618,0.003283675404324511
0.2397414,0.0117609596780516,0.006457677896618332,0.00177423413975584,0.03721143486653558,0.006249755249010973,0.023893182576568958,0.02258317710930148,0.0033445618841439037
0.2402069,0.011884003034497029,0.006521761540742655,0.0017791144855680548,0.03716517843339841,0.006249742774812516,0.023871190629058944,0.022394504616425413,0.0034071717101794405
0.2406724,0.012008354991811543,0.006586191563254507,0.0017838860590283947,0.037118171606581374,0.0062507347081567684,0.02384864944422282,0.02220609662049278,0.003471521356496252
0.2411379,0.012134021860156205,0.006650967251780165,0.0017885482751097866,0.037070406917667165,0.006252739122966789,0.02382556161246778,0.022017969732143653,0.003537627103865454
0.2416034,0.012261009872810376,0.006716087855441781,0.0017931005858059905,0.03702187690097985,0.0062557639341359545,0.023801930135424403,0.021830140545156584,0.0036055050319951745
0.242069,0.012389325182922167,0.006781552584640796,0.001797542480006945,0.0369725741022926,0.006259816893086926,0.023777758424517983,0.021642625632662796,0.003675171011762411
0.2425345,0.01251897386022928,0.006847360610861404,0.0018018734833665226,0.036922491087591096,0.006264905583357912,0.023753050299257922,0.02145544154331779,0.0037466406974488993
0.243,0.012649961887752047,0.006913511066493935,0.0018060931581627404,0.036871620451887265,0.006271037416217998,0.02372780998524684,0.02126860479743122,0.0038199295189841795
0.2434655,0.012782295158460433,0.0069800030446779985,0.0018102011031504825,0.036819954828077796,0.00627821962631336,0.02370204211191139,0.021082131883055976,0.003895052674199033
0.243931,0.012915979471916703,0.007046835599165175,0.0018141969534067937,0.03676748689584165,0.00628645926734615,0.023675751709957102,0.020896039252037757,0.003972025121092446
0.2443966,0.013051020530895378,0.007114007744201007,0.0018180803801688046,0.036714209390570636,0.006295763207787864,0.02364894420855002,0.020710343316026832,0.004050861570115295
0.2448621,0.013187423937982085,0.007181518454425971,0.001821851090664339,0.03666011511232685,0.006306138126629103,0.023621625432228056,0.020525060442453977,0.004131576476473964
0.2453276,0.01332519519215284,0.007249366664795123,0.001825508827935251,0.03660519693482082,0.006317590509167637,0.023593801597545202,0.02034020695047287,0.004214184032457148
0.2457931,0.013464339685335287,0.007317551270515989,0.001829053370653529,0.03654944781440399,0.00633012664283683,0.02356547930945186,0.020155799106871368,0.00429869815978913
0.2462586,0.013604862698953404,0.007386071127004271,0.0018324845329301936,0.036492860799069264,0.006343752613076527,0.023536665557414627,0.019971853121954056,0.004385132502012893
0.2467241,0.013746769400457139,0.007454925049856845,0.0018358021641170159,0.03643542903745337,0.00635847429924865,0.023507367711278974,0.0197883851453985,0.0044735004169064495
0.2471897,0.013890064839838312,0.007524111814841531,0.0018390061486010766,0.03637714578783482,0.006374297370599762,0.02347759351687859,0.019605411262087417,0.004563814968935807
0.2476552,0.014034753946134081,0.007593630157903038,0.0018420964055921947,0.03631800442712128,0.006391227282272974,0.023447351091395348,0.019422947487918844,0.004656088921748016
0.2481207,0.014180841523919154,0.0076634787751844674,0.0018450728889032701,0.036257998459820466,0.0064092692713715,0.02341664891847456,0.01924100976559645,0.004750334730707739
0.2485862,0.014328332249787913,0.007733656323063772,0.0018479355867236011,0.036197121526988375,0.00642842835307617,0.023385495843100488,0.019059613960401917,0.004846564535480757
0.2490517,0.01447723066882753,0.0078041614182045235,0.0018506845213852635,0.03613536741514888,0.006448709316819199,0.023353901066237727,0.018878775855951553,0.0049447901526678256
0.2495172,0.014627541191083178,0.007874992637620325,0.0018533197491226656,0.03607273006517846,0.006470116722516437,0.023321874139244376,0.01869851114993931,0.005045023068492274
0.2499828,0.014779268088016377,0.007946148518752229,0.0018558413598254125,0.036009203581149764,0.006492654896860255,0.023289424958063177,0.01851883544986841,0.00514727443154472
0.2504483,0.014932415488957587,0.008017627559558503,0.0018582494767846426,0.03594478223912791,0.006516327929675251,0.023256563757197035,0.01833976426877391,0.005251555045588244
0.2509138,0.015086987377554,0.008089428218616135,0.0018605442564330274,0.03587946049591322,0.006541139670338894,0.02322330110347543,0.01816131302093849,0.005357875362427343
0.2513793,0.015242987588213542,0.008161548915233493,0.0018627258880786494,0.035813232997724605,0.006567093724269218,0.023189647889618453,0.01798349701760393,0.005466245474843939
0.2518448,0.015400419802546085,0.00823398802957365,0.0018647945936329856,0.03574609458881787,0.006594193449481682,0.023155615327605406,0.017806331462680874,0.005576675109603691
0.2523103,0.015559287545802861,0.008306743902787884,0.0018667506273332476,0.03567804032003344,0.00662244195321725,0.023121214941855026,0.017629831448459664,0.005689173620535839
0.2527759,0.01571959418331525,0.008379814837158992,0.0018685942754593469,0.035609065457267976,0.006651842088643754,0.023086458562224483,0.017454011951325264,0.005803749981689777
0.2532414,0.015881342916934205,0.008453199096254043,0.0018703258560457564,0.035539165489864154,0.006682396451632517,0.0230513583168343,0.017278887827479304,0.005920412780571548
0.2537069,0.016044536781471764,0.008526894905086258,0.0018719457185885464,0.035468336138912704,0.006714107377612191,0.02301592662472618,0.017104473808672357,0.0060391702114634275
0.2541724,0.016209178641146033,0.008600900450285692,0.0018734542437478686,0.03539657336546054,0.006746976938501755,0.02298017618836069,0.01693078449794949,0.006160030068829745
0.2546379,0.016375271186031184,0.008675213880278414,0.0018748518430461453,0.03532387337861851,0.006781006939724587,0.022944119985961457,0.016757834365412044,0.00628299974081211
0.2551034,0.01654281692851399,0.008749833305473805,0.0018761389585622147,0.03525023264356222,0.006816198917305563,0.022907771263712438,0.016585637743998554,0.0064080862028171315
0.255569,0.016711818199758584,0.008824756798459583,0.0018773160626216637,0.03517564788941927,0.0068525541350530975,0.022871143527814677,0.01641420882528786,0.0065352960111998044
0.2560345,0.016882277146181263,0.008899982394204099,0.0018783836574835671,0.035100116117036194,0.006890073581828102,0.022834250536408987,0.016243561655327324,0.006664635297045635
0.2565,0.017054195725937367,0.008975508090265384,0.001879342275023838,0.035023634606618295,0.006928757968901799,0.022797106291370824,0.01607371013048936,0.00679610976005465
0.2569655,0.017227575705422403,0.00905133184700639,0.0018801924764153721,0.03494620092523599,0.0069686077274043415,0.022759725029983878,0.015904667993359375,0.006929724662530392
0.257431,0.017402418655789606,0.009127451587815798,0.0018809348518051678,0.03486781293419095,0.007009623005866249,0.02272212121649865,0.015736448828658406,0.007065484823477003
0.2578966,0.017578725949486104,0.009203865199333802,0.0018815700199885704,0.03478846879623563,0.007051803667854627,0.02268430953358234,0.01556906605920361,0.0072033946128075435
0.2583621,0.017756498756809767,0.009280570531682169,0.0018820986280807953,0.03470816698263962,0.007095149289706194,0.02264630487366619,0.015402532941909665,0.007343457945666622
0.2588276,0.01793573804248879,0.009357565398697934,0.0018825213511858567,0.034626906280096396,0.007139659158359048,0.022608122330196313,0.01523686256383408,0.007485678276870492
0.2592931,0.01811644456228592,0.009434847578170005,0.001882838892063032,0.03454468579746355,0.0071853322692851124,0.022569777188793876,0.015072067838269313,0.007630058595467712
0.2597586,0.0182986188596292,0.009512414812077976,0.0018830519807909755,0.034461504972329624,0.007232167324525181,0.02253128491833026,0.014908161500884544,0.007776601419423483
0.2602241,0.018482261262271014,0.009590264806832362,0.001883161374429588,0.034377363577400656,0.007280162730828394,0.022492661161922816,0.014745156105919834,0.007925308790430744
0.2606897,0.018667371878977317,0.009668395233515453,0.001883167856679734,0.03429226172669932,0.007329316597897985,0.022453921727856603,0.014583064022435385,0.008076182268851083
0.2611552,0.018853950596248826,0.009746803728121933,0.001883072237540899,0.03420619988156963,0.007379626736745077,0.02241508258043742,0.01442189743061846,0.008229222928788454
0.2616207,0.019041997075076006,0.009825487891798325,0.0018828753529668658,0.03411917885648012,0.007431090658152253,0.02237615983078135,0.014261668318150554,0.008384431353298654
0.2620862,0.019231510747729677,0.009904445291080293,0.0018825780645194822,0.034031199824618476,0.007483705571248645,0.022337169727545906,0.014102388476637308,0.00854180762973747
0.2625517,0.01942249081458909,0.009983673458126754,0.0018821812590205918,0.033942264323270153,0.007537468382198181,0.022298128647607777,0.013944069498103591,0.008701351345250349
0.2630172,0.019614936241009285,0.01006316989094979,0.0018816858482021896,0.033852374258973666,0.007592375693002651,0.022259053086692043,0.013786722771556133,0.00886306158240634
0.2634828,0.0198088457542296,0.010142932053639305,0.0018810927683548453,0.03376153191244472,0.0076484238004211665,0.022219959649957752,0.013630359479615974,0.009026936914979139
0.2639483,0.0200042178403252,0.010222957376581328,0.0018804029799744414,0.033669739943261376,0.007705608695007557,0.022180865042544667,0.013474990595223018,0.009192975403877889
0.2644138,0.020201050741203392,0.01030324325666897,0.001879617467407269,0.03357700139430248,0.007763926060267169,0.022141786060086144,0.013320626878414852,0.009361174593230477
0.2648793,0.020399342451646634,0.010383787057505018,0.00187873723849352,0.03348331969593125,0.007823371271934505,0.02210273957919304,0.013167278873182106,0.009531531506621983
0.2653448,0.020599090716403888,0.010464586109595216,0.001877763324209232,0.03338869866991623,0.007883939397373032,0.022063742547913743,0.013014956904402509,0.009704042643491003
0.2658103,0.020800293027332058,0.01054563771053131,0.0018766967783067374,0.033293142533081785,0.00794562519509845,0.022024811976175552,0.012863671074855835,0.009878703975686512
0.2662759,0.021002946620588943,0.010626939125163076,0.0018755386769536955,0.033196655900680355,0.00800842311442667,0.02198596492621285,0.012713431262321863,0.010055510944187954
0.2667414,0.021207048473879116,0.010708487585758649,0.0018742901183707921,0.033099243789478795,0.00807232729524762,0.0219472185029877,0.012564247116763336,0.010234458455991195
0.2672069,0.021412595303753928,0.010790280292152529,0.0018729522224682038,0.033000911620551236,0.008137331567926034,0.021908589844608528,0.012416128057595835,0.010415540881162953
0.2676724,0.02161958356296669,0.010872314411880829,0.0018715261304809213,0.032901665221770765,0.0082034294533302,0.021870096112752608,0.012269083271046392,0.010598752050066286
0.2681379,0.021828009437883964,0.010954587080303361,0.001870013004603033,0.03280151082999226,0.00827061416298967,0.02183175448309822,0.012123121707602562,0.010784085250759657
0.2686034,0.022037868845953885,0.011037095400712287,0.0018684140276210707,0.032700455092918655,0.00833887859938285,0.021793582135772132,0.011978252079553532,0.010971533226572074
0.269069,0.022249157433232237,0.011119836444427066,0.0018667304025465194,0.03259850507064291,0.008408215356355367,0.02175559624581811,0.011834482858624836,0.01116108817385672
0.2695345,0.022461870571967097,0.011202807250875543,0.0018649633522475919,0.03249566823685826,0.00847861671967,0.021717813973692116,0.011691822273708114,0.011352741739925405
0.27,0.02267600335824291,0.01128600482766098,0.0018631141190803674,0.032391952479729834,0.00855007466768897,0.021680252455789795,0.011550278308687307,0.01154648502116611
0.2704655,0.022891550609684737,0.011369426150614845,0.0018611839645193845,0.03228736610242134,0.008622580872189289,0.021642928795011777,0.0114098587003626,0.011742308561345805
0.270931,0.023108506863223383,0.011453068163835152,0.0018591741687877738,0.03218191782327153,0.008696126699311878,0.021605860051372182,0.011270570936473373,0.011940202350100605
0.2713966,0.02332686637292213,0.011536927779710123,0.0018570860304870044,0.0320756167756162,0.008770703210645044,0.021569063232655682,0.011132422253821349,0.012140155821615229
0.2718621,0.02354662310786551,0.011621001878926953,0.0018549208662263107,0.03196847250725259,0.008846301164442915,0.021532555285128444,0.010995419636494934,0.012342157853493666
0.2723276,0.02376777075011076,0.011705287310465483,0.001852680010251857,0.03186049497954439,0.00892291101697933,0.021496353084307997,0.010859569814195858,0.012546196765822875
0.2727931,0.023990302692702352,0.011789780891576743,0.0018503648140756964,0.031751694566166194,0.009000522924037632,0.0214604734257971,0.010724879260668941,0.012752260320431214
0.2732586,0.024214212037750066,0.011874479407746318,0.001847976646104576,0.03164208205148732,0.009079126742536744,0.021424933016186407,0.010591354192235778,0.012960335720343288
0.2737241,0.02443949159457088,0.011959379612642785,0.001845516891268651,0.031531668628595154,0.009158712032293835,0.02138974846403063,0.010459000566433096,0.013170409609432762
0.2741897,0.02466613387789498,0.012044478228051493,0.0018429869506501758,0.03142046589695862,0.009239268057923796,0.021354936270902746,0.010327824080756392,0.013382468072274644
0.2746552,0.02489413110613605,0.012129771943794231,0.0018403882411122444,0.03130848585973298,0.0093207837908757,0.021320512822530564,0.010197830171509442,0.013596496634198426
0.2751207,0.025123475199726096,0.01221525741763549,0.0018377221949276556,0.031195740920707794,0.009403247911606337,0.021286494380019956,0.010069024012760108,0.013812480261543353
0.2755862,0.025354157779515045,0.012300931275176202,0.0018349902594079874,0.03108224388090101,0.009486648811890827,0.021252897071168786,0.009941410515402883,0.014030403362117036
0.2760517,0.025586170165235858,0.012386790109735882,0.0018321938965329587,0.030968007934803577,0.009570974597270205,0.02121973688187559,0.009814994326328428,0.014250249785858515
0.2765172,0.025819503374035994,0.012472830482224266,0.0018293345825801711,0.030853046666280266,0.009656213089635867,0.02118702964764688,0.009689779827700373,0.014472002825706758
0.2769828,0.026054148119076453,0.012559048921003515,0.0018264138077553167,0.030737374044133875,0.00974235182995065,0.021154791045206848,0.009565771136339489,0.014695645218675573
0.2774483,0.026290094808199802,0.012645441921742093,0.0018234330758229497,0.030621004417341197,0.009829378081106229,0.02112303658421319,0.009442972103215319,0.014921159147135758
0.2779138,0.02652733354266858,0.012732005947261362,0.0018203939037379105,0.030503952509970206,0.00991727883091646,0.021091781599082583,0.00932138631304524,0.015148526240305257
0.2783793,0.02676585411597546,0.012818737427375873,0.0018172978212774957,0.03038623341578846,0.01000604079524623,0.021061041240929203,0.009201017084000906,0.015377727575947981
0.2788448,0.02700564601272644,0.012905632758728266,0.0018141463706744553,0.03026786259257289,0.010095650421275288,0.021030830469619538,0.009081867467521902,0.015608743682281843
0.2793103,0.027246698407598254,0.012992688304619587,0.0018109411062508945,0.030148855856131074,0.010186093890896487,0.02100116404594663,0.008963940248236433,0.01584155454009646
0.2797759,0.027489000164371325,0.013079900394835677,0.0018076835940531513,0.030029229374043998,0.010277357124247802,0.020972056523926655,0.008847237943988775,0.01607613958508088
0.2802414,0.027732539835039694,0.013167265325470287,0.0018043754114877206,0.029908999659139998,0.010369425783377425,0.020943522243220682,0.00873176280597317,0.016312477710361577
0.2807069,0.027977305658999602,0.013254779358745434,0.001801018146958284,0.029788183562709413,0.01046228527604116,0.02091557532168441,0.008617516818973787,0.016550547269250884
0.2811724,0.028223285562318737,0.013342438722829433,0.0017976133995039121,0.029666798267469232,0.010555920759631332,0.02088822964804845,0.008504501701710266,0.01679032607820585
0.2816379,0.028470467157088314,0.013430239611653018,0.0017941627784384935,0.029544861280286928,0.010650317145236322,0.02086149887473169,0.008392718907288346,0.017031791419997583
0.2821034,0.028718837740860505,0.013518178184723948,0.0017906679029914606,0.029422390424672408,0.0107454591018298,0.020835396410790123,0.008282169623754968,0.01727492004709082
0.282569,0.028968384296173908,0.013606250566940505,0.0017871304019498823,0.029299403833046984,0.010841331060588629,0.020809935415003433,0.008172854774757222,0.017519688185233508
0.2830345,0.02921909349016967,0.013694452848404223,0.0017835519133019995,0.02917591993879801,0.010937917219338365,0.020785128789101534,0.008064775020304416,0.01776607153725598
0.2835,0.029470951674300985,0.013782781084232268,0.0017799340838822863,0.029051957468127908,0.011035201547125176,0.020760989171133292,0.007957930757632504,0.018014045287079197
0.2839655,0.029723944884138362,0.013871231294369877,0.0017762785690181146,0.02892753543170606,0.011133167788912926,0.020737528928979593,0.007852322122170024,0.01826358410393138
0.284431,0.029978058839273014,0.013959799463403234,0.0017725870321781008,0.02880267311613196,0.011231799470404119,0.020714760154012857,0.007747948988604669,0.01851466214677233
0.2848966,0.03023327894332047,0.014048481540373166,0.0017688611446222127,0.028677390075217878,0.011331079902983316,0.020692694654905135,0.007644810972049528,0.018767253068924593
0.2853621,0.030489590284026213,0.0141372734385899,0.0017651025850537205,0.028551706121099335,0.011430992188781585,0.020671343951586724,0.007542907429308021,0.01902133002291053
0.2858276,0.030746977633475073,0.014226171035449146,0.0017613130392730909,0.028425641315181455,0.01153151922586049,0.020650719269357284,0.007442237460236474,0.01927686566549442
0.2862931,0.031005425448405798,0.014315170172249635,0.0017574941998339175,0.0282992159589293,0.011632643713514015,0.020630831533151327,0.007342799909203262,0.019533832162928467
0.2867586,0.031264917870632083,0.014404266654012192,0.001753647765700993,0.028172450584510175,0.011734348157686788,0.02061169136195996,0.007244593366643447,0.01979220119640167
0.2872241,0.031525438727571166,0.014493456249300443,0.0017497754419106301,0.028045365945295712,0.011836614876506885,0.02059330906341081,0.007147616170707751,0.020051943967690285
0.2876897,0.03178697153288089,0.014582734690043267,0.0017458789392333378,0.027917983006231495,0.01193942600593145,0.02057569462850797,0.007051866409004723,0.020313031205008446
0.2881552,0.03204949948720601,0.014672097671359158,0.001741959973838958,0.027790322934082064,0.012042763505503314,0.020558857726533805,0.006957341920434903,0.020575433169057647
0.2886207,0.03231300547903436,0.014761540851382765,0.001738020266964381,0.02766240708755904,0.01214660916421679,0.02054280770011429,0.006864040297115739,0.020839119659273417
0.2890862,0.03257747208566354,0.014851059851093933,0.0017340615445839496,0.027534257007340055,0.012250944606490687,0.02052755356044962,0.006771958886395975,0.021104060020267674
0.2895517,0.03284288157427854,0.014940650254149666,0.0017300855370826682,0.027405894405986394,0.012355751298246625,0.020513103982711653,0.006681094792958215,0.021370223148465088
0.2900172,0.033109215903140726,0.015030307606719449,0.0017260939789323258,0.02727734115776709,0.012461010553090611,0.020499467301609522,0.0065914448810083254,0.021637577498931793
0.2904828,0.03337645672288846,0.015120027417324355,0.0017220886083706417,0.027148619288397246,0.012566703538595746,0.0204866515071248,0.006503005776550312,0.021906091092394508
0.2909483,0.033644585377949426,0.015209805156680304,0.0017180711670835378,0.027019750964698542,0.012672811282683875,0.02047466424041729,0.00641577386974529,0.022175731522448235
0.2914138,0.03391358290806479,0.015299636257545742,0.0017140433998906403,0.026890758484189856,0.01277931468010387,0.02046351278990241,0.0063297453173531,0.022446465962950503
0.2918793,0.034183430049925266,0.015389516114573974,0.0017100070544341232,0.026761664264615934,0.012886194499004218,0.02045320408750095,0.006244916045255076,0.02271826117560012
0.2923448,0.03445410723891884,0.015479440084170326,0.0017059638808710135,0.026632490833422253,0.012993431387597364,0.020443744705061894,0.006161281751056476,0.022991083517698376
0.2928103,0.03472559461098985,0.015569403484354264,0.001701915631569092,0.026503260817184054,0.013101005880913332,0.020435140850958686,0.006078837906766997,0.023264898950090714
0.2932759,0.0349978720046089,0.015659401594626695,0.0016978640608065322,0.02637399693099766,0.01320889840764006,0.02042739836685922,0.005997579761557818,0.023539673045286664
0.2937414,0.03527091896285301,0.015749429655842764,0.001693810924475433,0.026244721967842194,0.013317089297047877,0.02042052272466966,0.005917502344593526,0.02381537099575584
0.2942069,0.035544714735595125,0.01583948287009052,0.0016897579797893853,0.026115458787919613,0.013425558785995613,0.02041451902365206,0.00583860046793726,0.024091957622397717
0.2946724,0.03581923828180232,0.015929556400576028,0.0016857069849952153,0.02598623030798111,0.013534287026015805,0.020409391987715506,0.00576086872952737,0.024369397383182556
0.2951379,0.03609446827194149,0.01601964537151561,0.0016816596990890296,0.02585705949064758,0.013643254090476469,0.020405145962880494,0.005684301516223807,0.02464765438196095
0.2956034,0.03637038309049137,0.016109744868035857,0.001677617881536681,0.02572796933373191,0.013752439981816886,0.020401784914915896,0.005608893006922446,0.024926692377439136
0.296069,0.03664696083855992,0.016199849936082172,0.0016735832919987613,0.02559898285957049,0.013861824638854775,0.020399312427147955,0.0055346371757354716,0.025206474792317236
0.2965345,0.03692417933660588,0.01628995558233644,0.0016695576900602218,0.025470123104371262,0.013971387944162137,0.020397731698440415,0.0054615277952359195,0.025486964722587383
0.297,0.037202016127263766,0.016380056774144565,0.0016655428349647238,0.025341413107585396,0.01408110973150695,0.02039704554134485,0.005389558439764421,0.025768124946988616
0.2974655,0.03748044847827167,0.016470148439454487,0.0016615404853537997,0.025212875901309544,0.014190969793357771,0.02039725638042006,0.005318722488796157,0.02604991793661527
0.297931,0.03775945338550144,0.0165602254667654,0.0016575523990109134,0.025084534499725426,0.014300947888448271,0.020398366250719228,0.005249013130365994,0.026332305864675474
0.2983966,0.03803900757609085,0.01665028270508871,0.0016535803326104919,0.02495641188858328,0.014411023749398556,0.020400376796443485,0.00518042336454974,0.026615250616396365
0.2988621,0.03831908751167723,0.016740314963921418,0.0016496260414719944,0.024828531014735623,0.01452117709039012,0.02040328926976028,0.0051129460069994125,0.026898713799072403
0.2993276,0.03859966939173202,0.016830317013232312,0.0016456912793190858,0.024700914775727417,0.014631387614891194,0.020407104529784927,0.005046573692530436,0.027182656752253113
0.2997931,0.03888072915699553,0.016920283583461378,0.0016417777980439717,0.02457358600944871,0.014741635023429216,0.02041182304172361,0.004981298878758645,0.027467040558066282
0.3002586,0.03916224249301148,0.017010209365532748,0.001637887347476956,0.024446567483855514,0.014851899021407308,0.0204174448761763,0.004917113849784967,0.027751826051672576
0.3007241,0.0394441848337607,0.017100089010881513,0.0016340216751612715,0.024319881886764583,0.014962159326961613,0.020423969708597913,0.00485401071992567,0.028036973831847223
0.3011897,0.03972653136539384,0.01718991713149465,0.0016301825261332385,0.024193551815727573,0.015072395678856381,0.020431396818916273,0.00479198143748605,0.028322444271684295
0.3016552,0.040009257030062584,0.017279688299966456,0.0016263716427077888,0.024067599767989892,0.015182587844413785,0.020439725091305497,0.004731017788575436,0.02860819752941877
0.3021207,0.04029233652984897,0.017369397049569014,0.001622590764269383,0.023942048130539333,0.015292715627475402,0.020448953014113355,0.004671111400961389,0.02889419355936158
0.3025862,0.04057574433079232,0.017459037874338324,0.0016188416270683358,0.02381691917024937,0.015402758876392263,0.020459078679941158,0.004612253747960932,0.029180392122942336
0.3030517,0.04085945466701273,0.017548605229176912,0.0016151259640225543,0.023692235024121964,0.01551269749204025,0.02047009978587474,0.004554436152366674,0.02946675279985453
0.3035172,0.04114344154493016,0.017638093529973826,0.0016114455045246727,0.023568017689634322,0.015622511435857502,0.02048201363386504,0.004497649790405622,0.029753234999297586
0.3039828,0.041427678747577884,0.017727497153743086,0.0016078019742545658,0.02344428901519387,0.015732180737900454,0.020494817131256792,0.004441885695728529,0.030039797971310237
0.3044483,0.04171213983900897,0.017816810438781538,0.0016041970949972012,0.02332107069070572,0.015841685504915014,0.020508506791463762,0.004387134763427591,0.030326400818189457
0.3049138,0.04199679816879425,0.01790602768484713,0.00160063258446579,0.023198384238256414,0.01595100592841936,0.020523078734789122,0.004333387754080399,0.030613002505989365
0.3053793,0.042281626876610315,0.017995143153358522,0.0015971101561301866,0.023076251002917755,0.016060122292794837,0.020538528689389518,0.004280635297818096,0.030899561876094644
0.3058448,0.042566598896915865,0.01808415106761707,0.0015936315190504845,0.022954692143674363,0.016169014983381424,0.02055485199238162,0.00422886789841578,0.031186037656863036
0.3063103,0.04285168696371518,0.01817304561305217,0.001590198377715755,0.02283372862447836,0.01627766449457422,0.02057204359109015,0.00417807593740327,0.03147238847533164
0.3067759,0.043136863615407264,0.018261820937491128,0.001586812431887865,0.022713381205434577,0.016386051437917326,0.020590098044436664,0.004128249678194481,0.03175857286898182
0.3072414,0.04342210119971992,0.01835047115145489,0.0015834753764503043,0.02259367043411945,0.016494156550191378,0.020609009524468546,0.004079379270233703,0.03204454929755745
0.3077069,0.04370737187872781,0.018438990328480984,0.001580188901261947,0.022474616637036704,0.016601960701490868,0.020628771818027858,0.004031454753157193,0.032330276154931135
0.3081724,0.04399264763395406,0.01852737250547527,0.0015769546910156555,0.022356239911213053,0.016709444903287362,0.020649378328559762,0.003984466060968545,0.03261571178101328
0.3086379,0.04427790027155484,0.01861561168309409,0.0015737744251016314,0.0222385601159369,0.016816590316474537,0.02067082207806049,0.003938403026226337,0.032900814473698456
0.3091034,0.04456310142758651,0.018703701826158433,0.0015706497774754028,0.022121596864643222,0.016923378259390942,0.02069309570916474,0.0038932553842426446,0.033185542500843795
0.309569,0.04484822257335457,0.018791636864101745,0.0015675824165303238,0.022005369516947485,0.01702979021581615,0.020716191487372478,0.0038490127772910056,0.03346985411227392
0.3100345,0.04513323502084398,0.018879410691452842,0.0015645740049744622,0.021889897170831472,0.017135807842935974,0.020740101303415144,0.0038056647588224604,0.03375370755180663
0.3105,0.045418109928229505,0.018967017168355374,0.0015616261997117395,0.021775198654983712,0.01724141297927232,0.02076481667576122,0.0037632007976882804,0.034037061069293655
0.3109655,0.04570281830546526,0.019054450121125055,0.0015587406517271983,0.021661292521297105,0.01734658765257304,0.020790328753261096,0.003721610282368012,0.034319872932670664
0.311431,0.04598733101995223,0.01914170334284574,0.0015559190059762653,0.021548197037526157,0.017451314087657217,0.020816628317931206,0.003680882525201432,0.03460210144001064
0.3118966,0.04627161880228227,0.019228770594005393,0.0015531629012778736,0.021435930180106203,0.017555574714211198,0.020843705787877247,0.0036410067666229904,0.03488370493157485
0.3123621,0.04655565225205752,0.01931564560317272,0.001550473970211307,0.02132450962713691,0.01765935217453071,0.020871551220356374,0.003601972179397272,0.03516464180185555
0.3128276,0.04683940184378355,0.01940232206771525,0.0015478538390166156,0.02121395275153232,0.017762629331204316,0.020900154314978193,0.0035637678728540133,0.03544487051160463
0.3132931,0.04712283793283495,0.01948879365455939,0.0015453041274984393,0.02110427661433941,0.017865389274733412,0.02092950441704436,0.0035263828971211536,0.035724349599842074
0.3137586,0.04740593076149149,0.019575054000992968,0.0015428264489330751,0.02099549795822715,0.017967615331083906,0.020959590521026562,0.0034898062473543985,0.03600303769583844
0.3142241,0.04768865046504347,0.019661096715510647,0.0015404224099786034,0.020887633201147872,0.018069291069164564,0.020990401274182745,0.0034540268679617704,0.036280893531065186
