Time,Rectus Femoris right,Rectus Femoris left,Hamstrings right,Hamstrings left,TibilaisÂ Anterior right,TibilaisÂ Anterior left,Gastrocnemius right,Gastrocnemius left
0.0,0.0030708512007093704,0.007781273620585536,0.01685943901799076,-0.0017111472719744524,0.08249947426021306,0.0025753833529777704,0.018547758085215173,0.0027474208918958788
0.0004655,0.0032058114372972217,0.007824870644283066,0.01907748130181726,-0.0016249904306399787,0.08425400052077561,0.0028013459245522627,0.018766280707126454,0.002747545010271334
0.000931,0.0033402139876153925,0.007867858332840734,0.02128859726237144,-0.0015368733680100962,0.08599788799446273,0.0030264482313111284,0.018984411904848682,0.0027471771897663363
0.0013966,0.003474034482290395,0.00791022463380627,0.023492435167190007,-0.001446776230390921,0.08773081587641979,0.0032506615926384476,0.01920211391699366,0.002746315277268302
0.0018621,0.003607248638918302,0.007951957615697402,0.025688644329299584,-0.0013546792332918638,0.08945246534706547,0.0034739576616414354,0.019419349040816294,0.002744957293596941
0.0023276,0.0037398322706831497,0.0079930454733323,0.02787687521310229,-0.0012605626659355838,0.09116251968014566,0.003696308436579602,0.019636079647401838,0.002743101436684688
0.0027931,0.0038717612949851214,0.008033476533162168,0.03005677953985774,-0.0011644068958071056,0.09286066435024705,0.003917686272160527,0.019852268196897886,0.0027407460847301526
0.0032586,0.004003011742074048,0.008073239258603244,0.03222801039270117,-0.0010661923732417614,0.09454658713970637,0.004138063890694554,0.020067877253777226,0.002737889799322365
0.0037241,0.004133559763683814,0.00811232225536546,0.03439022232113836,-0.0009658996360515664,0.09621997824485104,0.004357414393100828,0.02028286950211862,0.0027345313285335924
0.0041897,0.004263381641663351,0.00815071427677504,0.03654307144495955,-0.000863509314189596,0.09788053038150604,0.004575711269757152,0.020497207760893393,0.0027306696099785414
0.0046552,0.004392453796599979,0.008188404229088318,0.038686215557516175,-0.0007590021344518931,0.0995279388897013,0.0047929284111861425,0.020710854999246412,0.002726303773837821
0.0051207,0.004520752796430978,0.008225381176794038,0.04081931422830513,-0.0006523589252164043,0.10116190183751332,0.005009040118570225,0.020923774351760696,0.0027214331458435994
0.0055862,0.004648255365039371,0.008261634347901425,0.042942028904806556,-0.0005435606212184102,0.10278212012397456,0.005224021114087983,0.02113592913369555,0.002716057250225483
0.0060517,0.004774938390830028,0.008297153139211247,0.04505402301352113,-0.00043258826836187946,0.10438829758098296,0.005437846551064482,0.02134728285618886,0.002710175812614727
0.0065172,0.004900778935282294,0.008331927121567094,0.047154962060152836,-0.0003194230285661458,0.10598014107414412,0.005650492023928315,0.02155779924141492,0.0027037887629049744
0.0069828,0.005025754241475436,0.008365946045083988,0.04924451372888351,-0.00020404618464727416,0.10755736060247767,0.005861933577968353,0.02176744223768996,0.002696896238067774
0.0074483,0.00514984174258334,0.008399199844351416,0.051322347980685065,-8.64391452334573e-05,0.10911966939691986,0.006072147718883486,0.021976176034518236,0.002689498584921155
0.0079138,0.005273019070334965,0.00843167864360778,0.05338813715061602,3.341655028624268e-05,0.11066678401755405,0.006281111422118982,0.022183965077571744,0.0026815963628495647
0.0083793,0.0053952640634371786,0.0084633727618832,0.05544155604404989,0.00015553922678052134,0.11219842444950068,0.006488802141983412,0.022390774083597027,0.002673190346473473
0.0088448,0.0055165547759566565,0.008494272718107612,0.05748228203178492,0.0002799470683625773,0.11371431419739936,0.006695197820540366,0.022596568055242384,0.0026642815282669394
0.0093103,0.0056368694856576106,0.008524369236181027,0.05950999514398675,0.0004066581133457688,0.11521418037841598,0.006900276896269366,0.02280131229579923,0.00265487112112145
0.0097759,0.005756186702292183,0.008553653250002895,0.061524378162917996,0.0005356902491690187,0.11669775381370907,0.0071040183124905535,0.023004972423851393,0.002644960560854357
0.0102414,0.005874485175840402,0.008582115908457635,0.06352511671441034,0.0006670612072928499,0.11816476911829037,0.007306401525547927,0.02320751438782682,0.0026345515086603037
0.0107069,0.005991743904696658,0.00860974858035343,0.0655118993580365,0.0008007885580669813,0.11961496478921795,0.007507406512746196,0.02340890448044647,0.002623645853504114
0.0111724,0.006107942143799753,0.008636542859311602,0.06748441767593982,0.0009368897055704525,0.12104808329206418,0.007707013780036537,0.02360910935306559,0.002612245714453683
0.0116379,0.006223059412703651,0.00866249056860404,0.06944236636028085,0.0010753818824252956,0.12246387114560604,0.007905204369446904,0.023808096029902824,0.0026003534429515293
0.0121034,0.006337075503586139,0.008687583765936372,0.07138544329926136,0.0012162821445848063,0.12386207900469072,0.008101959866252806,0.024005831922152665,0.002587971625023738
0.012569,0.0064499704891927,0.008711814748174703,0.07331334966168888,0.0013596073660975198,0.12524246174123463,0.008297262405884819,0.024202284841976868,0.002575103083425055
0.0130345,0.006561724730712918,0.00873517605601401,0.07522578998004721,0.0015053742338480382,0.12660477852331767,0.008491094680569368,0.024397423016370413,0.0025617508797189372
0.0135,0.0066723188855868035,0.008757660478586402,0.07712247223204048,0.0016535992422759154,0.12794879289233624,0.00868343994569955,0.024591215100897634,0.0025479183162913665
0.0139655,0.006781733915238418,0.008779261058007588,0.07900310792058066,0.0018042986880738474,0.12927427283817955,0.00887428202593289,0.024783630193294114,0.0025336089382972517
0.014431,0.006889951092734134,0.008799971093860033,0.08086741215218954,0.0019574886648664833,0.13058099087239575,0.009063605321013012,0.024974637846929822,0.0025188265355382666
0.0148966,0.006996952010362861,0.008819784147611294,0.08271510371378851,0.0021131850578712044,0.13186872409931652,0.009251394811312217,0.02516420808412899,0.0025035751442710097
0.0153621,0.0071027185871355,0.008838694046966043,0.08454590514785204,0.0022714035385422745,0.1331372542851127,0.009437636063092128,0.025352311409342184,0.002487859048944393
0.0158276,0.007207233076200851,0.008856694890150297,0.08635954282590465,0.002432159559199786,0.13438636792475786,0.009622315233479777,0.025538918822166256,0.0024716827838652195
0.0162931,0.007310478072175139,0.008873781050126357,0.08815574702034686,0.0025954683476448375,0.13561585630688278,0.009805419075156934,0.02572400183020784,0.0024550511347909195
0.0167586,0.007412436518382286,0.008889947178737,0.08993425197460009,0.0027613449017623924,0.13682551557650863,0.00998693494076097,0.025907532461786405,0.002437969140448457
0.0172241,0.007513091714001982,0.008905188210777492,0.09169479597156466,0.002929803984113262,0.13801514679565133,0.010166850786996055,0.02608948327847273,0.0024204420939784163
0.0176897,0.007612427321122554,0.00891949936799409,0.09343712140038828,0.0031008601165166696,0.13918455600179303,0.010345155178454057,0.026269827387458908,0.0024024755443032967
0.0181552,0.007710427371695574,0.00893287616300774,0.095160974821544,0.003274527574624844,0.1403335542642185,0.010521837291144929,0.026448538453756006,0.0023840752974190744
0.0186207,0.007807076274389101,0.00894531440316185,0.096866107030219,0.003450820382491112,0.1414619577382155,0.010696886915736763,0.026625590712215843,0.002365247417609138
0.0190862,0.007902358821336384,0.008956810194293075,0.09855227311801773,0.0036297523071329354,0.14256958771713815,0.010870294460506035,0.026800958979373637,0.00234599822857976
0.0195517,0.007996260194776842,0.008967359944424262,0.10021923253298577,0.003811336853091331,0.14365627068233397,0.011042050953998768,0.026974618665108682,0.002326334314516349
0.0200172,0.008088765973586057,0.00897696036737886,0.10186674913796279,0.003995587256988099,0.14472183835093336,0.011212148047403614,0.027146545784120603,0.002306262521059779
0.0204828,0.008179862139691513,0.008985608486316275,0.1034945912672751,0.004182516482082275,0.1457661277215013,0.011380578016637843,0.0273167169672189,0.0022857899562021516
0.0209483,0.008269535084370755,0.008993301637187796,0.10510253178177846,0.004372137212827194,0.14678898111755065,0.011547333764147426,0.027485109472423688,0.0022649239911013692
0.0214138,0.00835777161442865,0.009000037472112898,0.1066903481222618,0.004564461849429571,0.14779024622891643,0.011712408820422387,0.027651701195875445,0.0022436722608139108
0.0218793,0.008444558958250425,0.009005813962675763,0.10825782236122256,0.0047595025024119875,0.14876977615099085,0.011875797345228613,0.027816470682551442,0.0022220426649452144
0.0223448,0.008529884771727236,0.00901062940314204,0.10980474125302353,0.004957270987180181,0.14972742942181932,0.012037494128557447,0.0279793971367866,0.002200043368217068
0.0228103,0.008613737144051205,0.009014482413595818,0.11133089628244133,0.005157778818596524,0.1506630700570584,0.012197494591294232,0.028140460432596298,0.0021776828009514157
0.0232759,0.008696104603376996,0.009017371942996847,0.112836083711616,0.005361037205561109,0.1515765675827967,0.01235579478560708,0.02829964112379871,0.002154969659470004
0.0237414,0.008776976122347317,0.009019297272157983,0.11432010462541133,0.005567057045601832,0.15246779706623972,0.012512391395057037,0.028456920453934307,0.0021319129064092945
0.0242069,0.008856341123479996,0.00902025801664284,0.1157827649751945,0.005775848919474841,0.15333663914426018,0.01266728173443078,0.028612280365980233,0.0021085217709500763
0.0246724,0.008934189484414512,0.009020254129583643,0.11722387562104361,0.005987423085776723,0.15418298004981537,0.012820463749296957,0.02876570351185739,0.0020848057489612085
0.0251379,0.009010511543016207,0.009019285904419267,0.11864325237239036,0.006201789475569722,0.15500671163623264,0.012971936015287218,0.02891717326172827,0.0020607746030569495
0.0256034,0.009085298102336539,0.009017353977553514,0.12004071602710505,0.006418957687021296,0.1558077313993642,0.013121697737102995,0.029066673713083507,0.00203643836256731
0.026069,0.009158540435427973,0.00901445933093366,0.12141609240903026,0.006638936980059245,0.15658594249761135,0.013269748747249004,0.029214189699615176,0.0020118073234209107
0.0265345,0.009230230290012206,0.00901060329454939,0.12276921240396942,0.006861736271043632,0.15734125376981753,0.013416089504494542,0.029359706799874877,0.0019868920479398167
0.027,0.009300359893000534,0.009005787548852253,0.1240999119941352,0.007087364127456746,0.15807357975102956,0.013560721092063719,0.029503211345714632,0.0019617033645458627
0.0274655,0.00936892195486516,0.009000014127095737,0.12540803229106287,0.007315828762612339,0.1587828406861248,0.013703645215555862,0.02964469043050852,0.0019362523673779803
0.027931,0.009435909673860234,0.008993285417596187,0.12669341956699248,0.007547138030385408,0.15946896254130408,0.013844864200597504,0.02978413191715287,0.001910550415820071
0.0283966,0.009501316740091406,0.008985604165914617,0.12795592528472377,0.00778129941996388,0.16013187701345058,0.013984380990227549,0.029921524445842864,0.0018846091339389886
0.0288621,0.009565137339432615,0.008976973476959575,0.12919540612594696,0.008018320050623548,0.16077152153735616,0.014122199142017282,0.03005685744162319,0.0018584404098322366
0.0293276,0.009627366157288843,0.008967396817011175,0.13041172401805196,0.008258206666527698,0.1613878392908174,0.014258322824926945,0.030190121121710337,0.001832056394885027
0.0297931,0.009687998382203501,0.00895687801566635,0.13160474615941817,0.008500965631552889,0.1619807791976051,0.01439275681590052,0.030321306502584106,0.0018054695029363782
0.0302586,0.009747029709309163,0.008945421267705476,0.13277434504318555,0.008746602924142383,0.16255029592830975,0.014525506496200455,0.03045040540684572,0.001778692409353958
0.0307241,0.009804456343620288,0.008933031134880422,0.13392039847950757,0.0089951241321888,0.16309634989906632,0.01465657784748397,0.030577410469839944,0.0017517380500173775
0.0311897,0.009860275003166665,0.008919712547624118,0.1350427896162849,0.009246534447947555,0.16361890726816106,0.01478597744762277,0.030702315146038574,0.0017246196202096633
0.0316552,0.009914482921966353,0.008905470806681694,0.13614140695837842,0.009500838662982692,0.164117939930524,0.014913712466267975,0.030825113715182654,0.0016973505734166358
0.0321207,0.009967077852837057,0.008890311584663208,0.1372161443852987,0.00975804116314682,0.16459342551011172,0.015039790660162295,0.030945801288180794,0.0016699446200339435
0.0325862,0.010018058070045025,0.008874240927517891,0.13826690116736975,0.010018145923596827,0.16504534735018508,0.015164220368201451,0.031064373812760955,0.0016424157259815214
0.0330517,0.010067422371790695,0.008857265255929843,0.13929358198036496,0.010281156503847151,0.16547369450148883,0.01528701050624708,0.031180828078873034,0.0016147781112252821
0.0335172,0.010115170082530529,0.008839391366635085,0.14029609691861403,0.010547076042862388,0.16587846170833973,0.01540817056169351,0.03129516172383962,0.00158704624820592
0.0339828,0.010161301055134542,0.008820626433659865,0.14127436150658132,0.010815907254191074,0.16625964939263238,0.015527710587791085,0.0314073732372522,0.0015592348601747665
0.0344483,0.010205815672879124,0.008800978009480109,0.14222829670891654,0.01108765242114245,0.1666172636357721,0.015645641197729022,0.03151746196561005,0.0015313589194367147
0.0349138,0.010248714851274808,0.008780454026101921,0.14315782893897994,0.01136231339200806,0.1669513161585466,0.0157619735584811,0.03162542811669898,0.0015034336455002665
0.0353793,0.0102900000397287,0.008759062796063017,0.1440628900658435,0.011639891575329964,0.16726182429894987,0.01587671938441776,0.031731272763707095,0.0014754745031347954
0.0358448,0.010329673223041276,0.00873681301335494,0.14494341741976982,0.011920387935217448,0.16754881098797159,0.015989890930688384,0.031834997849074544,0.0014474972003351285
0.0363103,0.010367736922737307,0.008713713754265912,0.14579935379616918,0.012203802986714099,0.16781230472336803,0.01610150098637773,0.0319366061880744,0.0014195176861935656
0.0367759,0.010404194198230665,0.008689774478144115,0.14663064745803525,0.01249013679121723,0.16805233954142865,0.01621156286744055,0.03203610147212157,0.0013915521486794573
0.0372414,0.01043904864782273,0.008665005028081164,0.14743725213685868,0.012779388951951904,0.1682689549867545,0.016320090409418463,0.032133488271806704,0.0013636170123264885
0.0377069,0.010472304409534148,0.008639415631515483,0.14821912703201745,0.013071558609501965,0.16846219608006424,0.016427097959943158,0.032228772039652166,0.0013357289358278206
0.0381724,0.010503966161769582,0.008613016900755253,0.1489762368086422,0.013366644437400719,0.16863211328404634,0.016532600371029868,0.03232195911258695,0.0013079048095392648
0.0386379,0.010534039123815252,0.008585819833420513,0.14970855159395385,0.013664644637784192,0.16877876246727866,0.016636612991165207,0.0324130567141377,0.0012801617528906614
0.0391034,0.010562529056169055,0.008557835812803973,0.15041604697207095,0.013965556937110058,0.16890220486623997,0.016739151657193335,0.03250207295633304,0.0012525171117056724
0.039569,0.010589442260703298,0.008529076608150013,0.1510987039772832,0.014269378581945526,0.1690025070454411,0.016840232686004666,0.03258901684131854,0.0012249884554301998
0.0400345,0.010614785580660235,0.008499554374851333,0.1517565090857895,0.014576106334827662,0.16907974085570573,0.016939872866031387,0.032673898262679836,0.0011975935742696696
0.0405,0.010638566400480822,0.008469281654562675,0.15238945420589922,0.014885736470199805,0.16913398339063215,0.01703808944855425,0.032756728006471385,0.0011703504762354336
0.0409655,0.01066079264546729,0.008438271375231041,0.15299753666669924,0.015198264770427775,0.16916531694126763,0.017134900138825203,0.032837517751948424,0.0011432773841005633
0.041431,0.010681472781280277,0.008406536851041778,0.15358075920519101,0.015513686521899774,0.16917382894902794,0.017230323087010595,0.0329162800719994,0.0011163927322653112
0.0418966,0.010700615813271426,0.008374091782279889,0.15413912995190537,0.015831996511213822,0.16915961195689386,0.01732437687895966,0.032993028433276124,0.0010897151635325317
0.0423621,0.01071823128565238,0.008340950255105891,0.1546726624150053,0.01615318902145674,0.16912276355891656,0.017417080526803165,0.03306777719601877,0.0010632635257933553
0.0428276,0.01073432928050126,0.00830712674124554,0.1551813754628885,0.016477257828578624,0.16906338634806412,0.017508453459386963,0.033140541613572584,0.0010370568686234166
0.0432931,0.01074892041660769,0.008272636097592725,0.15566529330530282,0.01680419619786676,0.16898158786244383,0.01759851551254524,0.03321133783159322,0.0010111144397899285
0.0437586,0.010762015848157466,0.008237493565724882,0.15612444547298793,0.017133996880522938,0.16887748052993695,0.017687286919218195,0.033280182886937563,0.0009854556816699023
0.0442241,0.010773627263257991,0.008201714771330254,0.15655886679585648,0.017466652110347897,0.16875118161128505,0.017774788299418972,0.03334709470623688,0.0009601002275798199
0.0446897,0.010783766882305512,0.008165315723546413,0.15696859737972904,0.017802153600536687,0.16860281314166933,0.017861040650054893,0.033412092104149554,0.0009350678980170764
0.0451552,0.01079244745619518,0.008128312814209414,0.1573536825816368,0.01814049254058849,0.16843250187082448,0.017946065334608175,0.033475194781290726,0.0009103786968135284
0.0456207,0.01079968226437485,0.008090722817013033,0.15771417298370788,0.018481659593334386,0.1682403792017297,0.018029884072681638,0.0335364233218365,0.0008860528072014939
0.0460862,0.010805485112743514,0.008052562886577618,0.15805012436565286,0.01882564489208655,0.16802658112791852,0.018112518929415133,0.033595799190800496,0.0008621105877925639
0.0465517,0.010809870331395233,0.008013850557428108,0.15836159767586508,0.019172438037912104,0.16779124816944754,0.018193992304778406,0.033653344730980785,0.0008385725684695934
0.0470172,0.01081285277220937,0.007974603742880903,0.1586486590011521,0.019522028097035005,0.16753452530756366,0.018274326922746366,0.03370908315957501,0.0008154594461922622
0.0474828,0.010814447806287996,0.007934840733839283,0.15891137953511378,0.01987440359836923,0.16725656191810756,0.01835354582036259,0.033763038564461695,0.0007927920807166301
0.0479483,0.010814671321241379,0.007894580197497253,0.15914983554518264,0.020229552531186516,0.16695751170369197,0.018431672336697104,0.033815235900145374,0.0007705914902291754
0.0484138,0.01081353971832254,0.007853841175951642,0.1593641083383415,0.02058746234292192,0.16663753262469255,0.018508730101704576,0.03386570098336306,0.000748878846895867
0.0488793,0.010811069909411946,0.007812643084722359,0.15955428422553292,0.02094811993712052,0.16629678682909108,0.018584743024989064,0.03391446048834931,0.0007276754723268858
0.0493448,0.010807279313853401,0.007771005711180696,0.15972045448477395,0.021311511671528453,0.16593544058121182,0.01865973528448161,0.03396154194175693,0.0007070028329576618
0.0498103,0.010802185855142327,0.007728949212885562,0.15986271532298918,0.021677623356331683,0.16555366418939405,0.01873373131503696,0.03400697371723031,0.0006868825353469406
0.0502759,0.010795807957467594,0.007686494115827457,0.1599811678365735,0.022046440252545745,0.16515163193264587,0.01880675579695572,0.034050785029628335,0.0006673363213926434
0.0507414,0.010788164542108042,0.0076436613125800265,0.16007591797069562,0.022417947070559826,0.1647295219863265,0.01887883364443839,0.034093005928893784,0.0006483860634663504
0.0512069,0.010779275023684854,0.0076004720603589475,0.16014707647735107,0.02279212796883841,0.16428751634690597,0.018949989993977463,0.034133667293566566,0.0006300537594673108
0.0516724,0.010769159306270896,0.007556947978987947,0.1601947588721739,0.023168966552783856,0.16382580075585168,0.01902025019269401,0.03417280082393812,0.0006123615277969612
0.0521379,0.01075783777935812,0.007513111048771697,0.16021908539001353,0.023548445873763035,0.16334456462269267,0.019089639786624736,0.034210439034844914,0.0005953316022550142
0.0526034,0.010745331313684168,0.007468983608275402,0.16022018093928383,0.023930548428301272,0.162844000947311,0.01915818450896574,0.03424661524809912,0.0005789863268582614
0.053069,0.010731661256919156,0.007424588352010841,0.16019817505509085,0.024315256157446515,0.16232430624151006,0.01922591026827879,0.03428136358455514,0.0005633481505833051
0.0535345,0.010716849429213715,0.00737994832802875,0.16015320185114612,0.024702550446306735,0.16178568044990874,0.019292843136666054,0.03431471895581108,0.0005484396220345044
0.054,0.010700918118609135,0.007335086935417464,0.16008539997047405,0.025092412123763362,0.1612283268702103,0.01935900933791894,0.034346717055544755,0.0005342833840384625
0.0544655,0.0106838900763105,0.007290027921707901,0.1599949125349226,0.02548482146236337,0.1606524520728953,0.019424435235646666,0.03437739435048466,0.0005209021681664287
0.054931,0.010665788511823579,0.007244795380185054,0.15988188709348805,0.0258797581783926,0.16005826582038704,0.01948914732139016,0.03440678807101653,0.0005083187891860117
0.0553966,0.010646637087956221,0.007199413747106311,0.15974647556946522,0.026277201432132576,0.15944598098573826,0.019553172202726767,0.034434936201426805,0.0004965561394436257
0.0558621,0.01062645991568487,0.007153907798827061,0.15958883420643485,0.02667712982830302,0.15881581347088755,0.019616536591371435,0.03446187746978478,0.0004856371831791091
0.0563276,0.010605281548886798,0.007108302648834146,0.15940912351310024,0.027079521416692058,0.15816798212453348,0.019679267291280098,0.03448765133746525,0.0004755849507739732
0.0567931,0.010583126978938673,0.007062623744687844,0.15920750820698545,0.02748435369297596,0.15750270865967383,0.019741391186761027,0.03451229798831422,0.0004664225329347531
0.0572586,0.010560021629181987,0.007016896864873166,0.15898415715700717,0.02789160359973011,0.15682021757085746,0.019802935230600123,0.03453585831746059,0.00045817307481294656
0.0577241,0.010535991349256,0.006971148115561296,0.15873924332493336,0.028301247527632644,0.15612073605119528,0.019863926432206042,0.034558373919776966,0.00045085977006303397
0.0581897,0.01051106240929883,0.00692540392728201,0.15847294370574141,0.02871326131686225,0.1554044939091766,0.019924391845780993,0.034579887077993476,0.0004445058548400805
0.0586552,0.01048526149401751,0.006879691051507948,0.15818543926688935,0.029127620258691256,0.1546717234853365,0.019984358558523038,0.03460044075046868,0.00043913460173842004
0.0591207,0.01045861569662796,0.006834036557151559,0.15787691488651398,0.02954429909727512,0.1539226595688194,0.020043853678865624,0.03462007855862214,0.00043476931367292243
0.0595862,0.010431152512665975,0.006788467826975516,0.15754755929057276,0.029963272031639183,0.15315753931388357,0.02010290432476003,0.03463884477403338,0.000431433317704342
0.0600517,0.010402899833670461,0.006743012553917373,0.1571975649889495,0.03038451271786354,0.15237660215639093,0.0201615376120064,0.03465678430521214,0.0004291499588102479
0.0605172,0.010373885940740292,0.0066976987373291875,0.15682712821054756,0.030807994271466535,0.15158008973032583,0.020219780642639063,0.034673942684044626,0.0004279425936030339
0.0609828,0.010344139497966236,0.006652554679132826,0.15643644883739882,0.031233689269987396,0.15076824578438752,0.020277660493371867,0.03469036605192061,0.0004278345839965059
0.0614483,0.010313689545739527,0.0066076089798916444,0.15602573033781897,0.03166156975576817,0.14994131609869954,0.02033520420410919,0.03470610114554622,0.00042884929082254435
0.0619138,0.010282565493938677,0.006562890534799202,0.1555951796986418,0.032091607238935047,0.14909954840168,0.02039243876652819,0.034721195282447374,0.00043101006739933943
0.0623793,0.010250797114996182,0.006518428529585702,0.15514500735656633,0.03252377270057887,0.14824319228711583,0.020449391112737778,0.034735696346169166,0.00043434025305269687
0.0628448,0.01021841453684677,0.006474252436342826,0.15467542712864987,0.03295803659613455,0.14737249913148376,0.020506088104019608,0.03474965277117682,0.00043886316659190976
0.0633103,0.010185448235758813,0.006430392009267659,0.15418665614198174,0.033394368858958606,0.14648772201155938,0.02056255651965629,0.03476311352746408,0.0004446020997416911
0.0637759,0.010151929029050485,0.006386877280326416,0.15367891476257076,0.03383273890410419,0.14558911562235546,0.020618823045851813,0.034776128104875334,0.0004515803105316603
0.0642414,0.010117888067692298,0.006343738554838761,0.15315242652348013,0.034273115632292225,0.1446769361954288,0.02067491426474902,0.0347887464971482,0.0004598210166448746
0.0647069,0.010083356828797605,0.006301006406983463,0.15260741805224273,0.03471546743407743,0.1437514414175936,0.020730856643548776,0.034801019185683284,0.00046934738872689833
0.0651724,0.010048367108002712,0.006258711675226225,0.15204411899758835,0.035159762194207335,0.14281289035007885,0.020786676523735344,0.03481299712304825,0.0004801825436569014
0.0656379,0.010012951011738274,0.006216885457670511,0.151462761955515,0.03560596729617251,0.14186154334816456,0.020842400110412294,0.03482473171622349,0.0004923495377822777
0.0661034,0.009977140949393736,0.00617555910733225,0.15086358239473413,0.036054049626945604,0.14089766198133222,0.020898053461753083,0.03483627480959656,0.000505871360118274
0.066569,0.009940969625376555,0.006134764227339289,0.15024681858151953,0.03650397558190676,0.13992150895396244,0.02095366247857032,0.03484767866771285,0.0005207709255141202
0.0670345,0.009904470031068147,0.006094532666056516,0.14961271150398883,0.03695571106995272,0.13893334802661247,0.02100925289400753,0.03485899595778991,0.0005370710677871526
0.0675,0.009867675436678413,0.0060548965121375795,0.14896150479584533,0.03740922151878672,0.1379334439379045,0.021064850263357162,0.03487027973200284,0.0005547945328264267
0.0679655,0.009830619383000934,0.00601588808950415,0.14829344465960737,0.03786447188038623,0.13692206232705553,0.02112047995400841,0.034881583409548604,0.0005739639716673198
0.068431,0.009793335673070825,0.005977539952253668,0.14760877978935225,0.038321426636645596,0.13589946965707855,0.021176167135528338,0.03489296075849693,0.00059460193353863
0.0688966,0.009755858363727395,0.005939884879496515,0.14690776129300162,0.03878004980519053,0.13486593313868334,0.02123193676987973,0.03490446587743558,0.0006167308588836917
0.0693621,0.009718221757083756,0.005902955870123564,0.1461906426141751,0.03924030494536151,0.1338217206549048,0.021287813601779088,0.034916153176917736,0.0006403730723570414
0.0698276,0.009680460391905633,0.005866786137504997,0.14545767945363938,0.03970215516436298,0.1327671006864857,0.021343822149198038,0.034928077360719276,0.0006655507757981901
0.0702931,0.009642609034901698,0.005831409104121321,0.144709129690379,0.04016556312357533,0.13170234223803967,0.02139998669401138,0.03494029340691353,0.0006922860411840724
0.0707586,0.009604702671927905,0.00579685839612745,0.143945253302315,0.04063049104502668,0.13062771476501994,0.02145633127279497,0.03495285654877114,0.0007206008035617576
0.0712241,0.00956677649910843,0.005763167837850754,0.1431663122866972,0.04109690071802132,0.12954348810151756,0.021512879667776458,0.034965822255492544,0.0007505168539630202
0.0716897,0.009528865913876049,0.005730371446223947,0.1423725705801961,0.04156475350592173,0.12844993238891295,0.021569655397941787,0.03497924621278057,0.0007820558323023796
0.0721552,0.00949100650593493,0.005698503425153691,0.14156429397872075,0.04203401035308094,0.12734731800540322,0.02162668171030025,0.03499318430326048,0.0008152392202602296
0.0726207,0.009453234048148977,0.005667598159825804,0.14074175005699,0.042504631791922,0.1262359154964272,0.02168398157131068,0.035007692586755124,0.0008500883341526976
0.0730862,0.009415584487358944,0.005637690210948009,0.13990520808788431,0.04297657795016118,0.12511599550600894,0.021741577658471196,0.035022827280422386,0.0008866243177898851
0.0735517,0.009378093935131691,0.005608814308931128,0.1390549389616076,0.043449808558171585,0.12398782870903914,0.02179949235207482,0.035038644738762344,0.0009248681353241426
0.0740172,0.009340798658444949,0.005581005348009703,0.13819121510468788,0.0439242829564837,0.12285168574451423,0.021857747727133104,0.03505520143350117,0.0009648405640900469
0.0744828,0.009303735070311054,0.005554298380303018,0.13731431039884606,0.04439996010341932,0.12170783714975031,0.021916365545469732,0.03507255393335881,0.0010065621874377477
0.0749483,0.009266939720343072,0.005528728609817512,0.13642450009976187,0.04487679858285539,0.12055655329558906,0.021975367247986058,0.03509075888370728,0.0010500533875613615
0.0754138,0.009230449285266706,0.005504331386391556,0.1355220607557656,0.045354756612114105,0.11939810432261128,0.02203477394710044,0.03510987298612608,0.0010953343383240926
0.0758793,0.009194300559381387,0.005481142199583627,0.1346072701264834,0.0458337920499754,0.11823276007837266,0.022094606419363127,0.03512995297786116,0.0011424249980817706
0.0763448,0.00915853044497377,0.005459196672504833,0.13368040710146412,0.04631386240480806,0.11706079005567592,0.022154885098248485,0.035151055611193555,0.0011913451025065
0.0768103,0.009123175942686901,0.005438530555596791,0.13274175161881466,0.04679492484281518,0.11588246333189169,0.02221563006712618,0.03517323763272355,0.0012421141574121412
0.0772759,0.009088274141848223,0.005419179720355792,0.131791584583873,0.04727693619638958,0.11469804850934019,0.02227686105241291,0.035196555762576395,0.0012947514315833628
0.0777414,0.009053862210759479,0.005401180153004197,0.13083018778794775,0.04775985297257497,0.11350781365674448,0.022338597416905945,0.03522106667353551,0.001349275949610028
0.0782069,0.00901997738695165,0.005384567948109913,0.12985784382715485,0.04824363136162832,0.1123120262517652,0.022400858153299827,0.03524682697010947,0.0014057064847286926
0.0786724,0.008986656967407941,0.005369379302154781,0.12887483602138264,0.04872822724567947,0.11111095312462577,0.02246366187788715,0.035273893167539185,0.0014640615516730016
0.0791379,0.008953938298757834,0.005355650507052681,0.12788144833341808,0.04921359620748456,0.10990486040283606,0.02252702682444446,0.035302321670751924,0.0015243593995347843
0.0796034,0.008921858767445216,0.0053434179436181095,0.1268779652882665,0.04969969353927016,0.1086940134570217,0.022590970838304063,0.03533216875326868,0.0015866180046376572
0.080069,0.008890455789873552,0.005332718074985922,0.12586467189269765,0.05018647425166552,0.10747867684786523,0.02265551137061254,0.03536349053607171,0.001650855063424966
0.0805345,0.008859766802531012,0.005323587439982939,0.12484185355505001,0.05067389308272075,0.10625911427416436,0.022720665472776604,0.03539634296643897,0.0017170879853639204
0.081,0.008829829252098466,0.005316062646452026,0.12380979600532534,0.05116190450700901,0.10503558852201167,0.022786449791096976,0.035430781796752346,0.0017853338858677835
0.0814655,0.00880068058554315,0.005310180364529256,0.12276878521560407,0.05165046274481107,0.10380836141509965,0.022852880561590905,0.03546686256328686,0.0018556095792379935
0.081931,0.008772358240200779,0.005305977319874681,0.12171910732081177,0.05213952177138105,0.10257769376615408,0.022919973605003766,0.03550464056498813,0.001927931571628097
0.0823966,0.008744899633848799,0.005303490286857237,0.1206610485398662,0.05262903532629257,0.10134384532949839,0.022987744322010197,0.03554417084224572,0.0020023160540313606
0.0828621,0.008718342154773457,0.00530275608169425,0.11959489509723331,0.05311895692286487,0.10010707475475068,0.023056207688605022,0.03558550815567013,0.0020787788952939244
0.0833276,0.008692723151833257,0.005303811555545992,0.11852093314491964,0.05360923985766953,0.09886763954165502,0.0231253782516844,0.035628706964881324,0.002157335635155349
0.0837931,0.008668079924521378,0.005306693587565731,0.1174394486849278,0.05409983722011866,0.09762579599604797,0.023195270124817445,0.03567382140731641,0.002238001477318401
0.0842586,0.008644449713029531,0.005311439077905697,0.11635072749220085,0.05459070190213627,0.09638179918696096,0.02326589698420884,0.035720905277064195,0.002320791282549902
0.0847241,0.008621869688315725,0.005318084940679375,0.11525505503808042,0.05508178660791464,0.0951359029048587,0.02333727206485305,0.03577001200373387,0.0024057195618144666
0.0851897,0.008600376942178332,0.005326668096880569,0.11415271641430301,0.055573043863757596,0.09388835962101344,0.023409408156880668,0.03582119463136497,0.002492800469442938
0.0856552,0.008580008477338863,0.005337225467259681,0.11304399625755863,0.056064426028012745,0.09263942044801439,0.023482317602097513,0.03587450579738546,0.0025820477963373486
0.0861207,0.008560801197535764,0.005349793965157673,0.11192917867463566,0.056555885301095024,0.0913893351014109,0.023556012290716896,0.03592999771162459,0.002673474963214266
0.0865862,0.00854279189763159,0.005364410489298188,0.11080854716817587,0.05704737373560369,0.09013835186248789,0.023630503658285448,0.03598772213538702,0.0027670950138884206
0.0870517,0.008526017253735847,0.0053811119165383305,0.10968238456306342,0.057538843246534986,0.08888671754217149,0.023705802682802785,0.036047730360594485,0.002862920608598608
0.0875172,0.00851051381334579,0.005399935094578642,0.10855097293347091,0.058030245621592313,0.08763467744606195,0.023781919882035055,0.036110073189001314,0.0029609640173779224
0.0879828,0.0084963179855075,0.005420916834632782,0.10741459353058509,0.058521532531595435,0.08638247534059053,0.02385886531102256,0.03617480091148986,0.003061237113470433
0.0884483,0.00848346603099948,0.005444093904057453,0.10627352671103467,0.05901265554098982,0.08513035342029655,0.02393664855978149,0.036241963287452,0.0031637513667964663
0.0889138,0.008471994052541152,0.005469503018943054,0.10512805186604154,0.05950356611845679,0.08387855227621982,0.024015278751199975,0.03631160952426258,0.003268517837468692
0.0893793,0.008461937985028563,0.00549718083666556,0.10397844735131698,0.05999421564762482,0.08262731086540329,0.024094764539128424,0.03638378825685084,0.0033755471693612486
0.0898448,0.008453333585799673,0.005527163948400069,0.10282499041772333,0.06048455543788244,0.08137686648150023,0.024175114106664307,0.036458547527375526,0.0034848495837341864
0.0903103,0.008446216424931622,0.005559488871596463,0.10166795714272193,0.06097453673529294,0.08012745472647913,0.024256335164631288,0.036535934765009145,0.003596434872915592
0.0907759,0.008440621875572388,0.005594192042417587,0.1005076223626271,0.061464110733611556,0.07887930948341945,0.024338434950252723,0.036615996765836635,0.0037103123940437858
0.0912414,0.008436585104309278,0.005631309808140399,0.0993442596056855,0.061953228585406174,0.07763266289039085,0.024421420226019452,0.03669877967287346,0.0038264910628720435
0.0917069,0.008434141061576764,0.005670878419520541,0.0981781410259997,0.062441841413282885,0.07638774531540786,0.024505297278751975,0.03678432895620791,0.0039449793476383395
0.0921724,0.008433324472106185,0.005712934023120833,0.09700953733831387,0.06292990032121851,0.07514478533245174,0.02459007191885728,0.0368726893932721,0.004065785263002588
0.0926379,0.008434169825419866,0.00575751265360424,0.09583871775367964,0.06341735640600213,0.0739040096985501,0.024675749479780712,0.0369639050492461,0.004188916364053904
0.0931034,0.008436711366372234,0.005804650225991933,0.09466594991601922,0.06390416076878808,0.07266564333190498,0.024762334817653157,0.037058019257599516,0.004314379740390392
0.093569,0.008440983085740513,0.005854382527887057,0.09349149983960266,0.06439026452676243,0.07142990929105877,0.02484983231113392,0.03715507460077506,0.004442182010273998
0.0940345,0.00844701871086758,0.005906745211664928,0.0923156318474563,0.064875618824925,0.07019702875508718,0.024938245861449517,0.0372551128910186,0.004572329314862969
0.0945,0.008454851696359563,0.005961773786630378,0.09113860851071928,0.06536017484798842,0.06896722100480751,0.025027578892628397,0.037358175151360355,0.004704827312524508
0.0949655,0.008464515214840743,0.006019503611143005,0.0899606905889644,0.0658438838323956,0.06774070340499065,0.025117834351931535,0.03746430159675201,0.004839681173230221
0.095431,0.008476042147768382,0.006079969884711119,0.08878213697149948,0.06632669707845633,0.06651769138756418,0.0252090147104788,0.03757353161536461,0.004976895573037005
0.0958966,0.008489465076310019,0.006143207640055114,0.0876032046196653,0.06680856596260348,0.06529839843579438,0.025301121964070875,0.03768590375005252,0.005116474688656064
0.0963621,0.008504816272285838,0.00620925173514102,0.08642414851014533,0.06728944194976896,0.06408303606943502,0.02539415763420647,0.037801455679988785,0.005258422192112762
0.0968276,0.008522127689178682,0.006278136845184893,0.0852452215793016,0.06776927660587859,0.06287181383083076,0.025488122769294547,0.03792022420247777,0.005402741245500062
0.0972931,0.008541430953214246,0.006349897454628704,0.0840666746685509,0.06824802161046498,0.0616649392719632,0.025583017946061153,0.03804224521495119,0.005549434495828305
0.0977586,0.008562757354513995,0.0064245678490883135,0.0828887564707947,0.06872562876939671,0.06046261794242758,0.025678843271150435,0.03816755369715388,0.005698504069974104
0.0982241,0.008586137838323266,0.00650218210727409,0.08171171347791505,0.06920205002772167,0.05926505337832835,0.025775598382919374,0.03829618369352594,0.005849951569731111
0.0986897,0.008611602996316987,0.006582774092884699,0.08053578992934822,0.06967723748262175,0.05807244709208113,0.025873282453425746,0.038428168295787796,0.0060037780669654085
0.0991552,0.008639183057985392,0.006666377446474581,0.07936122776174745,0.07015114339647582,0.05688499856310872,0.025971894190609024,0.03856353962573512,0.00615998409887822
0.0996207,0.008668907882102053,0.006753025577295651,0.07818826655974494,0.07062372021002716,0.05570290522941889,0.026071431840663736,0.038702328818250614,0.006318569663378623
0.1000862,0.00870080694827646,0.006842751655113707,0.07701714350782263,0.07109492055565134,0.05452636248005086,0.026171893190604936,0.038844566004539685,0.006479534214568866
0.1005517,0.008734909348593377,0.006935588602000127,0.0758480933433008,0.07156469727071976,0.053355563648377485,0.02627327557102542,0.03899028029559713,0.0066428766583448776
0.1010172,0.008771243779341095,0.0070315690840994215,0.0746813483104526,0.07203300341105395,0.05219070000624976,0.026375575859044192,0.03913949976591203,0.0068085953481144944
0.1014828,0.008809838532830676,0.007130725503373269,0.07351713811575215,0.07249979226446492,0.05103196075896995,0.026478790481445635,0.03929225143741808,0.0069766880806358695
0.1019483,0.00885072148930824,0.007233089989321793,0.07235568988426298,0.07296501736437175,0.04987953304107914,0.02658291541800878,0.03944856126369675,0.007147152091978553
0.1024138,0.008893920108962242,0.007338694390682917,0.07119722811717305,0.07342863250349342,0.04873360191294474,0.02668794620502606,0.03960845411444027,0.007319984053609693
0.1028793,0.008939461424027635,0.00744757026711091,0.07004197465048183,0.07389059174760712,0.04759435035813345,0.02679387793901087,0.03977195376018158,0.007495180068607847
0.1033448,0.008987372030988755,0.007559748880835431,0.0688901486148444,0.07435084944936667,0.046461959281554464,0.026900705280593084,0.03993908285729814,0.007672735668006932
0.1038103,0.009037678082882611,0.00767526118830265,0.06774196639657694,0.07480936026217375,0.04533660750835807,0.0270084224586016,0.04010986293329608,0.00785264580727283
0.1042759,0.009090405281704293,0.007794137831800286,0.06659764159982715,0.07526607915409458,0.04421847178357394,0.02711702327433268,0.04028431437238114,0.008034904862915207
0.1047414,0.009145578870916084,0.007916409131068596,0.0654573850099127,0.07572096142181424,0.04310772677247338,0.02722650110600278,0.04046245640132245,0.008219506629237027
0.1052069,0.00920322362806179,0.00804210507489946,0.06432140455783023,0.07617396270462011,0.042004545061639635,0.027336848913384303,0.04064430707561487,0.008406444315224216
0.1056724,0.009263363857487763,0.008171255312725847,0.06318990528593668,0.07662503899840567,0.04090909716072956,0.027448059242622603,0.04082988326594546,0.00859571054157789
0.1061379,0.009326023383171966,0.008303889146203893,0.06206308931480471,0.07707414666968514,0.03982155150491029,0.02756012423123239,0.04101920064496899,0.008787297337891499
0.1066034,0.009391225541662402,0.008440035520789905,0.060941155811252624,0.07752124246960951,0.0387420744579538,0.027673035613271543,0.04121227367439761,0.008981196139975152
0.107069,0.009458993175126133,0.00857972301731455,0.05982430095754934,0.07796628354797412,0.03767083031597213,0.027786784724690216,0.041409115592408986,0.009177397787329398
0.1075345,0.009529348624510001,0.008722979843556477,0.058712717921794284,0.07840922746720783,0.036607981311776006,0.027901362508852848,0.04160973840137749,0.009375892520770684
0.108,0.009602313722814152,0.008869833825817615,0.057606596829471376,0.07885003221633335,0.03555368761983937,0.028016759522230546,0.04181415285593246,0.009576669980210674
0.1084655,0.009677909788479324,0.009020312400502398,0.056506124736176104,0.07928865622488865,0.034508107361852496,0.028132965940261313,0.04202236845134768,0.00977971920259164
0.108931,0.009756157618888844,0.00917444260570316,0.05541148560151396,0.07972505837679812,0.03347139661284638,0.02824997156337523,0.04223439341226599,0.009985028619980055
0.1093966,0.009837077483986151,0.009332251072793854,0.05432286026416821,0.08015919802418331,0.0324437094078714,0.02836776582318173,0.0424502346817628,0.01019258605782051
0.1098621,0.009920689120008597,0.009493764018034333,0.05324042641813452,0.08059103500110228,0.031425197749213346,0.028486337788815826,0.042669897910752215,0.010402378733352006
0.1103276,0.010007011723338267,0.009659007234187273,0.05216435859011941,0.08102052963720739,0.030416011614129882,0.028605676173439936,0.04289338744773895,0.01061439325418865
0.1107931,0.010096063944470428,0.00982800608214991,0.05109482811809922,0.08144764277131164,0.029416298963090535,0.0287257693408979,0.043120706328919345,0.01082861561706679
0.1112586,0.0101878638821002,0.010000785482602675,0.05003200313103565,0.08187233576485423,0.02842620574850311,0.028846605312517377,0.043351856268634276,0.011045031206760557
0.1117241,0.010282429077328004,0.010177369907676884,0.048976048529743854,0.08229457051525702,0.02744587592390931,0.028968171774056767,0.04358683765017629,0.011263624795167874
0.1121897,0.010379776507984271,0.01035778337264372,0.047927125968908225,0.08271430946916443,0.02647545145363236,0.029090456082792437,0.04382564951695338,0.011484380540568963
0.1126552,0.010479922583073887,0.010542049427626835,0.0468853938402409,0.08313151563555977,0.025515072322859204,0.029213445274741977,0.04406828956401131,0.011707281987059481
0.1131207,0.010582883137340793,0.010730191149341031,0.04585100725677743,0.08354615259875124,0.02456487654814001,0.029337126072018854,0.044314754129916305,0.011932312064160368
0.1135862,0.01068867342595312,0.010922231132859736,0.044824118038303676,0.08395818453122075,0.023625000188287667,0.029461484890313756,0.0445650381889995,0.012159453086606507
0.1140517,0.010797308119309245,0.011118191483414122,0.04380487469790755,0.0843675762063289,0.02269557735565996,0.029586507846497717,0.04481913534396431,0.012388686754316215
0.1145172,0.010908801297965124,0.01131809380822693,0.04279342242964886,0.08477429301086863,0.02177674022780694,0.029712180766342085,0.045077037818857586,0.01261999415254356
0.1149828,0.01102316644768327,0.011521959208384319,0.04178990309734015,0.08517830095746108,0.020868619059466003,0.029838489192350232,0.045338736452405014,0.012853355752215485
0.1154483,0.011140416454603744,0.011729808270749242,0.04079445522443102,0.0855795666967871,0.019971342194887116,0.02996541839169602,0.04560422069171131,0.013088751410455667
0.1159138,0.011260563600537536,0.011941661059919999,0.03980721398498802,0.08597805752964884,0.019085036080470404,0.03009295336426429,0.04587347858632518,0.01332616037129716
0.1163793,0.011383619558382732,0.012157537110237725,0.03882831119576213,0.08637374141885654,0.018209825277698516,0.030221078850788778,0.046146496782669064,0.013565561266585886
0.1168448,0.01150959538766387,0.012377455417846768,0.037857875309335265,0.08676658700093631,0.017345832476346017,0.03034977934108301,0.04642326051883367,0.013806932117077194
0.1173103,0.011638501530194936,0.01260143443281187,0.036896031408337214,0.0871565635976546,0.016493178507948243,0.03047903908235995,0.046703753619737255,0.014050250333727749
0.1177759,0.011770347805866445,0.012829492051296177,0.03594290120072413,0.08754364122735465,0.015651982359511995,0.030608842087636066,0.04698795849265017,0.014295492719184977
0.1182414,0.011905143408557186,0.013061645607804163,0.03499860301610947,0.08792779061610047,0.014822361187450594,0.03073917214421546,0.04727585612308572,0.014542635469476307
0.1187069,0.012042896902171137,0.013297911867493439,0.03406325180313803,0.08830898320862288,0.014004430331725784,0.03087001282224974,0.047567426071059064,0.014791654175900294
0.1191724,0.012183616216800234,0.013538307018559476,0.03313695912789362,0.08868719117906218,0.013198303330179089,0.03100134748336928,0.04786264646771618,0.015042523827121712
0.1196379,0.012327308645013671,0.013782846664697148,0.032219833173330666,0.08906238744150113,0.01240409193303523,0.031133159289381786,0.04816149401233567,0.015295218811472541
0.1201034,0.0124739808382745,0.01403154581764293,0.03131197873971992,0.08943454566028183,0.011621906117560293,0.03126543121103411,0.04846394396970648,0.015549712919460815
0.120569,0.012623638803484298,0.014284418889801519,0.03041349724609822,0.08980364026009949,0.01085185410285748,0.03139814603683328,0.048769970167885236,0.01580597934648919
0.1210345,0.012776287899656825,0.014541479686960427,0.029524486732712144,0.09016964643586577,0.01009404236478335,0.03153128638192275,0.04907954499633791,0.016063990695785096
0.1215,0.012931932834721565,0.014802741401096138,0.028645041864445206,0.090532540162334,0.009348575650967642,0.031664834697009654,0.049392639404470244,0.016323718981544236
0.1219655,0.013090577662458074,0.015068216603275219,0.027775253935218108,0.09089229820347874,0.008615556995919918,0.03179877327733908,0.049709222900551915,0.01658513563228908
0.122431,0.013252225779562208,0.01533791723665375,0.02691521087335146,0.0912488981216214,0.007895087736206303,0.031933084271710994,0.05002926355103914,0.01684821149444398
0.1228966,0.013416879922845267,0.015611854609578438,0.026064997247880233,0.09160231828629414,0.007187267525679733,0.032067749691535655,0.05035272798030024,0.01711291683612847
0.1233621,0.013584542166567235,0.01589003938879266,0.025224694275809024,0.09195253788283426,0.006492194350747301,0.03220275141992301,0.050679581370748586,0.017379221351170204
0.1238276,0.013755213919905255,0.016172481592750764,0.024394379830297134,0.09229953692070103,0.005809964545658764,0.03233807122080183,0.05100978746338737,0.01764709416333901
0.1242931,0.01392889592455857,0.016459190585043967,0.02357412844976229,0.09264329624150697,0.005140672807800887,0.03247369074806427,0.05134330855877094,0.017916503830803395
0.1247586,0.014105588252491167,0.016750175067941173,0.02276401134789164,0.09298379752675551,0.0044844122129829795,0.032609591554731726,0.05168010551838784,0.018187418350810714
0.1252241,0.01428529030381325,0.017045443076048106,0.021964096424548565,0.09332102330527613,0.0038412742306996516,0.032745755102138244,0.05202013776647065,0.01845980516459224
0.1256897,0.014468000804802764,0.01734500197008817,0.02117444827756362,0.09365495696034741,0.0032113487393572197,0.03288216276912781,0.052363363292238396,0.018733631162494158
0.1261552,0.014653717806068037,0.017648858430808465,0.020395128215397827,0.09398558273649894,0.002594724041450524,0.03301879586126209,0.05270973865257667,0.019008862689335392
0.1266207,0.014842438680852568,0.017957018453014464,0.019626194270666267,0.09431288574598196,0.0019914868786771274,0.03315563562003513,0.053059218975160825,0.01928546554999309
0.1270862,0.015034160123482902,0.01826948733973672,0.01886770121450983,0.094636851974899,0.0014017224469760582,0.0332926632320914,0.053411757962026865,0.01956340501521643
0.1275517,0.01522887814796039,0.01858626969653314,0.018119700571802705,0.09495746828898262,0.0008255144114784628,0.033429859838443696,0.05376730789359476,0.01984264582766938
0.1280172,0.015426588086697583,0.018907369425930222,0.017382240637183095,0.09527472243901294,0.0002629449213576711,0.0335672065436868,0.05412581963314778,0.020123152208202846
0.1284828,0.015627284589399895,0.01923278972200661,0.016655366491894433,0.09558860306586431,-0.00028590537543369784,0.033704684425203,0.05448724263177174,0.020404887862356627
0.1289483,0.01583096162209309,0.019562533065122182,0.015939120021424228,0.09589909970517042,-0.0008209573175518504,0.03384227454235513,0.05485152493375733,0.020687815987091327
0.1294138,0.016037612466297015,0.01989660121679579,0.015233539933927506,0.09620620279159826,-0.0013421332157872946,0.033979957945662664,0.05521861318246854,0.02097189927775041
0.1298793,0.016247229718346076,0.0202349952147347,0.014538661779421716,0.09650990366272157,-0.0018493568387396965,0.03411771568595643,0.0555884526266797,0.021257099935252294
0.1303448,0.0164598052888568,0.020577715368018584,0.013854517969739792,0.09681019456248531,-0.0023425533986539872,0.034255528823507346,0.05596098712738383,0.021543379673512216
0.1308103,0.016675330402342876,0.02092476125244084,0.013181137799227995,0.09710706864425353,-0.0028216495374294086,0.034393378437124596,0.05633615916507515,0.021830699727093544
0.1312759,0.016893795596978012,0.02127613170600998,0.01251854746617502,0.09740051997343316,-0.003286573312812935,0.03453124563321877,0.056713909847508806,0.022119020859087887
0.1317414,0.017115190724507054,0.02163182482461364,0.011866770094958817,0.09769054352966672,-0.0037372541847882305,0.03466911155482538,0.057094178917941614,0.022408303369223302
0.1322069,0.01733950495030578,0.02199183795784758,0.011225825758897428,0.09797713520858664,-0.004173623002171017,0.03480695739058435,0.0574769047638579,0.022698507102199568
0.1326724,0.017566726753589917,0.022356167705012094,0.010595731503790104,0.09826029182312399,-0.004595611989421484,0.03494476438367107,0.057862024426185044,0.022989591456249438
0.1331379,0.017796843927773927,0.022724809911277927,0.00997650137213488,0.09854001110436444,-0.005003154733684098,0.03508251384067459,0.05824947360900335,0.02328151539192456
0.1336034,0.018029843580980223,0.023097759664023977,0.009368146428008737,0.09881629170194449,-0.0053961861720649325,0.03522018714041846,0.05863918668975524,0.023574237441104533
0.134069,0.018265712136699547,0.023475011289348747,0.00877067478259642,0.09908913318398234,-0.005774642579156259,0.03535776574271971,0.05903109672995892,0.023867715716227395
0.1345345,0.01850443533460334,0.02385655834875778,0.008184091620354007,0.09935853603653869,-0.006138461554817718,0.035495231197081284,0.05942513548643204,0.02416190791973978
0.135,0.018745998231508947,0.024242393636029255,0.007608399225793188,0.09962450166260339,-0.006487582012222921,0.035632565151313356,0.059821233423030994,0.024456771353764777
0.1354655,0.0189903852024986,0.024632509174259944,0.007043597010872278,0.0998870323806051,-0.00682194416617988,0.035769749360078935,0.06021931972291125,0.02475226292998532
0.135931,0.0192375799421932,0.02502689621309377,0.0064896815429799,0.10014613142244151,-0.007141489521733198,0.0359067656933594,0.060619322301314164,0.025048339179740933
0.1363966,0.0194875654661819,0.025425545226135226,0.005946646573497312,0.10040180293102774,-0.007446160863055506,0.03604359614483572,0.061021167818885245,0.025344956264335538
0.1368621,0.01974032411260849,0.025828445908549845,0.005414483066925291,0.10065405195736003,-0.007735902242635117,0.0361802228401815,0.06142478169552891,0.025642069985553895
0.1373276,0.019995837543915596,0.02623558717485392,0.004893179230561553,0.10090288445709233,-0.008010658970766494,0.036316628045263664,0.06183008812480398,0.02593963579638425
0.1377931,0.020254086748747693,0.02664695715689549,0.004382720544714695,0.10114830728662332,-0.008270377605349722,0.036452794174247086,0.06223701008886392,0.026237608811944615
0.1382586,0.020515052044013722,0.02706254320202849,0.0038830897934407026,0.10139032819869147,-0.008515005942004984,0.03658870379759904,0.06264546937394543,0.026535943820610097
0.1387241,0.02077871307711018,0.0274823318714818,0.0033942670957880995,0.10162895583747703,-0.008744493004507824,0.03672433964998939,0.06305538658640834,0.026834595295338437
0.1391897,0.02104504882830532,0.027906308938924658,0.0029162299375379134,0.10186419973321006,-0.008958789035550906,0.036859684638082056,0.06346668116932963,0.027133517405190898
0.1396552,0.021314037613285028,0.028334459389229745,0.0024489532034246368,0.10209607029628484,-0.009157845487837745,0.03699472184821351,0.06387927141965336,0.027432664027045646
0.1401207,0.021585657085860757,0.02876676741743495,0.0019924092098244335,0.10232457881087983,-0.009341615015513768,0.03712943455395361,0.06429307450589868,0.02773198875750065
0.1405862,0.02185988424083972,0.029203216427904712,0.001546567737896862,0.1025497374280828,-0.009510051465939855,0.0372638062235443,0.06470800648642712,0.02803144492496334
0.1410517,0.022136695417057383,0.02964378903369159,0.0011113960671663998,0.10277155915852017,-0.009663109871813291,0.03739782052721156,0.06512398232827049,0.02833098560192413
0.1415172,0.022416066300572208,0.03008846705609842,0.0006868590095300515,0.10299005786448905,-0.009800746443640785,0.037531461344346,0.0655409159265204,0.028630563617411064
0.1419828,0.022697971928022313,0.030537231524441464,0.0002729189436773467,0.1032052482515901,-0.00992291856256795,0.037664712770547434,0.06595872012428028,0.028930131569622566
0.1424483,0.022982386690143585,0.030990062676014733,-0.0001304641500909627,0.10341714585985995,-0.010029584773569418,0.03779755912452868,0.06637730673318058,0.02922964183873515
0.1429138,0.023269284335448576,0.03144693995625573,-0.0005233326546591509,0.10362576705440187,-0.010120704779003491,0.03792998495487384,0.0667965865544573,0.029529046599882754
0.1433793,0.02355863797406535,0.03190784201911281,-0.0009057312805213001,0.10383112901551521,-0.010196239432535031,0.038061975046646226,0.06721646940059404,0.029828297836304012
0.1438448,0.023850420081735293,0.032372746727614476,-0.001277707029848136,0.1040332497283254,-0.010256150733430057,0.03819351442784093,0.06763686411752687,0.030127347352653766
0.1443103,0.024144602503968736,0.03284163115464114,-0.0016393091602093677,0.10423214797191797,-0.010300401821225316,0.038324588375676774,0.06805767860741135,0.030426146788474728
0.1447759,0.02444115646035705,0.033314471583899836,-0.0019905891479649104,0.10442784330798155,-0.010328956970775717,0.03845518242272227,0.06847881985195062,0.030724647631825128
0.1452414,0.02474005254903969,0.03379124351110273,-0.0023316006513383054,0.10462035606896555,-0.010341781587682113,0.0385852823628498,0.06890019393628255,0.031022801233057794
0.1457069,0.025041260751324703,0.03427192164535012,-0.0026623994731855886,0.1048097073457592,-0.010338842204101601,0.03871487425701227,0.06932170607342399,0.03132055881874602
0.1461724,0.025344750436460936,0.03475647991071884,-0.0029830435234727923,0.10499591897489896,-0.010320106474942069,0.0388439444388363,0.06974326062926922,0.03161787150575127
0.1466379,0.02565049036656019,0.03524489144805682,-0.003293592781475203,0.10517901352531185,-0.010285543174442361,0.0389724795200262,0.07016476114813945,0.03191469031542762
0.1471034,0.02595844870166743,0.035737128616984505,-0.0035941092577114185,0.10535901428460355,-0.010235122193139233,0.03910046639557322,0.07058611037887946,0.03221096618795745
0.147569,0.02626859300497719,0.03623316299810366,-0.003884656955625204,0.10553594524490127,-0.010168814535221901,0.03922789224876436,0.07100721030149722,0.03250664999681294
0.1480345,0.02658089024819416,0.03673296539541381,-0.004165301833028065,0.10570983108826312,-0.010086592316274842,0.03935474455598536,0.07142796215434125,0.03280169256333759
0.1485,0.026895306817036255,0.03723650583893622,-0.004436111763315405,0.10588069717166634,-0.009988428761409136,0.03948101109131208,0.07184826646181058,0.03309604467144195
0.1489655,0.027211808516878367,0.03774375358754528,-0.0046971564964690985,0.1060485695115872,-0.009874298203782425,0.039606679930884424,0.07226802306259106,0.03338965708240771
0.149431,0.02753036057853523,0.03825467713200672,-0.004948507619859203,0.10621347476818561,-0.009744176083507108,0.039731739457057026,0.07268713113841123,0.03368248054979403
0.1498966,0.02785092766418194,0.03876924419822208,-0.0051902385188575175,0.10637544022910711,-0.009598038946946061,0.03985617836232132,0.07310548924331087,0.03397446583444012
0.1503621,0.0281734738734107,0.03928742175067863,-0.005422424337275568,0.1065344937929147,-0.009435864446394724,0.03997998565299382,0.07352299533341435,0.0342655637195578
0.1508276,0.028497962749422352,0.03980917599610391,-0.0056451419376395305,0.10669066395216187,-0.009257631340148016,0.040103150652666224,0.07393954679720043,0.034555725025907556
0.1512931,0.028824357285351276,0.04033447238732393,-0.005858469861314551,0.10684397977611863,-0.00906331949295021,0.04022566300541321,0.07435504048625971,0.03484490062705152
0.1517586,0.02915261993072201,0.04086327562732447,-0.006062488288490781,0.10699447089316201,-0.008852909876825599,0.04034751267875432,0.07476937274653031,0.035133041464676495
0.1522241,0.029482712598035955,0.041395549673514165,-0.006257278998043434,0.10714216747284355,-0.008626384572287538,0.040468689966366045,0.07518243945000218,0.03542009856398001
0.1526897,0.029814596669486288,0.04193125774218892,-0.006442925327279047,0.107287100207648,-0.008383726769923125,0.04058918549054069,0.07559413602687982,0.03570602304911236
0.1531552,0.030148233003799294,0.04247036231319659,-0.006619512131580071,0.10742930029445842,-0.008124920772350485,0.04070899020438843,0.07600435749819333,0.0359907661586672
0.1536207,0.030483581943200153,0.04301282513480128,-0.006787125743959806,0.10756879941574385,-0.007849951996545201,0.040828095393779566,0.0764129985088471,0.036274279261213134
0.1540862,0.030820603320501162,0.043558607228746264,-0.0069458539345396125,0.10770562972048592,-0.007558806976532057,0.04094649267902428,0.07681995336109598,0.036556513870858634
0.1545517,0.031159256466310226,0.04410766889551474,-0.007095785869960209,0.1078398238048607,-0.007251473366437806,0.04106417401628813,0.07722511604843789,0.03683742166284213
0.1550172,0.03149950021635721,0.044659969719787036,-0.007237012072738784,0.10797141469269188,-0.0069279399439002715,0.0411811316987423,0.07762838028991204,0.03711695448913924
0.1554828,0.031841292918935636,0.04521546857609303,-0.007369624380583556,0.10810043581569145,-0.0065881966138286304,0.04129735835744856,0.0780296395647914,0.03739506439407867
0.1559483,0.03218459244245721,0.045774123634657875,-0.007493715905677339,0.10822692099350394,-0.006232234412509389,0.04141284696197952,0.07842878714765807,0.037671703629958427
0.1564138,0.032529356183116365,0.04633589236743891,-0.007609380993941567,0.10835090441357038,-0.005860045512052184,0.04152759082077509,0.0788257161438493,0.037946824672653374
0.1568793,0.032875541072662405,0.04690073155435128,-0.007716715184292159,0.10847242061082846,-0.005471623225169223,0.041641583581236576,0.07922031952526261,0.03822038023720521
0.1573448,0.03322310358627655,0.04746859728967972,-0.007815815167898508,0.10859150444726433,-0.005066962010281835,0.04175481922955989,0.07961249016650747,0.038492323293385554
0.1578103,0.033571999750551716,0.048039444988673505,-0.007906778747456777,0.10870819109133174,-0.004646057476947245,0.04186729209030996,0.08000212088139107,0.038762607081222526
0.1582759,0.03392218515157284,0.048613229394321535,-0.007989704796488601,0.1088225159972529,-0.00420890639159841,0.041978996825738545,0.08038910445972536,0.03903118512648133
0.1587414,0.034273614943096116,0.04918990458430427,-0.008064693218676172,0.10893451488421513,-0.003755506683589504,0.04208992843484802,0.08077333370444194,0.03929801125608898
0.1592069,0.034626243854825704,0.049769423978119065,-0.008131844907244556,0.1090442237154764,-0.0032858574515394674,0.04220008225220401,0.0811547014690005,0.03956303961349358
0.1596724,0.03498002620078694,0.05035174034437519,-0.008191261704401948,0.10915167867739257,-0.002799958969965915,0.04230945394649995,0.08153310069507654,0.03982622467394846
0.1601379,0.035334915887795644,0.05093680580825453,-0.008243046360848374,0.1092569161583789,-0.0022978126962016573,0.042418039518876856,0.08190842445051293,0.04008752125971163
0.1606034,0.03569086642402331,0.05152457185913391,-0.008287302495363228,0.10935997272781836,-0.0017794212775860026,0.04252583530100147,0.08228056596751972,0.04034688455515118
0.161069,0.036047830927658515,0.05211498935836457,-0.008324134554481777,0.10946088511493067,-0.0012447885589229662,0.04263283795290603,0.08264941868110577,0.040604270121747756
0.1615345,0.03640576213566515,0.052708008547204685,-0.008353647772270649,0.10955969018761585,-0.000693919590198435,0.042739044460592394,0.08301487626772525,0.04085963391298562
0.162,0.036764612412638176,0.053303579054900456,-0.008375948130212163,0.10965642493128691,-0.00012682063454823276,0.04284445213340318,0.08337683268412166,0.04111293228912462
0.1624655,0.037124333759757745,0.053901649906911465,-0.008391142317207187,0.10975112642770628,0.00045650082353106657,0.042949058601162333,0.08373518220635194,0.04136412203184585
0.162931,0.03748487782384232,0.05450216953327599,-0.008399337689706143,0.10984383183384086,0.0010560360697368127,0.043052861811087376,0.08408981946897297,0.04161316035876428
0.1633966,0.037846195906501436,0.055105085777111894,-0.008400642231977652,0.10993457836075013,0.0016717751512887367,0.04315586002447576,0.08444063950437318,0.04186000493780204
0.1638621,0.03820823897338849,0.05571034590324881,-0.008395164516524209,0.11002340325252169,0.0023037068680395343,0.04325805181316748,0.08478753778223241,0.04210461390141652
0.1643276,0.038570957663553965,0.0563178966069871,-0.008383013664654127,0.11011034376526893,0.0029518187633759576,0.043359436055786335,0.0851304102490932,0.04234694586067774
0.1647931,0.03893430229889955,0.05692768402297907,-0.008364299307218919,0.110195437146205,0.0036160971149188205,0.04346001193376195,0.08546915336802696,0.04258695991919016
0.1652586,0.039298222893733796,0.05753965373422784,-0.008339131545525118,0.11027872061280737,0.004296526925030358,0.04355977892713476,0.08580366415837874,0.042824615686855014
0.1657241,0.039662669164429974,0.058153750781198915,-0.008307620912429429,0.11036023133208661,0.0049930919111374145,0.04365873681014593,0.08613384023557409,0.04305987329347054
0.1661897,0.04002759053918699,0.058769919671039415,-0.008269878333625993,0.11044000639997235,0.005705774495878991,0.043756885646614285,0.0864595798509724,0.043292693402168694
0.1666552,0.040392936167894425,0.059388104386899475,-0.008226015089134453,0.11051808282082898,0.006434555797086851,0.043854225785102244,0.08678078193175133,0.04352303722268773
0.1671207,0.040758654932102664,0.0600082483973499,-0.008176142774997392,0.11059449748711238,0.007179415617608128,0.0439507578538729,0.08709734612080813,0.043750866524480424
0.1675862,0.041124695455099135,0.06063029466588997,-0.008120373265195697,0.11066928715917874,0.007940332434979257,0.04404648275564022,0.08740917281666372,0.043976143649658364
0.1680517,0.04149100611209179,0.06125418566053881,-0.008058818673790255,0.11074248844525572,0.008717283390961074,0.04414140166211419,0.08771616321335558,0.04419883152577229
0.1685172,0.04185753504050089,0.061879863363503707,-0.007991591317298307,0.11081413778158596,0.009510244280945372,0.04423551600834262,0.08801821934030545,0.044418893678428446
0.1689828,0.04222423015036014,0.06250726928091871,-0.007918803677312677,0.11088427141275235,0.010319189543243661,0.04432882748685092,0.08831524410214732,0.044636294243740694
0.1694483,0.042591039134828354,0.06313634445264682,-0.007840568363371997,0.11095292537219355,0.01114409224826909,0.044421338041580924,0.08860714131850127,0.0448509979806179
0.1699138,0.04295790948081243,0.06376702946213965,-0.007756998076089936,0.11102013546291792,0.011984924087622601,0.04451304986162992,0.08889381576367776,0.045062970282885834
0.1703793,0.043324788479702434,0.06439926444634823,-0.007668205570551349,0.11108593723842283,0.012841655363094374,0.044603965374790853,0.08917517320629735,0.04527217719124234
0.1708448,0.043691623238219256,0.06503298910567906,-0.007574303619983117,0.11115036598382572,0.01371425497559161,0.04469408724089446,0.08945112044880973,0.04547858540504459
0.1713103,0.04405836068937479,0.06566814271398892,-0.007475404979707338,0.1112134566972128,0.014602690414003559,0.044783418344954674,0.08972156536689618,0.045682162293926645
0.1717759,0.04442494760354449,0.06630466412861222,-0.007371622351384359,0.11127524407121114,0.0155069277440147,0.04487196179011902,0.08998641694873907,0.04588287590924551
0.1722414,0.044791330599651825,0.06694249180041377,-0.007263068347552961,0.11133576247478899,0.016426931596876863,0.04495972089042606,0.0902455853341416,0.046080694995353354
0.1727069,0.045157456156463896,0.06758156378385986,-0.007149855456474761,0.11139504593528919,0.017362665158150974,0.045046699163372894,0.09049898185348111,0.04627558900069335
0.1731724,0.04552327062399731,0.06822181774710015,-0.007032096007289596,0.11145312812069995,0.01831409015642905,0.045132900322296075,0.090746519066479,0.04646752808871625
0.1736379,0.04588872023503328,0.0688631909820531,-0.0069099021354884485,0.11151004232216696,0.019281166852046915,0.04521832826857017,0.0909881108007696,0.04665648314861481
0.1741034,0.04625375111674088,0.06950562041448763,-0.0067833857487101835,0.11156582143675071,0.020263854025798157,0.04530298708362888,0.09122367219025018,0.04684242580587253
0.174569,0.04661830930240734,0.07014904261409385,-0.00665265849286818,0.11162049795043169,0.02126210896765959,0.045386881020814174,0.09145311971319431,0.04702532843262377
0.1750345,0.04698234074327411,0.07079339380453621,-0.006517831718612783,0.111674103921366,0.022275887465538543,0.045470014497059105,0.09167637123010984,0.047205164157821625
0.1755,0.04734579132047733,0.07143860987348276,-0.006379016448135355,0.11172667096339331,0.023305143794052168,0.04555239208441018,0.09189334602132328,0.04738190687721033
0.1759655,0.04770860685709118,0.07208462638260477,-0.006236323342319569,0.11177823022979852,0.02434983070334888,0.04563401850139574,0.09210396482427183,0.04755553126309858
0.176431,0.048070733130272665,0.07273137857754104,-0.006089862668245405,0.11182881239732799,0.025409899407982092,0.04571489860424699,0.09230814987048576,0.047726012773930016
0.1768966,0.048432115883505884,0.07337880139782192,-0.005939744267051092,0.11187844765046136,0.026485299575846416,0.04579503737797872,0.0925058249222434,0.047893327663646686
0.1773621,0.04879270083894412,0.07402682948674795,-0.005786077522158061,0.11192716566593928,0.027575979317186496,0.04587443992733704,0.09269691530888176,0.04805745299084177
0.1778276,0.049152433709847426,0.07467539720121816,-0.005628971327863766,0.11197499559754677,0.02868188517368887,0.04595311146762181,0.09288134796274612,0.048218366627696914
0.1782931,0.049511260213113376,0.07532443862150277,-0.00546853405830706,0.11202196606115135,0.029802962107667356,0.04603105731539191,0.09305905145476152,0.04837604726870017
0.1787586,0.049869126081898155,0.07597388756095504,-0.005304873536810753,0.11206810511999524,0.03093915349135268,0.04610828287906173,0.09322995602960987,0.048530474439140256
0.1792241,0.050225977078325275,0.07662367757565686,-0.005138097005605776,0.11211344027023974,0.032090401096297246,0.04618479364939723,0.09339399364049626,0.048681628503372924
0.1796897,0.05058175900627841,0.0772737419739927,-0.004968311095941421,0.11215799842676075,0.033256645082906156,0.046260595189919984,0.09355109798348926,0.04882949067285511
0.1801552,0.050936417724275124,0.07792401382614617,-0.004795621798585933,0.112201805909194,0.034437823990105546,0.04633569312722708,0.09370120453142163,0.0489740430139422
0.1806207,0.051289899158418265,0.07857442597351365,-0.004620134434721696,0.11224488842823012,0.03563387472515918,0.04641009314123486,0.09384425056733973,0.049115268455444096
0.1810862,0.051642149315421514,0.07922491103802932,-0.004441953627239145,0.11228727107215979,0.03684473255364412,0.046483800955353746,0.0939801752174912,0.049253150795935396
0.1815517,0.05199311429570569,0.07987540143139563,-0.004261183272433448,0.11232897829367013,0.038070331089596135,0.046556822326602125,0.09410891948384134,0.04938767471081542
0.1820172,0.05234274030656225,0.08052582936421258,-0.004077926512107857,0.11237003389689391,0.03931060228583514,0.04662916303566643,0.09423042627610913,0.04951882575911363
0.1824828,0.052690973675380184,0.08117612685499945,-0.003892285706087591,0.1124104610247133,0.04056547642448088,0.04670082887691508,0.0943446404433133,0.049646590390036216
0.1829483,0.053037760862932035,0.0818262257391016,-0.00370436240514799,0.11245028214631986,0.04183488210766879,0.04677182564837347,0.0944515088048195,0.049770955949249567
0.1834138,0.0533830484767144,0.08247605767747596,-0.0035142573243606293,0.11248951904503285,0.043118746248476156,0.04684215914166723,0.0945509801808795,0.049891910684896075
0.1838793,0.05372678328433786,0.08312555416534861,-0.0033220703168609974,0.11252819280637831,0.04441699406206841,0.04691183513194096,0.09464300542265372,0.050009443753337726
0.1843448,0.054068912226960954,0.08377464654074021,-0.0031279003480413118,0.11256632380643113,0.04572954905707556,0.04698085936775915,0.09472753744170839,0.05012354522462264
0.1848103,0.0544093824327623,0.08442326599285543,-0.002931845470171992,0.11260393170042246,0.0470563330272086,0.04704923756099593,0.09480453123897904,0.05023420608766944
0.1852759,0.054748141230444664,0.0850713435703344,-0.002734002797455254,0.11264103541161473,0.048397266043125435,0.047116975376719925,0.09487394393319164,0.050341418255164624
0.1857414,0.055085136162764774,0.08571881018936457,-0.002534468481514198,0.11267765312044571,0.04975226644455583,0.047184078423080436,0.0949357347887337,0.050445174568167765
0.1862069,0.055420315000082335,0.08636559664165222,-0.002333337687320703,0.11271380225394302,0.0511212508326944,0.04725055224120091,0.09498986524296749,0.050545468800419525
0.1866724,0.05575362575392197,0.08701163360225231,-0.0021307045695653517,0.11274949947540891,0.052504134062870404,0.047316402295086164,0.09503629893297807,0.05064229566234826
0.1871379,0.05608501669054162,0.08765685163725637,-0.0019266622494725104,0.11278476067437516,0.053900829237503084,0.0473816339615499,0.0950750017217496,0.05073565080477096
0.1876034,0.05641443634450101,0.08830118121133783,-0.0017213027920635786,0.11281960095682705,0.05531124769935106,0.04744625252016959,0.09510594172376367,0.0508255308222846
0.188069,0.05674183353222371,0.08894455269515573,-0.0015147171838712941,0.11285403463569417,0.0567352990250647,0.047510263143276096,0.09512908933001409,0.050911933256344535
0.1885345,0.05706715736554611,0.0895868963726183,-0.001306995311107781,0.11288807522160618,0.05817289101905034,0.047573670885985776,0.0951444172324324,0.05099485659802594
0.189,0.05739035726524663,0.09022814244800834,-0.001098225938288823,0.1129217354139112,0.05962392970765518,0.04763648067628328,0.09515190044771893,0.05107430029046496
0.1894655,0.05771138297454795,0.09086822105297392,-0.0008884966873166149,0.11295502709195529,0.06108831933368182,0.04769869730516369,0.09515151634057313,0.051150264730975746
0.189931,0.05803018457258497,0.09150706225338788,-0.0006778940170230395,0.11298796130662293,0.06256596235124072,0.04776032541684357,0.09514324464631756,0.05122275127283977
0.1903966,0.05834671248783103,0.09214459605608077,-0.00046650320317533414,0.1130205482721396,0.06405675942094875,0.04782136949905141,0.09512706749290781,0.05129176222676407
0.1908621,0.058660917511474155,0.09278075241545286,-0.00025440831894587575,0.1130527973581391,0.06556060940548124,0.04788183387340808,0.09510296942232135,0.05135730086200511
0.1913276,0.05897275081073545,0.09341546123997178,-4.169221584768191e-05,0.11308471708200026,0.06707740936548474,0.047941722685908406,0.09507093741131652,0.051419371407155204
0.1917931,0.059282163942121144,0.09404865239856387,0.00017156349486291942,0.11311631510145802,0.06860705455585706,0.04800103989751452,0.09503096089155288,0.051477979050588756
0.1922586,0.05958910886459957,0.09468025572690707,0.00038527846031516795,0.11314759820749457,0.07014943842240053,0.04805978927487205,0.09498303176906378,0.05153312994056503
0.1927241,0.059893537952694184,0.09531020103363418,0.0005993736036831873,0.11317857231751581,0.07170445259885434,0.04811797438115913,0.0949271444430707,0.05158483118498469
0.1931897,0.06019540400948361,0.09593841810645523,0.0008137711413747879,0.11320924246881812,0.0732719869043109,0.04817559856707907,0.09486329582412993,0.05163309085079653
0.1936552,0.060494660279499644,0.09656483671820747,0.001028394599748937,0.1132396128123503,0.07485192934102082,0.04823266496200661,0.09479148535160123,0.05167791796305151
0.1941207,0.060791260461514667,0.09718938663284145,0.001243168831361189,0.11326968660677508,0.07644416609259087,0.048289176465298185,0.09471171501042946,0.05171932250360101
0.1945862,0.061085158721210245,0.09781199761135162,0.0014580200307364687,0.113299466212835,0.0780485815225784,0.04834513573777569,0.0946239893472317,0.05175731540943703
0.1950517,0.061376309703719586,0.09843259941765997,0.0016728757496686716,0.1133289530880275,0.0796650581734853,0.04840054519339336,0.09452831548568244,0.05179190857067251
0.1955172,0.06166466854603751,0.0990511218244613,0.0018876649120466201,0.11335814778159525,0.08129347676615409,0.04845540699109666,0.09442470314119222,0.051823114828160585
0.1959828,0.06195019088929265,0.09966749461903879,0.0021023178282059468,0.11338704992983777,0.0829337161995682,0.04850972302688201,0.09431316463487535,0.05185094797075245
0.1964483,0.06223283289087741,0.10028164760905815,0.0023167662088065446,0.11341565825175112,0.08458565355105842,0.048563494926065556,0.09419371490680367,0.051875422732193956
0.1969138,0.06251255123643241,0.10089351062834837,0.0025309431782352906,0.11344397054500252,0.08624916407691686,0.048616724035768936,0.09406637152854411,0.05189655478766153
0.1973793,0.06278930315168242,0.10150301354267645,0.0027447832875338463,0.11347198368224633,0.0879241212134202,0.04866941141762952,0.09393115471497816,0.051914360749938604
0.1978448,0.0630630464141215,0.10211008625552372,0.002958222526851429,0.11349969360778756,0.08961039657826342,0.048721557840742405,0.09378808733540246,0.05192885816523431
0.1983103,0.06333373936454555,0.1027146587138706,0.0031711983374225344,0.11352709533459839,0.09130785997240522,0.04877316377484093,0.09363719492391001,0.05194006550864715
0.1987759,0.06360134091843027,0.10331666091399641,0.003383649623069646,0.11355418294169228,0.09301637938232624,0.048824229383722245,0.09347850568905285,0.05194800217927713
0.1992414,0.06386581057715292,0.10391602290730037,0.0035955167612309927,0.11358094957185946,0.0947358209827004,0.04887475451892423,0.09331205052278754,0.05195268849499085
0.1997069,0.06412710843905603,0.10451267480615012,0.0038067416135134182,0.11360738742976693,0.09646604913947945,0.0489247387136595,0.09313786300870601,0.05195414568684489
0.2001724,0.06438519521035171,0.10510654678976356,0.004017267535770433,0.11363348778042627,0.09820692641338939,0.04897418117701206,0.09295597942955454,0.051952395893172784
0.2006379,0.06464003221586485,0.10569756911012959,0.004227039387705518,0.1136592409480318,0.09995831356383807,0.04902308078840177,0.09276643877404497,0.05194746215334186
0.2011034,0.06489158140961357,0.10628567209797266,0.004436003542000771,0.11368463631517278,0.10172006955323132,0.04907143609232192,0.09256928274296167,0.05193936840118588
0.201569,0.06513980538522526,0.10687078616876557,0.0046441078929710024,0.11370966232242252,0.10349205155169441,0.049119245293354895,0.09236455575456842,0.05192813945812005
0.2020345,0.06538466738618659,0.10745284182879443,0.004851301864743446,0.11373430646830796,0.10527411494219524,0.049166506251471224,0.0921523049493193,0.051913801025944714
0.2025,0.06562613131592586,0.10803176968127905,0.005057536418963266,0.11375855530966389,0.10706611332606432,0.04921321647761701,0.09193258019387666,0.05189637967934449
0.2029655,0.0658641617477267,0.10860750043255259,0.005262764062025141,0.11378239446237684,0.10886789852890626,0.049259373129594684,0.09170543408443971,0.051875902858089414
0.203431,0.0660987239344724,0.10917996489830416,0.005466938851831201,0.11380580860252525,0.11067932060689686,0.04930497300824183,0.09147092194938533,0.05185239885894529
0.2038966,0.06632978381821994,0.10974909400988914,0.005670016404075635,0.1138287814679249,0.1125002278534587,0.04935001255391273,0.0912291018512231,0.05182589682730027
0.2043621,0.06655730803960301,0.11031481882071308,0.005871953898056293,0.11385129586008995,0.114330466806308,0.049394487843266846,0.09098003458786502,0.05179642674851497
0.2048276,0.066781263947063,0.11087707051269606,0.0060727100820135715,0.11387333364662094,0.11616988225486491,0.04943839458636876,0.09072378369321031,0.05176401943900369
0.2052931,0.06700161960590659,0.11143578040282567,0.006272245277996887,0.11389487576403165,0.11801831724801912,0.04948172812410329,0.09046041543704421,0.05172870653705411
0.2057586,0.0672183438071878,0.11199087994980685,0.006470521386259034,0.11391590222102663,0.11987561310224236,0.04952448342590964,0.09018999882424984,0.05169052049339292
0.2062241,0.06743140607641261,0.11254230076081746,0.006667501889178788,0.11393639210224038,0.12174160941004027,0.04956665508783798,0.08991260559333115,0.05164949456150457
0.2066897,0.06764077668206304,0.11308997459837838,0.006863151854712155,0.11395632357244846,0.12361614404873592,0.04960823733093127,0.08962831021424468,0.051605662787710255
0.2071552,0.06784642664393763,0.11363383338734608,0.007057437939372743,0.11397567388126047,0.12549905318957785,0.049649223999935196,0.0893371898855381,0.05155906000101399
0.2076207,0.0680483277413045,0.11417380922203516,0.007250328390741751,0.11399441936830382,0.12739017130716526,0.049689608562338526,0.08903932453079352,0.05150972180272234
0.2080862,0.06824645252086292,0.11470983437347787,0.0074417930495080395,0.1140125354689071,0.12928933118918245,0.04972938410774604,0.08873479679437395,0.0514576845558444
0.2085517,0.06844077430450836,0.1152418412968263,0.007631803351038791,0.11402999672029032,0.13119636394643472,0.04976854334758597,0.088423692036472,0.051402985374278246
0.2090172,0.06863126719689586,0.11576976263890335,0.007820332326481164,0.11404677676826876,0.13311109902317714,0.04980707861515338,0.0881060983274599,0.051345662111789925
0.2094828,0.06881790609279581,0.11629353124590787,0.008007354603395394,0.1140628483744769,0.13503336420772846,0.04984498186599086,0.08778210644154043,0.05128575335079088
0.2099483,0.06900066668423574,0.1168130801712793,0.008192846405919748,0.11407818342411702,0.13696298564336246,0.0498822446786075,0.08745180984969989,0.05122329839091918
0.2104138,0.06917952546742102,0.11732834268372727,0.008376785554467798,0.11409275293423635,0.13889978783946966,0.04991885825553691,0.08711530471196405,0.05115833723742988
0.2108793,0.06935445974942744,0.11783925227543142,0.008559151464958538,0.11410652706253624,0.14084359368298352,0.04995481342473481,0.08677268986895956,0.05109091058939946
0.2113448,0.06952544765465818,0.11834574267041618,0.0087399251475799,0.11411947511671545,0.1427942244500652,0.04999010064131678,0.08642406683278396,0.05102105982774911
0.2118103,0.06969246813105778,0.11884774783310548,0.008919089205086281,0.11413156556434902,0.144751499818042,0.0500247099896362,0.08606953977718802,0.05094882700309118
0.2122759,0.06985550095607616,0.11934520197706044,0.009096627830630713,0.11414276604330342,0.1467152378775943,0.05005863118570269,0.0857092155270745,0.05087425482340346
0.2127414,0.07001452674237599,0.11983803957390389,0.009272526805132299,0.11415304337268879,0.1486852551451857,0.050091853579940865,0.08534320354731685,0.05079738664153556
0.2132069,0.07016952694327729,0.12032619536243325,0.009446773494179538,0.11416236356434761,0.1506613665757307,0.05012436616028909,0.08497161593090154,0.05071826644255191
0.2136724,0.07032048385793382,0.12080960435792323,0.009619356844470118,0.11417069183487992,0.15264338557549353,0.05015615755563755,0.08459456738639688,0.05063693883091615
0.2141379,0.07046738063623671,0.12128820186161887,0.009790267379787741,0.11417799261820401,0.15463112401521117,0.05018721603960481,0.08421217522475033,0.050553449017521776
0.2146034,0.07061020128344139,0.12176192347041907,0.00995949719651652,0.1141842295786509,0.15662439224343194,0.050217529534651646,0.08382455934541573,0.050467842806573966
0.215069,0.07074893066451532,0.1222307050867509,0.010127039958693443,0.11418936562459052,0.15862299910006036,0.05024708561653046,0.08343184222181153,0.05038016658232754
0.2155345,0.0708835545082044,0.12269448292863513,0.010292890892599507,0.1141933629225863,0.16062675193009757,0.050275871519068406,0.0830341488861096,0.050290467295685676
0.216,0.07101405941081763,0.12315319353994439,0.010457046780890098,0.11419618291207448,0.16263545659756645,0.0503038741392819,0.08263160691335439,0.05019879245066396
0.2164655,0.07114043283973044,0.12360677380085516,0.010619505956265424,0.11419778632056363,0.16464891749960817,0.05033108004281974,0.08222434640491127,0.05010519009072365
0.216931,0.0712626631366077,0.1240551609384957,0.01078026829468187,0.11419813317934926,0.16666693758073667,0.050357475469731836,0.08181249997124311,0.050009708784978124
0.2173966,0.07138073952034901,0.12449829253779088,0.010939335208105416,0.1141971828397374,0.16868931834723683,0.050383046340560206,0.08139620271401352,0.04991239761427581
0.2178621,0.07149465208975885,0.12493610655250499,0.011096709636808415,0.11419489398977051,0.17071585988169163,0.050407778262748566,0.08097559220751602,0.049813306157163034
0.2183276,0.07160439182594495,0.12536854131648217,0.01125239604121122,0.11419122467144892,0.17274636085762385,0.05043165653736652,0.0805508084794279,0.04971248447572997
0.2187931,0.07170995059444805,0.12579553555508363,0.011406400393270375,0.11418613229844053,0.1747806185542383,0.050454666166144364,0.08012199399088785,0.049609983101343035
0.2192586,0.07181132114710591,0.12621702839681956,0.011558730167415208,0.11417957367427135,0.17681842887125182,0.05047679185881418,0.07968929361589662,0.049505853020266735
0.2197241,0.07190849712365471,0.12663295938517327,0.011709394331034836,0.11417150501098992,0.1788595863438002,0.05049801804075254,0.07925285462004052,0.04940014565917834
0.2201897,0.07200147305307009,0.12704326849061445,0.011858403334517792,0.11416188194829911,0.18090388415741362,0.050518328860920184,0.07881282663853761,0.049292912870578284
0.2206552,0.07209024435465013,0.12744789612279778,0.012005769100846659,0.1141506595731491,0.18295111416305523,0.05053770820009352,0.07836936165360803,0.0491842069180996
0.2211207,0.0721748073388432,0.12784678314294268,0.01215150501475035,0.11413779243978568,0.18500106689222004,0.05055613967938275,0.07792261397116995,0.04907408046171979
0.2215862,0.0722551592078232,0.12823987087638966,0.012295625911416851,0.11412323459024852,0.18705353157209403,0.05057360666903116,0.07747274019686386,0.04896258654287872
0.2220517,0.07233129805581481,0.12862710112532816,0.012438148064769526,0.11410693957531366,0.1891082961407746,0.05059009229748948,0.0770198992114075,0.04884977856950657
0.2225172,0.07240322286917207,0.1290084161816904,0.012579089175310271,0.11408886047587423,0.19116514726255432,0.050605579460759664,0.07656425214528392,0.04873571030096617
0.2229828,0.07247093352621355,0.12938375884020595,0.01271846835753289,0.11406894992475286,0.1932238703432708,0.05062005083200151,0.07610596235276451,0.048620435832913735
0.2234483,0.07253443079681773,0.1297530724116104,0.012856306126910218,0.11404716012893894,0.19528424954572432,0.05063348887139578,0.07564519538526875,0.04850400958208232
0.2239138,0.07259371634178223,0.1301163007360014,0.012992624386458505,0.11402344289224267,0.19734606780516656,0.050645875836257154,0.07518211896406168,0.04838648627099175
0.2243793,0.07264879271195084,0.130473388196334,0.013127446412882653,0.11399774963835776,0.19940910684486557,0.050657193791390144,0.07471690295229011,0.04826792091258873
0.2248448,0.07269966334711242,0.13082427973204713,0.013260796842305939,0.11397003143432388,0.20147314719175496,0.050667424619680906,0.07424971932635746,0.04814836879482033
0.2253103,0.07274633257467572,0.13116892085281182,0.01339270165558803,0.11394023901437932,0.20353796819217806,0.050676550032917766,0.0737807421466377,0.048027885465143895
0.2257759,0.07278880560812398,0.13150725765239285,0.013523188163235195,0.11390832280419352,0.20560334802774147,0.0506845515828332,0.07331014752752756,0.04790652671497617
0.2262414,0.07282708854525334,0.1318392368226153,0.01365228498990672,0.11387423294546922,0.20766906373129498,0.0506914106723595,0.07283811360683651,0.047784348564084145
0.2267069,0.07286118836619862,0.1321648056674281,0.013780022058521671,0.11383791932090295,0.2097348912030584,0.05069710856709051,0.07236482051451332,0.047661407244919976
0.2271724,0.07289111293124971,0.13248391211705665,0.013906430573970107,0.11379933157949247,0.21180060522691713,0.050701626406941244,0.07189045034070776,0.04753775918690254
0.2276379,0.07291687097846185,0.13279650474223634,0.014031543006433009,0.1137584191621789,0.21386597948691036,0.050704945217997226,0.07141518710316587,0.047413461000648
0.2281034,0.07293847212106294,0.13310253276851863,0.014155393074315258,0.11371513132781116,0.21593078658393586,0.050707045924544954,0.07093921671395656,0.0472885694621518
0.228569,0.07295592684466107,0.13340194609064124,0.01427801572679615,0.11366941717941947,0.21799479805269498,0.05070790936127472,0.07046272694552755,0.04716314149692485
0.2290345,0.07296924650425549,0.13369469528695385,0.014399447126002173,0.11362122569078432,0.22005778437890153,0.05070751628564674,0.0699859073960884,0.047037234164086526
0.2295,0.07297844332105508,0.13398073163389043,0.014519724628806852,0.11357050573328668,0.22211951501677651,0.050705847390411486,0.06950894945431887,0.04691090464041754
0.2299655,0.07298353037910817,0.13426000712047945,0.014638886768262629,0.11351720610302446,0.2241797584068498,0.050702883316274455,0.06903204626340141,0.04678421020437558
0.230431,0.07298452162174877,0.13453247446288275,0.014756973234669865,0.11346127554817934,0.22623828199408968,0.050698604664695626,0.06855539268437676,0.046657208220076817
0.2308966,0.07298143184786411,0.13479808711895275,0.014874024856287988,0.11340266279661715,0.22829485224638094,0.050692992010813384,0.06807918525882244,0.04652995612124609
0.2313621,0.07297427670798913,0.13505679930279738,0.014990083579693884,0.11334131658370422,0.23034923467337268,0.05068602591648244,0.06760362217085383,0.04640251139513857
0.2318276,0.072963072700234,0.13530856599934216,0.015105192449792486,0.11327718568032101,0.23240119384571786,0.05067768694341487,0.06712890320844812,0.046274931566435334
0.2322931,0.07294783716605073,0.1355533429788767,0.01521939558948452,0.11321021892105361,0.2344504934147265,0.050667955666413106,0.06665522972409169,0.04614727418111509
0.2327586,0.07292858828584509,0.13579108681157334,0.015332738178996254,0.11314036523254259,0.23649689613245536,0.05065681268668362,0.06618280459475202,0.04601959679030385
0.2332241,0.07290534507444017,0.13602175488196463,0.015445266434876046,0.11306757366196839,0.2385401638722556,0.05064423864521986,0.06571183218117597,0.04589195693410447
0.2336897,0.07287812737639789,0.13624530540336555,0.015557027588662562,0.11299179340565155,0.24058005764980103,0.05063021423624299,0.0652425182865166,0.04576441212540755
0.2341552,0.07284695586120384,0.13646169743222705,0.01566806986522948,0.11291297383774572,0.2426163376446182,0.05061472022068901,0.0647750701142915,0.04563701983368545
0.2346207,0.0728118520183212,0.13667089088240714,0.015778442460811618,0.11283106453900113,0.2446487632221392,0.050597737439731276,0.06430969622567581,0.045509837468771165
0.2350862,0.07277283815211824,0.13687284653934603,0.01588819552071748,0.11274601532557596,0.24667709295629878,0.05057924682832735,0.06384660649613397,0.045382922364624184
0.2355517,0.07272993737667383,0.13706752607413344,0.015997380116733313,0.11265777627787296,0.2487010846526969,0.05055922942877981,0.06338601207139388,0.045256331763085245
0.2360172,0.07268317361046465,0.13725489205745664,0.016106048224223818,0.11256629776937904,0.25072049537234803,0.05053766640430069,0.06292812532276848,0.04513012279762247
0.2364828,0.07263257157093744,0.13743490797341876,0.016214252698934818,0.11247153049548526,0.25273508145603746,0.05051453905257011,0.06247315980182923,0.04500435247707128
0.2369483,0.0725781567689689,0.13760753823321661,0.01632204725350323,0.11237342550226527,0.25474459854930603,0.05048982881927956,0.06202133019443734,0.04487907766937068
0.2374138,0.07251995550321566,0.13777274818866808,0.016429486433679752,0.11227193421519033,0.25674880162808195,0.05046351731165119,0.06157285227413823,0.044754355085298556
0.2378793,0.07245799485435608,0.1379305041455786,0.016536625594269598,0.11216700846775947,0.2587474450249791,0.050435586311924886,0.06112794285492512,0.044630241262208874
0.2383448,0.07239230267922526,0.13808077337693694,0.016643520874796626,0.11205860053002427,0.2607402824562807,0.05040601779080532,0.06068681974337774,0.04450679254777319
0.2388103,0.07232290760484444,0.1382235241359302,0.016750229174896044,0.11194666313698798,0.26272706704962884,0.050374793920861645,0.0602497016901819,0.04438406508372892
0.2392759,0.07224983902234601,0.13835872566876709,0.016856808129440966,0.11183114951685931,0.2647075513724406,0.05034189708987288,0.05981680834103604,0.04426211478963644
0.2397414,0.07217312708079542,0.13848634822730005,0.01696331608340797,0.111712013419142,0.26668148746107584,0.05030730991411232,0.0593883601869504,0.04414099734664681
0.2402069,0.07209280268091127,0.1386063630814356,0.017069812066486938,0.11158920914254146,0.2686486268507796,0.05027101525156456,0.058964578513944876,0.04402076818128166
0.2406724,0.0720088974686857,0.1387187425313224,0.017176355767440532,0.11146269156267095,0.2706087206064265,0.05023299621506885,0.0585456853521509,0.04390148244922652
0.2411379,0.0719214438289067,0.13882345991930817,0.017283007508218724,0.11133241615953987,0.27256151935409095,0.05019323618538265,0.058131903424322964,0.04378319501913922
0.2416034,0.07183047487858459,0.138920489641656,0.017389828217833834,0.11119833904480708,0.2745067733134685,0.05015171882415925,0.05772345609376546,0.04366596045647454
0.242069,0.07173602446028461,0.13900980716001266,0.017496879406001583,0.11106041698878295,0.2764442323311706,0.050108428086833065,0.057320567311680844,0.04354983300732696
0.2425345,0.07163812713536732,0.1390913890126219,0.017604223136553687,0.11091860744716377,0.27837364591491487,0.050063348235405855,0.056923461563945954,0.04343486658229324
0.243,0.07153681817713813,0.13916521282527616,0.017711922000627715,0.11077286858748288,0.2802947632686295,0.050016463851127145,0.05653236381732377,0.04332111474035708
0.2434655,0.07143213356390711,0.13923125732199948,0.017820039089640208,0.1106231593152627,0.2822073333284903,0.0499677598470614,0.0561474994651185,0.0432086306727984
0.243931,0.07132410997195973,0.13928950233545548,0.01792863796804943,0.11046943929985208,0.2841111047999066,0.04991722148053463,0.0557690942722815,0.04309746718713002
0.2443966,0.07121278476843872,0.13933992881707274,0.01803778264591454,0.11031166899993358,0.2860058261954708,0.04986483436545267,0.05539737431997595,0.04298767669106518
0.2448621,0.0710981960041374,0.13938251884687974,0.018147537551258405,0.11014980968868572,0.2878912458738847,0.0498105844844835,0.0550325659496073,0.042879311176519316
0.2453276,0.07098038240620441,0.13941725564304167,0.018257967502241644,0.10998382347858504,0.28976711207987393,0.04975445820109591,0.054674895706326436,0.04277242220365053
0.2457931,0.07085938337075895,0.1394441235710905,0.01836913767915585,0.10981367334583327,0.29163317298510283,0.049696442271446935,0.05432459028201186,0.04266706088494334
0.2462586,0.07073523895541566,0.13946310815283963,0.018481113596244197,0.10963932315439454,0.29348917673009906,0.049636523856110275,0.053981876457737256,0.04256327786934065
0.2467241,0.07060798987171747,0.1394741960749744,0.018593961073357913,0.10946073767962751,0.29533487146719656,0.049574690531638044,0.05364698104573069,0.042461123326429366
0.2471897,0.07047767747747431,0.13947737519731093,0.018707746207457306,0.10927788263149668,0.2971700054045041,0.0495109303019482,0.053320130830832126,0.04236064693068537
0.2476552,0.07034434376900482,0.13947263456071599,0.018822535343966093,0.10909072467734626,0.2989943268509037,0.04944523160952986,0.05300155251145668,0.04226189784578367
0.2481207,0.0702080313732781,0.13945996439468356,0.01893839504798789,0.10889923146422006,0.3008075842620832,0.04937758334645895,0.05269147264007161,0.04216492470897983
0.2485862,0.07006878353995144,0.1394393561245643,0.01905539207539373,0.10870337164070963,0.30260952628760457,0.04930797486521636,0.05239011756319543,0.042069775615568857
0.2490517,0.06992664413330026,0.13941080237844583,0.019173593343789434,0.10850311487831278,0.30439990181901017,0.049236395989301456,0.05209771336092785,0.041976498103427844
0.2495172,0.06978165762403551,0.13937429699368298,0.019293065903371646,0.10829843189228511,0.3061784600389672,0.04916283702363336,0.05181448578601905,0.04188513913764867
0.2499828,0.06963386908100423,0.13932983502307655,0.019413876907681305,0.10808929446196701,0.3079449504714491,0.049087288764732895,0.051540660202486675,0.04179574509526713
0.2504483,0.0694833241627683,0.13927741274069952,0.01953609358426343,0.10787567545056947,0.3096991230329506,0.04900974251067777,0.05127646152378889,0.041708361750094805
0.2509138,0.06933006910905723,0.1392170276473684,0.019659783205242233,0.10765754882440268,0.31144072808473305,0.04893019007082396,0.051022114150561924,0.04162303425766012
0.2513793,0.06917415073209057,0.13914867847575751,0.019785013057820714,0.10743488967153224,0.31316951648609165,0.04884862377528582,0.05077784190793055,0.04153980714026477
0.2518448,0.06901561640776621,0.13907236519515298,0.019911850414714147,0.10720767421984904,0.3148852396486356,0.048765036484167947,0.050543867982400056,0.0414587242721617
0.2523103,0.0688545140667116,0.1389880890158441,0.020040362504526944,0.10697587985454039,0.31658764959156865,0.048679421596541365,0.050320414858338776,0.04137982886486043
0.2527759,0.06869089218519536,0.13889585239315116,0.020170616482082616,0.10673948513495134,0.3182764989979556,0.048591773059156844,0.0501077042540606,0.04130316345256547
0.2532414,0.06852479977589745,0.13879565903108965,0.0203026793987166,0.10649846981082782,0.3199515412719586,0.04850208537488793,0.049905957057517804,0.041228769877752994
0.2537069,0.06835628637853666,0.13868751388567319,0.020436618172541793,0.10625281483793458,0.32161253059702355,0.04841035361089637,0.04971539326161558,0.04115668927689084
0.2541724,0.06818540205035459,0.1385714231678578,0.020572499558696725,0.10600250239304299,0.3232592219949971,0.04831657340651243,0.04953623189916012,0.04108696206630634
0.2546379,0.06801219735645576,0.13844739434613165,0.02071039011958625,0.10574751588828582,0.32489137138615115,0.04822074098082269,0.04936869097745285,0.041019627928206445
0.2551034,0.06783672336000345,0.13831543614875302,0.02085035619512485,0.1054878399848781,0.32650873565009253,0.048122853139957816,0.049212987412543624,0.04095472579685418
0.255569,0.06765903161227066,0.1381755585656409,0.020992463872992674,0.10522346060620391,0.3281110726875349,0.04802290728407288,0.04906933696315616,0.04089229384490511
0.2560345,0.06747917414254583,0.13802777284992082,0.021136778958914627,0.10495436495027109,0.3296981414829085,0.0479209014140131,0.04893795416429857,0.0408323694699075
0.2565,0.0672972034478918,0.13787209151912938,0.021283366946973126,0.10468054150153594,0.331269702167783,0.04781683413765804,0.04881905226057227,0.04077498928096946
0.2569655,0.067113172482757,0.13770852835608016,0.02143229298996541,0.10440198004210188,0.3328255160850812,0.04771070467593813,0.048712843139192115,0.04072018908559629
0.257431,0.06692713464843661,0.13753709840939388,0.021583621869816598,0.1041186716622953,0.334365345854057,0.04760251286851789,0.04861953726273089,0.0406680038767012
0.2578966,0.06673914378238224,0.13735781799369406,0.02173741796805998,0.10383060877062285,0.33588895543601416,0.047492259179140996,0.04853934360160076,0.040618467819792364
0.2583621,0.066549254147358,0.1371707046894696,0.02189374523639609,0.10353778510311501,0.3373961102007404,0.04737994470063299,0.0484724695662844,0.04057161424033932
0.2588276,0.06635752042044109,0.1369757773426044,0.022052667167342197,0.10324019573205982,0.33888657699362956,0.04726557115955764,0.04841912093932813,0.04052747561132164
0.2592931,0.0661639976818657,0.13677305606357465,0.022214246764983715,0.10293783707413144,0.3403601242034665,0.04714914092052359,0.04837950180710939,0.04048608354096294
0.2597586,0.06596874140370924,0.13656256222631222,0.022378546515838944,0.1026307068979174,0.3418165218308459,0.047030656990137504,0.04835381449139052,0.04044746876065325
0.2602241,0.06577180743842065,0.13634431846673412,0.022545628359848444,0.10231880433084813,0.34325554155719495,0.046910123020600374,0.048342259480671015,0.04041166111306327
0.2606897,0.06557325200719132,0.1361183486809358,0.02271555366150017,0.10200212986553209,0.34467695681436894,0.04678754331294351,0.048345035361350396,0.040378689540454364
0.2611552,0.0653731316881699,0.1358846780230465,0.022888383181101257,0.10168068536549875,0.3460805428547847,0.04666292281990065,0.04836233874871407,0.04034858207318856
0.2616207,0.06517150340452249,0.13564333290274336,0.023064177046207245,0.10135447407035088,0.34746607682205466,0.046536267148412566,0.04839436421775514,0.04032136581844369
0.2620862,0.06496842441234053,0.13539434098242248,0.023242994723219394,0.10102350060032766,0.34883333782208215,0.04640758256176078,0.048441304233845156,0.0402970669491393
0.2625517,0.06476395228839832,0.13513773117402414,0.023424894989160422,0.10068777096027862,0.35018210699457375,0.046276875981326716,0.048503349083266915,0.040275710693079635
0.2630172,0.06455814491776216,0.13487353363551113,0.02360993590363891,0.10034729254304818,0.35151216758492465,0.046144154987973106,0.048580686803622666,0.040257321322320336
0.2634828,0.06435106048125284,0.13460177976699894,0.02379817478101242,0.10000207413227043,0.35282330501642795,0.04600942782304498,0.04867350311413026,0.04024192214276582
0.2639483,0.06414275744276286,0.13432250220653807,0.023989668162759152,0.09965212590457276,0.3541153069627572,0.04587270338898869,0.04878198134582018,0.04022953548400413
0.2644138,0.06393329453642961,0.13403573482554795,0.024184471790067854,0.09929745943118742,0.3553879634206702,0.04573399124958922,0.04890630237164618,0.04022018268938611
0.2648793,0.06372273075366582,0.13374151272390208,0.024382640576655595,0.09893808767896956,0.35664106678287794,0.04559330162982763,0.04904664453652242,0.04021388410635533
0.2653448,0.06351112533004823,0.1334398722246634,0.024584228581822794,0.09857402501082038,0.35787441191102665,0.04545064541536225,0.04920318358730022,0.04021065907703518
0.2658103,0.063298537732066,0.13313085086846915,0.024789288983754876,0.09820528718551426,0.35908779620873515,0.04530603415163857,0.0493760926026979,0.040210525929079095
0.2662759,0.06308502764372985,0.1328144874075641,0.02499787405307971,0.09783189135692817,0.3602810196946316,0.045159480042633385,0.049565541923196975,0.04021350196678991
0.2667414,0.06287065495304331,0.13249082179948066,0.02521003512668987,0.0974538560726731,0.3614538850753324,0.04501099594923942,0.04977169908091829,0.04021960346251421
0.2672069,0.06265547973833702,0.13215989520036583,0.02542582258183865,0.09707120127212682,0.36260619781830383,0.044860595387296795,0.04999472872949167,0.040228845648317475
0.2676724,0.06243956225446717,0.13182174995795365,0.02564528581051861,0.09668394828386828,0.3637377662245463,0.0447082925252776,0.05023479257393275,0.04024124270794602
0.2681379,0.0622229629188789,0.13147642960418177,0.025868473194131242,0.09629211982251412,0.3648484015010432,0.04455410218163012,0.05049204930054098,0.04025680776908136
0.2686034,0.062005742297535506,0.13112397884745158,0.02609543207845634,0.09589573998495918,0.36593791783291807,0.04439803982178917,0.05076665450683282,0.040275552895892915
0.269069,0.06178796109071428,0.13076444356453057,0.02632620874892947,0.095494834246023,0.3670061324552468,0.04424012155485928,0.0510587606315244,0.040297489081894525
0.2695345,0.06156968011866999,0.1303978707920974,0.026560848406235873,0.09508942945350558,0.3680528657244766,0.044080364129977075,0.05136851688457778,0.04032262624311013
0.27,0.0613509603071667,0.130024308717931,0.0267993951422292,0.09467955382265592,0.369077941189406,0.04391878493235953,0.0516960691773248,0.040350973211553676
0.2704655,0.06113186267287875,0.1296438066717468,0.027041891916183364,0.0942652369300575,0.37008118566168746,0.04375540197904489,0.05204156005268234,0.0403825377290281
0.270931,0.06091244830866181,0.12925641511568367,0.02728838053138592,0.09384650970693581,0.37106242928581273,0.04359023391433306,0.05240512861547288,0.04041732644124806
0.2713966,0.06069277836869506,0.12886218563444643,0.02753890161208128,0.09342340443189226,0.3720215056085473,0.043423300004932344,0.05278691046286381,0.04045534489229077
0.2718621,0.06047291405349592,0.12846117092510892,0.02779349458077206,0.09299595472307057,0.3729582516477801,0.04325462013481945,0.053187037614939016,0.04049659751937912
0.2723276,0.060252916594809164,0.1280534247865824,0.02805219763588671,0.09256419552976072,0.3738725079607558,0.04308421479982003,0.05360563844541681,0.04054108764800112
0.2727931,0.06003284724037262,0.12763900210875453,0.028315047729821644,0.09212816312344602,0.37476411871165854,0.042912105101917106,0.054042837612528434,0.04058881748736953
0.2732586,0.059812767238561694,0.1272179588613031,0.02858208054736609,0.09168789508829907,0.37563293173851825,0.04273831274329483,0.05449875599007249,0.040639788126225034
0.2737241,0.059592737822915146,0.12679035208218892,0.02885333048451791,0.0912434303111323,0.37647879861940764,0.04256286002012527,0.0549735105986619,0.040693999528986426
0.2741897,0.05937282019654409,0.12635623986583167,0.029128830627698724,0.09079480897080842,0.3773015747379033,0.04238576981610555,0.055467214537181515,0.04075145053225105
0.2746552,0.059153075516426505,0.12591568135097136,0.029408612733376787,0.09034207252711672,0.3781011193477795,0.042207065595752484,0.05597997691447549,0.040812138841648374
0.2751207,0.05893356487758929,0.12546873670821818,0.02969270720810587,0.08988526370912023,0.3788772956369046,0.042026771397461596,0.056511902781285143,0.040876061029049574
0.2755862,0.05871434929718049,0.125015467127292,0.029981143088988572,0.08942442650297923,0.3796299707903063,0.04184491182633702,0.05706309306245872,0.0409432125301357
0.2760517,0.05849548969843463,0.12455593480395317,0.03027394802457218,0.0889596061392563,0.3803590160523726,0.041661512046798674,0.057633644489455745,0.04101358764232691
0.2765172,0.05827704689453512,0.12409020292662411,0.03057114825618504,0.08849084907970797,0.38106430678815034,0.041476597774972895,0.05822364953316988,0.041087179523075064
0.2769828,0.058059081572378476,0.12361833566270163,0.030872768599721243,0.08801820300356886,0.38174572254370637,0.041290195270872576,0.0588331963370956,0.04116398018852187
0.2774483,0.05784165427624559,0.12314039814455888,0.031178832427881,0.08754171679333365,0.38240314710551165,0.0411023313303727,0.059462368650865044,0.04124398051252469
0.2779138,0.05762482539138577,0.122656456455236,0.03148936165287411,0.08706144052004362,0.3830364685588112,0.04091303327698732,0.060111245764182336,0.041327170226051944
0.2783793,0.057408655127519186,0.12216657761381913,0.03180437670959344,0.08657742542808422,0.38364557934494103,0.04072232895345389,0.06077990244118318,0.041413537916949995
0.2788448,0.05719320350226319,0.1216708295605092,0.03212389653926531,0.08608972391950118,0.38423037631755314,0.04053024671313084,0.061468408855247396,0.041503071030083195
0.2793103,0.05697853032448752,0.12116928114138331,0.032447938573583364,0.085598389537843,0.38479076079770785,0.040336815411214595,0.06217683052429243,0.041595755867848534
0.2797759,0.05676469517760315,0.120662002092854,0.03277651871933235,0.08510347695153771,0.3853266386277935,0.04014206439578181,0.06290522824657557,0.041691577591066245
0.2802414,0.05655175740278916,0.12014906302583284,0.033109651343508,0.084605041936812,0.38583792022423147,0.03994602349866281,0.063653658037033,0.0417905202202473
0.2807069,0.05633977608216198,0.11963053540960585,0.03344734925893891,0.08410314136016075,0.3863245206289236,0.039748723026151817,0.06442217106418388,0.04189256663723873
0.2811724,0.056128810021891636,0.11910649155542945,0.03378962371041634,0.08359783316037457,0.386786359559398,0.0395501937495593,0.0652108135876277,0.04199769858724745
0.2816379,0.055918917735269365,0.11857700459985475,0.03413648436133732,0.08308917633013256,0.3872233614576109,0.039350466895611766,0.06601962689616338,0.042105896681242566
0.2821034,0.05571015742573173,0.11804214848778825,0.03448793928086668,0.08257723089716743,0.3876354555373574,0.03914957413670392,0.06684864724655894,0.04221714039873641
0.282569,0.05550258696984636,0.11750199795529735,0.03484399493162302,0.08206205790500909,0.38802257583024524,0.038947547581008116,0.06769790580300171,0.042331408090943885
0.2830345,0.055296263900264396,0.11695662851216873,0.035204656157893845,0.08154371939331259,0.3883846612301832,0.03874441976244577,0.06856742857725974,0.04244867698431944
0.2835,0.05509124538864456,0.11640611642422893,0.035569926174384627,0.08102227837777588,0.3887216555363353,0.038540223630525505,0.06945723636958635,0.04256892318447087
0.2839655,0.054887588228553656,0.1158505386954358,0.035939806555506805,0.08049779882965274,0.38903350749448906,0.03833499254005252,0.07036734471040089,0.04269212168044886
0.284431,0.054685348818347836,0.11528997304975037,0.03631429722520941,0.07997034565486608,0.3893201708367862,0.03812876024071356,0.07129776380277873,0.042818246349411004
0.2848966,0.05448458314403873,0.1147244979127993,0.03669339644735898,0.07943998467272739,0.3895816043197581,0.03792156086654187,0.07224849846578396,0.042947269961658686
0.2853621,0.05428534676214814,0.11415419239333831,0.037077100816672384,0.07890678259426916,0.38981777176060833,0.03771342892526691,0.07321954807867777,0.04307916418604518
0.2858276,0.05408769478255484,0.11357913626452863,0.03746540525020689,0.07837080700019833,0.39002864207168264,0.037504399287553364,0.07421090652603553,0.043213899595752586
0.2862931,0.05389168185133672,0.1129994099450394,0.03785830297941187,0.07783212631848185,0.3902141892930629,0.03729450717613501,0.07522256214380528,0.04335144567443527
0.2867586,0.053697362133611724,0.11241509447998918,0.038255785542746064,0.07729080980157779,0.39037439262322243,0.03708378815484889,0.07625449766634011,0.043491770822727045
0.2872241,0.05350478929638068,0.11182627152174121,0.03865784277886441,0.07674692750332864,0.39050923644767943,0.03687227811757567,0.07730669017443662,0.043634842365109235
0.2876897,0.05331401649137548,0.11123302331056739,0.039064462820377926,0.0762005502555358,0.3906187103655888,0.03666001327709184,0.07837911104441132,0.04378062655713653
0.2881552,0.05312509633791605,0.11063543265519588,0.039475632088190195,0.07565174964423577,0.3907028092142172,0.03644703015383946,0.07947172589824653,0.0439290885930178
0.2886207,0.05293808090578003,0.11003358291325764,0.0398913352864135,0.07510059798569943,0.39076153309124934,0.03623336556461884,0.08058449455483663,0.044080192613549035
0.2890862,0.05275302169808933,0.10942755797164734,0.04031155539786788,0.0745471683021764,0.3907948873748834,0.03601905661120915,0.08171737098236576,0.044233901714395396
0.2895517,0.052569969634218235,0.10881744222681343,0.04073627368016615,0.07399153429740556,0.3908028827416764,0.03580414066892201,0.08287030325184713,0.04439017795471969
0.2900172,0.05238897503272831,0.10820332056499213,0.041165469662388085,0.07343377033191299,0.3907855351821088,0.03558865537509265,0.08404323349185494,0.04454898236615427
0.2904828,0.05221008759433566,0.10758527834239935,0.041599121142347505,0.07287395139811802,0.3907428660138385,0.035372638617513184,0.08523609784447943,0.0447102749621134
0.2909483,0.05203335638491622,0.10696340136539395,0.042037204184455564,0.07231215309526684,0.39067490189261833,0.035156128522812434,0.086448826422536,0.04487401474744271
0.2914138,0.051858829818554955,0.10633777587062528,0.04247969311818394,0.07174845160421359,0.39058167482084793,0.034939163444786585,0.08768134326805976,0.04504015972840226
0.2918793,0.051686555640644574,0.10570848850517713,0.042926560537131175,0.07118292366206724,0.39046322215373364,0.034721781952684785,0.08893356631211692,0.04520866692297938
0.2923448,0.05151658091103931,0.10507562630672043,0.043377777298695554,0.0706156465367227,0.39031958660302857,0.034504022819453535,0.09020540733596566,0.04537949237152707
0.2928103,0.05134895198726918,0.10443927668368619,0.043833312524357786,0.07004669800129343,0.39015081623832726,0.034285925009943596,0.09149677193359959,0.04555259114772344
0.2932759,0.05118371450782039,0.10379952739547055,0.044293133600576566,0.06947615630846296,0.38995696448589473,0.03406752766908293,0.0928075594757072,0.045727917369847354
0.2937414,0.05102091337548759,0.10315646653268382,0.04475720618030002,0.06890410016477148,0.38973809012501387,0.033848870110019164,0.09413766307508176,0.0459054242123653
0.2942069,0.050860592740804025,0.10251018249745492,0.04522549418509596,0.0683306087048536,0.3894942572818398,0.03362999180223496,0.0954869695535165,0.04608506391782437
0.2946724,0.05070279598555572,0.10186076398380292,0.04569795980790334,0.0677557614656429,0.3892255354207548,0.033410932359639725,0.09685535941021957,0.04626678780904618
0.2951379,0.050547565706385925,0.10120829995808696,0.046174563516407224,0.06717963836055818,0.3889319993332207,0.03319173152864102,0.09824270679178358,0.04645054630161678
0.2956034,0.05039494369849637,0.1005528796395454,0.04665526405703931,0.0666023196536857,0.38861372912412745,0.032972429176198914,0.09964887946374464,0.04663628891666754
0.296069,0.05024497093945154,0.09989459248093523,0.04714001845960587,0.06602388593397134,0.38827081019563975,0.032753065277866554,0.10107373878376487,0.04682396429394211
0.2965345,0.0500976875730921,0.09923352814928163,0.04762878204254465,0.0654444180894361,0.3879033332285487,0.03253367990582028,0.10251713967647294,0.04701352020514428
0.297,0.049953132893563505,0.09856977650674778,0.048121508418812166,0.06486399728142767,0.3875113941611361,0.03231431321688255,0.10397893060999598,0.04720490356756149
0.2974655,0.04981134532946538,0.09790342759163359,0.04861814950240283,0.06428270491892027,0.3870950941655649,0.03209500544054125,0.10545895357421732,0.04739806045795916
0.297931,0.0496723624281279,0.09723457159951167,0.04911865551550077,0.06370062263287497,0.3866545396218151,0.03187579686696927,0.10695704406079382,0.047592936126741245
0.2983966,0.049536220840021176,0.09656329886450801,0.04962297499626552,0.06311783225067137,0.38618984208918933,0.03165672783504814,0.10847303104496689,0.047789475012372976
0.2988621,0.0494029563033049,0.09588969984073432,0.05013105480725209,0.06253441577062219,0.38570111827541526,0.03143783872039978,0.11000673696920092,0.047987620756062624
0.2993276,0.049272603628526784,0.09521386508387805,0.05064284014446615,0.06195045533658135,0.3851884900033787,0.031219169923430285,0.11155797772868305,0.04818731621669943
0.2997931,0.049145196683479137,0.09453588523295628,0.05115827454705448,0.06136603321265615,0.3846520841755208,0.0310007618573897,0.11312656265871673,0.04838850348604554
0.3002586,0.04902076837822398,0.0938558509922385,0.051677299907630876,0.06078123175803386,0.3840920327359346,0.030782654936451798,0.11471229452404152,0.04859112390417998
0.3007241,0.048899350650297296,0.09317385311334324,0.052199856483237106,0.06019613340193259,0.38350847263019416,0.030564889563818393,0.11631496951011061,0.04879511807519275
0.3011897,0.04878097445010324,0.09248998237751237,0.05272588290693873,0.059610820618686125,0.3829015457629492,0.03034750611985286,0.11793437721635733,0.04900042588312706
0.3016552,0.04866566972650904,0.09180432957806665,0.05325531620005532,0.05902537590297186,0.3822713989533174,0.030130544950248105,0.11957030065148085,0.049206986508167766
0.3021207,0.04855346541265132,0.0911169855030454,0.05378809178502492,0.058439881745190464,0.3816181838881036,0.029914046354234555,0.1212225162307816,0.04941473844307427
0.3025862,0.04844438941196467,0.0904280409180318,0.05432414349890233,0.05785442060700532,0.3809420570728757,0.029698050572833836,0.12289079377557624,0.0496236195098564
0.3030517,0.04833846858444365,0.08973758654916535,0.05486340360749135,0.05726907489704976,0.38024317978092975,0.029482597777163812,0.12457489651472166,0.049833566876692256
0.3035172,0.04823572873314917,0.08904571306634176,0.05540580282011081,0.05668392694680926,0.3795217180001762,0.02926772805680047,0.12627458108827722,0.050044517075087204
0.3039828,0.048136194590970495,0.08835251106660047,0.05595127030499414,0.05609905898668559,0.37877784237798207,0.029053481408202027,0.12798959755333295,0.05025640601727367
0.3044483,0.04803988980765418,0.08765807105769857,0.05649973370532215,0.055514553122249594,0.3780117281640051,0.028839897723200295,0.1297196893920313,0.050469169013851255
0.3049138,0.0479468369371112,0.0869624834418702,0.05705111915588835,0.05493049131068899,0.3772235551510564,0.02862701677756423,0.1314645935218089,0.05068274079166658
0.3053793,0.0478570574250134,0.08626583849976927,0.0576053513003958,0.0543469553374572,0.3764135076140321,0.02841487821964033,0.13322404030788423,0.05089705551193226
0.3058448,0.047770571596690466,0.08556822637459327,0.05816235330938404,0.053764026793129124,0.3755817742469518,0.02820352155907459,0.13499775357801702,0.05111204678858405
0.3063103,0.047687398645338726,0.08486973705638531,0.058722046898784505,0.05318178705046944,0.3747285480981504,0.02799298615562048,0.1367854506395641,0.05132764770687542
0.3067759,0.047607556620553014,0.0841704603665111,0.05928435234910254,0.05260031724171894,0.37385402650367,0.027783311208037356,0.13858684229885648,0.051543790842208524
0.3072414,0.04753106241719288,0.08347048594230756,0.059849188525223855,0.052019698236104285,0.37295841101890587,0.02757453574308364,0.14040163288292157,0.05176040827920045
0.3077069,0.04745793176459431,0.08276990322189876,0.06041647289684297,0.05144001061757649,0.37204190734856446,0.027366698604608896,0.14222952026357405,0.051977431630983985
0.3081724,0.04738817921613794,0.08206880142917465,0.06098612155951083,0.05086133466278328,0.3711047252749947,0.027159838442748815,0.14407019588389824,0.052194792058741786
0.3086379,0.04732181813918486,0.08136726955892767,0.06155804925629889,0.05028375031928059,0.3701470785849579,0.02695399370322697,0.1459233447871441,0.05241242029147306
0.3091034,0.04725886070539053,0.0806653963621417,0.062132169400075904,0.04970733718398856,0.3691691849949003,0.02674920261676702,0.14778864564805835,0.05263024664599167
0.309569,0.047199317881407396,0.079963270331427,0.06270839409639382,0.04913217448189721,0.36817126607479383,0.026545503188619035,0.14966577080667168,0.05284820104715475
0.3100345,0.04714319941998608,0.07926097968659417,0.06328663416697845,0.04855834104502718,0.3671535471706071,0.026342933188203438,0.15155438630456222,0.05306621304832051
0.3105,0.047090513851485244,0.07855861236035964,0.06386679917382052,0.047985915291650715,0.366116257325471,0.02614153013887602,0.15345415192361514,0.05328421185203393
0.3109655,0.04704126847579943,0.0778562559841747,0.06444879744386206,0.04741497520577849,0.365059629199601,0.025941331307817218,0.1553647212272975,0.05350212633093893
0.311431,0.04699546935471401,0.07715399787416939,0.06503253609427316,0.04684559831691778,0.3639838989890389,0.025742373696048742,0.15728574160446715,0.05371988504891533
0.3118966,0.04695312130469625,0.07645192501720297,0.06561792105831336,0.04627786168010718,0.3628893063432737,0.025544694028580422,0.15921685431573282,0.05393741628243869
0.3123621,0.04691422789013077,0.07575012405701222,0.06620485711177226,0.04571184185623341,0.36177609428180235,0.0253483287446898,0.1611576945423831,0.05415464804216087
0.3128276,0.04687879141700794,0.07504868128044946,0.0667932478999833,0.04514761489263556,0.36064450910968565,0.025153313988337072,0.1631078914379002,0.054371508094708684
0.3132931,0.04684681292707305,0.07434768260380203,0.06738299596540472,0.04458525630400225,0.35949480033215636,0.02495968559871768,0.16506706818207406,0.05458792398469766
0.3137586,0.04681829219244422,0.07364721355918559,0.06797400277576147,0.044024841053566625,0.35832722056833366,0.024767479100954722,0.16703484203773084,0.05480382305695738
0.3142241,0.04679322771070636,0.07294735928100368,0.06856616875274149,0.04346644353460464,0.3571420254640975,0.024576729696933287,0.1690108244100899,0.055019132478964575
0.3146897,0.046771616700488614,0.07224820449246602,0.06915939330123931,0.04291013755224151,0.3559394736041728,0.024387472256278683,0.17099462090876297,0.0552337792634798
0.3151552,0.046753455097531864,0.07154983349215764,0.06975357483913977,0.04235599630557143,0.35471982642347405,0.024199741307480545,0.1729858314124088,0.05544769029138292
0.3156207,0.0467387375512531,0.0708523301406515,0.07034861082763388,0.04180409237009525,0.3534833481177594,0.024013571029164727,0.17498405013605883,0.05566079233470256
0.3160862,0.04672745742181273,0.07015577784715667,0.07094439780205856,0.041254497680480645,0.35223030555363993,0.023828995241514713,0.176988865701129,0.05587301207983383
0.3165517,0.04671960677769071,0.06946025955619503,0.07154083140325165,0.0407072835136492,0.350960968177993,0.023646047397844396,0.17899986120813366,0.05608427615093895
0.3170172,0.04671517639377699,0.06876585773430033,0.07213780640941322,0.04016252047219432,0.34967560792682517,0.02346476057632386,0.1810166143121173,0.05629451113352456
0.3174828,0.04671415574998158,0.06807265435673449,0.0727352167684635,0.03962027846813371,0.3483744991336314,0.023285167471859887,0.18303869730082006,0.056503643598189296
0.3179483,0.04671653303036898,0.06738073089421769,0.07333295563088742,0.03908062670699994,0.34705791843729356,0.02310730038813264,0.18506567717559072,0.05671160012453548
0.3184138,0.04672229512282151,0.06669016829966971,0.07393091538305507,0.038543633672272065,0.34572614468956275,0.022931191229790242,0.18709711573506083,0.05691830732523763
0.3188793,0.046731427619235474,0.066001046994962,0.07452898768100692,0.03800936711015142,0.3443794588621666,0.02275687149480255,0.18913256966159164,0.0571236918702608
0.3193448,0.04674391481625421,0.06531344685768094,0.07512706348469199,0.03747789401468426,0.34301814395357993,0.022584372266975624,0.1911715906105061,0.05732768051122097
0.3198103,0.046759739716540995,0.06462744720790417,0.07572503309264654,0.03694928061323401,0.3416424848954954,0.02241372420862811,0.19321372530211542,0.05753020010587966
0.3202759,0.046778884030595144,0.06394312679499264,0.07632278617710052,0.03642359235230563,0.3402527684590276,0.022244957553430728,0.19525851561655108,0.05773117764276464
0.3207414,0.04680132817911387,0.06326056378440188,0.07692021181949826,0.03590089388372455,0.3388492831606811,0.02207810209940987,0.1973054986914099,0.05793054026590824
0.3212069,0.04682705129590224,0.06257983574451609,0.07751719854641952,0.03538124905117272,0.337432319168112,0.02191318720211616,0.1993542070222206,0.05812821529969516
0.3216724,0.04685603123133327,0.06190101963350861,0.07811363436588613,0.03486472087708382,0.3360021682057082,0.021750241767958683,0.2014041685657372,0.05832413027381083
0.3221379,0.046888244556359746,0.06122419178623245,0.07870940680403948,0.03435137154989991,0.33455912346001315,0.02158929424770567,0.20345490684606482,0.05851821294828169
0.3226034,0.04692366656707925,0.06054942790114433,0.07930440294217275,0.03384126241169153,0.3331034794850172,0.02143037263015214,0.2055059410636194,0.05871039133859838
