Time,Rectus Femoris right,Rectus Femoris left,Hamstrings right,Hamstrings left,TibilaisÂ Anterior right,TibilaisÂ Anterior left,Gastrocnemius right,Gastrocnemius left
0.0,-0.0010556166646003948,-0.003302952791509917,0.002424134876340694,0.0019285750051283846,-0.00020222356586196437,0.0014838688631545708,0.0056260465424614785,0.00021590859347699835
0.0005192,-0.0010256387509926883,-0.0032007525597716815,0.002495223748351926,0.001990509860017656,-9.303596689321006e-05,0.001559025488095448,0.005739987939774084,0.0002412355774158374
0.0010385,-0.0009956674235013729,-0.003098930515897542,0.002566068321669224,0.0020526961834868664,1.614416039180007e-05,0.001634372127682602,0.00585427037130586,0.000266581852811857
0.0015577,-0.0009657060627539552,-0.002997500650426941,0.0026366578890788155,0.0021151270909316516,0.0001253035594295089,0.0017098998303342724,0.005968880132089275,0.0002919447137353366
0.0020769,-0.0009357580409396812,-0.0028964768385515214,0.0027069818192067222,0.0021777956321374025,0.00023442899437117675,0.0017855995955437358,0.0060838034381570675,0.00031732145962472415
0.0025962,-0.0009058267208435661,-0.0027958728353657315,0.002777029560901917,0.0022406947930944153,0.00034350725431333455,0.001861462376495571,0.006199026431127748,0.000342709396203148
0.0031154,-0.0008759154548892724,-0.002695702271178796,0.0028467906476120908,0.0023038174978417905,0.0004525251575135335,0.00193747908270869,0.006314535182849153,0.0003681058363910792
0.0036346,-0.0008460275841914349,-0.002595978646891805,0.0029162547017494702,0.0023671566103392644,0.0005614695555884756,0.002013640582705029,0.006430315700097802,0.0003935081012144664
0.0041538,-0.000816166437618026,-0.002496715329443613,0.0029854114390441173,0.0024307049363661687,0.0006703273376917506,0.002089937706702824,0.006546353929331778,0.0004189135207076819
0.0046731,-0.0007863353308633384,-0.0023979255473291373,0.003054250672882151,0.002494455225446698,0.0007790854346685413,0.002166361249333399,0.006662635761494938,0.0004443194348106325
0.0051923,-0.0007565375655321541,-0.0022996223861935098,0.0031227623186263144,0.002558400172800691,0.0008877308231848021,0.002242901972380408,0.0067791470368702795,0.00046972319425939716
0.0057115,-0.0007267764282356534,-0.0022018187845053985,0.003190936397916335,0.0026225324213191587,0.0009962505298285386,0.002319550607540491,0.006895873549980386,0.0004951221614697656
0.0062308,-0.0006970551896996028,-0.0021045275293126624,0.0032587630429465613,0.0026868445635637927,0.0011046316351809163,0.0023962978592043196,0.007012801054532922,0.0005205137114130654
0.00675,-0.0006673771038853484,-0.002007761252083327,0.003326232500718397,0.0027513291437897503,0.0012128612778549987,0.002473134407257011,0.0071299152684092,0.0005458952324836879
0.0072692,-0.0006377454071241217,-0.001911532424634709,0.003393335137265119,0.002815978659991006,0.0013209266584999575,0.0025500509098969103,0.007247201878693854,0.000571264127357748
0.0077885,-0.0006081633172651556,-0.0018158533551533597,0.003460061441846704,0.0028807855659675925,0.0014288150437686525,0.00262703800647172,0.007364646546743688,0.0005966178138423349
0.0083077,-0.000578634032838085,-0.0017207361843083625,0.0035264020311123164,0.002945742273414071,0.0015365137702465332,0.0027040863203309654,0.0074822349132937695,0.0006219537257148314
0.0088269,-0.0005491607322300908,-0.0016261928814603674,0.0035923476532281153,0.0030108411540285757,0.001644010248339909,0.0027811864616937862,0.007599952603598835,0.0006472693135517852
0.0093462,-0.0005197465728782149,-0.0015322352409686043,0.003657889191968046,0.0030760745416417846,0.0017512919661217157,0.00285832903053104,0.007717785232608107,0.0006725620455468326
0.0098654,-0.0004903946904772466,-0.0014388748785979625,0.0037230176707652965,0.003141434734365159,0.0018583464931329857,0.0029355046194607386,0.007835718410171548,0.0006978294083171774
0.0103846,-0.00046110819820354885,-0.0013461232280280598,0.0037877242567221103,0.003206913996757818,0.001965161484138294,0.0030127038166558235,0.007953737746275589,0.0007230689076981422
0.0109038,-0.0004318901859551665,-0.0012539915374660364,0.003852000264575666,0.003272504562011393,0.002071724682833492,0.0030899172087633276,0.008071828856306319,0.0007482780695253059
0.0114231,-0.0004027437196085422,-0.0011624908663646321,0.0039158371606177345,0.003338198634152238,0.0021780239255040973,0.0031671353838339635,0.008189977366338103,0.0007734544404037463
0.0119423,-0.00037367184029215683,-0.0010716320822469,0.003979226566565841,0.003403988390260357,0.002284047144632756,0.0032443489342612077,0.008308168918445583,0.0007985955884639056
0.0124615,-0.00034467756367740303,-0.0009814258576386935,0.004042160263383661,0.003469865982704442,0.0023897823724542315,0.0033215484597289495,0.008426389176036957,0.0008236991041036042
0.0129808,-0.0003157638792869917,-0.000891882667109855,0.004104630195048385,0.0035358235413923823,0.002495217744456409,0.003398724570166784,0.008544623829206427,0.0008487626007157403
0.0135,-0.00028693374982118546,-0.0008030127844248292,0.004166628472262775,0.0036018531760366227,0.002600341502825813,0.0034758678887120255,0.00866285860010362,0.0008737837154012385
0.0140192,-0.0002581901105021393,-0.0007148262798032635,0.004228147376109616,0.003667946978433719,0.002705141999836162,0.0035529690546775065,0.008781079248317726,0.0008987601096668324
0.0145385,-0.00022953586843661047,-0.0006273330172909985,0.0042891793616462795,0.003734097024757424,0.002809607701178503,0.0036300187265242145,0.008899271576274046,0.0009236894701072912
0.0150577,-0.00020097390199727634,-0.0005405426522417585,0.00434971706143706,0.003800295377864622,0.002913727189231496,0.003707007584837805,0.00901742143464055,0.0009485695090717277
0.0155769,-0.00017250706022287093,-0.0004544646289097643,0.004409753289020953,0.0038665340896134174,0.003017489166270465,0.0037839263353079975,0.009135514727742055,0.0009733979653136423
0.0160962,-0.00014413816223732962,-0.0003691081781534348,0.004469281042312536,0.003932805203192664,0.0031208824576138224,0.003860765711709859,0.009253537418979474,0.0009981726046243758
0.0166154,-0.00011586999668811106,-0.00028448231525027724,0.004528293506933589,0.003999100755462227,0.0032238960147055054,0.00393751647888593,0.009371475536251688,0.0010228912204496548
0.0171346,-8.770532120385255e-05,-0.0002005958378229909,0.004586784059473095,0.004065412779303263,0.003326518918132073,0.0040141694357281495,0.009489315177377432,0.0010475516344889137
0.0176538,-5.96468618715026e-05,-0.00011745732387672765,0.004644746270673275,0.004131733305977812,0.003428740380573089,0.004090715418158497,0.00960704251551457,0.0010721516972770806
0.0181731,-3.169731273306258e-05,-3.5075129947366593e-05,0.004702173908539281,0.004198054367496947,0.003530549749683484,0.004167145302107264,0.00972464380457411,0.0010966892887485054
0.0186923,-3.859335302056162e-06,4.654261063941298e-05,0.004759060941370163,0.004264367998996784,0.003631936510906594,0.004243450006487846,0.009842105384626161,0.0011211623187827148
0.0192115,2.386444190017287e-05,0.00012738798939854144,0.004815401540708741,0.004330666241121572,0.0037328902902166246,0.004319620496166954,0.009959413687295011,0.0011455687277316644
0.0197308,5.1471423788254715e-05,0.00020745332420579082,0.004871190084207948,0.004396941142413094,0.003833400856789372,0.004395647784929122,0.010076555241140402,0.0011699064869281654
0.02025,7.895904913662181e-05,0.00028673116070821906,0.004926421158411234,0.004463184761705648,0.003933458125600082,0.004471522938434378,0.010193516677022025,0.0011941735991751502
0.0207692,0.00010632479098333194,0.00036521427362526106,0.004981089561444629,0.004529389170525796,0.004033052159947444,0.0045472370771679265,0.010310284733444185,0.0012183680992154439
0.0212885,0.00013356615701385987,0.0004428956679409403,0.005035190305618041,0.004595546455496133,0.004132173173902799,0.00462278137938066,0.010426846261877617,0.0012424880541816918
0.0218077,0.00016068068992484229,0.0005197685799877112,0.005088718619933418,0.004661648720742288,0.0042308115346837635,0.004698147084019316,0.010543188232055413,0.001266531564026103
0.0223269,0.00018766596776777035,0.000595826478422487,0.00514166995249739,0.0047276880903024295,0.004328957764951502,0.004773325493645046,0.010659297737240139,0.0012904967619296456
0.0228462,0.00021451960427263555,0.0006710630650954652,0.005194039972836017,0.004793656710538555,0.004426602545030928,0.004848307977339148,0.01077516199945928,0.0013143818146903454
0.0233654,0.0002412392491515484,0.0007454722758124276,0.005245824574109256,0.004859546752548882,0.004523736715053137,0.004923085973594712,0.01089076837470623,0.0013381849230903152
0.0238846,0.0002678225883823621,0.0008190482809912721,0.005297019875222751,0.004925350414580676,0.004620351277019333,0.0049976509931928615,0.011006104358104044,0.0013619043222411465
0.0244038,0.0002942673444723474,0.0008917854862136073,0.005347622222834492,0.004991059924442918,0.004716437396785561,0.005071994622062275,0.011121157589029181,0.0013855382819072798
0.0249231,0.0003205712767019755,0.0009636785326723135,0.005397628193253934,0.005056667541918202,0.004811986405967554,0.005146108524120629,0.011235915856192479,0.0014090851068069659
0.0254423,0.00034673218134887346,0.0010347222975160423,0.0054470345942311486,0.005122165561173283,0.004906989803765018,0.005219984444096605,0.011350367102674508,0.0014325431368904383
0.0259615,0.0003727478918920246,0.0011049118940917087,0.0054958384666336435,0.005187546313167661,0.005001439258704774,0.005293614210331057,0.011464499430912555,0.0014559107475949323
0.0264808,0.0003986162791962886,0.001174242672086117,0.005544037086008498,0.005252802168059602,0.0050953266103021784,0.005366989737555948,0.011578301107636505,0.0014791863500761989
0.027,0.0004243352516773253,0.0012427102175679588,0.005591627964027476,0.005317925537608946,0.0051886438706403954,0.005440103029649698,0.011691760568750932,0.001502368391416197
0.0275192,0.0004499027554470077,0.0013103103529315176,0.005638608849812835,0.005382908877576034,0.0052813832258671615,0.0055129461823675546,0.011804866424160865,0.0015254553548066734
0.0280385,0.00047531677443941693,0.0013770391367434914,0.005684977731141564,0.005447744690115999,0.005373537037608809,0.0055855113860456525,0.011917607462538699,0.0015484457597083534
0.0285577,0.0005005753305175167,0.0014428928634944037,0.005730732835525841,0.005512425526167695,0.005465097844301379,0.005657790928277415,0.012029972656029897,0.0015713381619854958
0.0290769,0.0005256764835606128,0.0015078680632561086,0.005775872631167601,0.005576943987836459,0.005556058362438767,0.005729777196560919,0.01214195116489512,0.0015941311540155633
0.0295962,0.0005506183315327121,0.0015719615012469098,0.005820395827785162,0.005641292730769872,0.005646411487737905,0.005801462680915867,0.012253532342086466,0.001616823364773797
0.0301154,0.0005753990105319141,0.0016351701773058207,0.005864301377309961,0.005705464466525663,0.005736150296220984,0.0058728399764687985,0.012364705737755511,0.0016394134598924973
0.0306346,0.0006000166948209752,0.0016974913252774911,0.005907588474451573,0.005769451964930868,0.005825268045214724,0.005943901786005108,0.01247546110369083,0.0016619001416948581
0.0311538,0.0006244695968392078,0.0017589224123093306,0.00595025655712934,0.005833248056431261,0.00591375817426671,0.0060146409224864535,0.012585788397682679,0.0016842821492032223
0.0316731,0.0006487559671958916,0.0018194611380623429,0.0059923053067691065,0.005896845634430085,0.006001614305978759,0.006085050311532069,0.012695677787812543,0.0017065582581216637
0.0321923,0.0006728740946453978,0.0018791054338372136,0.006033734648463841,0.0059602376576150425,0.006088830246757302,0.006155122993862469,0.012805119656665184,0.0017287272807928282
0.0327115,0.0006968223060442564,0.001937853461617189,0.006074544750997117,0.006023417152272427,0.006175399987480746,0.006224852127703978,0.012914104605460863,0.0017507880661290097
0.0332308,0.0007205989662904201,0.0019957036130293206,0.006114736026728603,0.006086377214587314,0.006261317704083833,0.006294230991152504,0.013022623458105313,0.00177273949951748
0.03375,0.0007442024782450061,0.0020526545082256856,0.0061543091313408125,0.006149111012928563,0.006346577758059082,0.006363252984494873,0.01313066726515504,0.0017945805027001509
0.0342692,0.0007676312826368134,0.0021087049946862295,0.006193264963446462,0.006211611790117424,0.006431174696875546,0.0064319116324860525,0.01323822730769547,0.001816310033627709
0.0347885,0.0007908838579499238,0.0021638541459448953,0.0062316046640557505,0.006273872865678428,0.006515103254315227,0.00650020058658053,0.013345295101129421,0.0018379270862884194
0.0353077,0.0008139587202946984,0.0022181012602407227,0.006269329615902946,0.006335887638071248,0.006598358350727633,0.006568113627116043,0.013451862398873365,0.0018594306905118513
0.0358269,0.0008368544232624848,0.002271445859095593,0.0063064414426316565,0.006397649586902135,0.006680935093203137,0.0066356446654478336,0.013557921195958887,0.001880819911747818
0.0363462,0.0008595695577643515,0.0023238876858203035,0.00634294200783829,0.006459152275113524,0.00676282877566581,0.006702787746031591,0.01366346373253683,0.0019020938508208635
0.0368654,0.000882102751854181,0.0023754267039506416,0.006378833413973265,0.006520389351150405,0.006844034878886458,0.006769537048453182,0.013768482497281576,0.0019232516436606616
0.0373846,0.0009044526705364649,0.002426063095615125,0.006414118001099676,0.006581354551102013,0.006924549070416586,0.006835886889403304,0.013872970230693022,0.0019442924610087202
0.0379038,0.0009266180155591617,0.002475797259836063,0.0064487983455092275,0.006642041700817465,0.007004367204443986,0.0069018317245951285,0.013976919928293844,0.0019652155081017913
0.0384231,0.0009485975251919834,0.0025246298107655853,0.006482877258195397,0.006702444717993937,0.00708348532157067,0.006967366150623069,0.014080324843719665,0.0019860200243323987
0.0389423,0.0009703899739904923,0.00257256157585829,0.006516357783183881,0.0067625576142359796,0.007161899648513891,0.007032484906760783,0.01418317849169988,0.002006705282886888
0.0394615,0.0009919941725463858,0.0026195935939821342,0.006549243195720545,0.006822374497084601,0.00723960659773103,0.007097182876696644,0.01428547465092675,0.0020272705903614154
0.0399808,0.001013408967224346,0.002665727113469194,0.006581537000317226,0.006881889572014731,0.007316602766969251,0.007161455090204887,0.014387207366810508,0.002047715286356301
0.0405,0.0010346332398858437,0.0027109635901079064,0.0066132429286558745,0.006941097144399683,0.007392884938740944,0.007225296724750773,0.014488370954118118,0.002068038743049184
0.0410192,0.0010556659076002757,0.002755304685078402,0.00664436493735173,0.006999991621441273,0.007468450079726056,0.007288703107028109,0.01458895999949339,0.002088240364747431
0.0415385,0.0010765059223438226,0.002798752262832534,0.006674907205576342,0.0070585675140642954,0.007543295340102549,0.007351669714427475,0.014688969363856197,0.002108319587420236
0.0420577,0.0010971522706864204,0.0028413083889202153,0.006704874132541395,0.007116819438774057,0.007617418052806238,0.007414192176433535,0.014788394184678637,0.002128275878210867
0.0425769,0.0011176039734672387,0.0028829753277636694,0.006734270334844387,0.007174742119475714,0.007690815732721291,0.0074762662759497635,0.014887229878136007,0.002148108734929494
0.0430962,0.0011378600854590672,0.0029237555403811813,0.0067631006436773234,0.007232330389254144,0.00776348607580267,0.007537887950548943,0.014985472141130645,0.0021678176855270443
0.0436154,0.001157919695022011,0.0029636516820619563,0.006791370101899677,0.007289579192113092,0.007835426958131764,0.007599053293647746,0.015083116953186756,0.002187402287550512
0.0441346,0.0011777819237468881,0.003002666599993677,0.006819083960977144,0.0073464835846722846,0.007906636434906425,0.007659758555603777,0.015180160578214532,0.0022068621275801587
0.0446538,0.0011974459260887282,0.0030408033308443614,0.006846247677788062,0.007403038737821197,0.007977112739366602,0.007720000144733527,0.015276599566141934,0.002226196820649048
0.0451731,0.0012169108889907578,0.0030780650983001146,0.006872866911299789,0.007459239938328088,0.008046854281656747,0.007779774628249784,0.015372430754412535,0.0022454060096453645
0.0456923,0.0012361760314992677,0.003114455310560364,0.006898947519117753,0.007515082590402916,0.008115859647626086,0.007839078733117278,0.015467651269347854,0.002264489364698017
0.0462115,0.0012552406043697486,0.0031499775577921523,0.0069244955539101115,0.007570562217212688,0.008184127597567883,0.00789790934682549,0.01556225852737263,0.0022834465825460623
0.0467308,0.0012741038896646884,0.003184635609545047,0.006949517259711135,0.007625674462347802,0.008251657064898816,0.007956263518077877,0.015656250236101555,0.0023022773858925373
0.04725,0.0012927652003434163,0.003218433412128197,0.006974019068106437,0.0076804150912379195,0.008318447154779559,0.00801413845739692,0.015749624395286047,0.0023209815227433514
0.0477692,0.0013112238798443678,0.0032513750859510604,0.0069980075943031385,0.007734779992515932,0.008384497142677666,0.008071531537644663,0.01584237929761988,0.0023395587657319135
0.0482885,0.0013294793016601465,0.0032834649228293063,0.007021489633088073,0.007788765179328571,0.00844980647287382,0.008128440294458522,0.01593451352940263,0.0023580089114302255
0.0488077,0.0013475308689057455,0.0033147073832573925,0.007044472154677073,0.007842366790592196,0.008514374756912522,0.008184862426602185,0.016026025971059996,0.0023763317796471786
0.0493269,0.001365378013880281,0.003345107093649305,0.007066962300458423,0.007895581092192341,0.008578201771998277,0.008240795796231517,0.01611691579752012,0.0023945272127147963
0.0498462,0.0013830201976225897,0.0033746688435489316,0.007088967378633553,0.007948404478125552,0.008641287459338372,0.00829623842907544,0.016207182478445006,0.0024125950747631744
0.0503654,0.0014004569094610308,0.0034033975828115267,0.0071104948597581,0.008000833471582097,0.008703631922433305,0.008351188514531843,0.016296825778316218,0.0024305352509848463
0.0508846,0.0014176876665578297,0.0034312984187576958,0.00713155237218655,0.008052864725968101,0.008765235425315963,0.008405644405678795,0.016385845756373824,0.002448347646889298
0.0514038,0.0014347120134483003,0.003458376613301326,0.007152147697423705,0.008104495025865686,0.008826098390740684,0.00845960461920148,0.016474242766407642,0.0024660321875483488
0.0519231,0.001451529521575276,0.0034846375800528474,0.007172288765386347,0.008155721287929673,0.008886221398323365,0.008513067835235538,0.016562017456399646,0.002483588816833123
0.0524423,0.0014681397888190824,0.0035100868813991892,0.007191983649578568,0.008206540561719402,0.008945605182633843,0.008566032897127597,0.016649170768016308,0.002501017496643312
0.0529615,0.001484542439023378,0.0035347302255617674,0.007211240562184349,0.008256950030464196,0.00900425063124179,0.008618498811114017,0.016735703935949534,0.0025183182061294463
0.0534808,0.0015007371215171941,0.0035585734636338325,0.007230067849081042,0.00830694701176095,0.009062158782717367,0.008670464745918816,0.016821618487104627,0.0025354909409088773
0.054,0.001516723510633498,0.003581622586598479,0.00724847398477746,0.00835652895820231,0.009119330824587803,0.008721930032271912,0.016906916239633744,0.0025525357122761607
0.0545192,0.0015325013052246038,0.0036038837223286114,0.007266467567280381,0.008405693457933799,0.009175768091251063,0.00877289416234888,0.016991599301813036,0.0025694525464085172
0.0550385,0.0015480702281747522,0.0036253631325701458,0.007284057312893239,0.00845443823513825,0.009231472061847715,0.00882335678913351,0.01707567007076165,0.002586241483567038
0.0555577,0.0015634300259101711,0.003646067209909717,0.007301252050950825,0.00850276115044574,0.009286444358092054,0.008873317725704573,0.017159131231000643,0.002602902577294285
0.0560769,0.0015785804679069194,0.003666002474728137,0.007318060718493792,0.008550660201267242,0.009340686742063557,0.008922776944448369,0.0172419857528498,0.0026194358936089267
0.0565962,0.0015935213461968163,0.003685175572140844,0.007334492354886737,0.00859813352205014,0.00939420111395981,0.008971734576198598,0.017324236890660302,0.002635841510198025
0.0571154,0.0016082524748717536,0.003703593268926573,0.0073505560963835846,0.008645179384453652,0.009446989509812044,0.009020190909305267,0.01740588818088108,0.0026521195156075927
0.0576346,0.0016227736895866938,0.0037212624504454777,0.007366261170643926,0.008691796197442316,0.009499054099164586,0.009068146388634304,0.017486943439956732,0.0026682700084320154
0.0581538,0.001637084847061661,0.0037381901175479464,0.007381616891203943,0.008737982507295678,0.00955039718271958,0.009115601614499591,0.017567406762054913,0.0026842930965029358
0.0586731,0.001651185824583035,0.00375438338347535,0.007396632651905488,0.008783736997532448,0.009601021189948503,0.009162557341529147,0.017647282516621197,0.0027001888960781657
0.0591923,0.0016650765195044643,0.003769849470753968,0.0074113179212868235,0.008829058488747517,0.009650928676672013,0.009209014477467144,0.017726575345759738,0.002715957531031205
0.0597115,0.001678756848747714,0.003784595708083321,0.007425682236938483,0.008873945938360427,0.0097001223226097,0.00925497408191347,0.01780529016143836,0.0027315991320419103
0.0602308,0.0016922267483037625,0.0037986295272201378,0.007439735199827708,0.008918398440273947,0.009748604928901337,0.009300437365002533,0.01788343214251707,0.002747113835788852
0.06075,0.0017054861727344658,0.0038119584598591658,0.007453486468594845,0.008962415224441632,0.009796379415601169,0.009345405686022983,0.017961006731599328,0.0027625017841438858
0.0612692,0.0017185350946751071,0.003824590134512021,0.007466945753825111,0.009005995656343331,0.00984344881914667,0.009389880551980073,0.01803801963170578,0.002777763123369456
0.0617885,0.0017313735043381405,0.003836532273385238,0.0074801228122991165,0.009049139236367767,0.00988981628980324,0.009433863616102354,0.018114476802770358,0.002792898003319135
0.0623077,0.0017440014090184303,0.0038477926892586745,0.007493027441225563,0.009091845599101409,0.009935485089086156,0.009477356676294405,0.01819038445795876,0.00280790657664187
0.0628269,0.0017564188326002889,0.0038583792823653654,0.00750566947245952,0.009134114512523018,0.009980458587161149,0.009520361673537297,0.018265749059809475,0.00282278899799041
0.0633462,0.0017686258150666026,0.00386830003727393,0.007518058766709725,0.00917594587710327,0.010024740260224894,0.009562880690238447,0.01834057731619761,0.0028375454232343745
0.0638654,0.001780622412010333,0.0038775630197745796,0.007530205207738408,0.009217339724808985,0.010068333687866762,0.00960491594853251,0.018414876176121957,0.0028521760086784014
0.0643846,0.001792408694148675,0.0038861763737697646,0.007542118696557105,0.00925829621801152,0.010111242550413133,0.009646469808534883,0.018488652825315838,0.0028666809102858414
0.0649038,0.0018039847468401438,0.0038941483181704636,0.007553809145621999,0.009298815648299019,0.010153470626255642,0.00968754476654939,0.018561914681682414,0.0028810602829084818
0.0654231,0.0018153506696048497,0.0039014871437990954,0.0075652864730323,0.009338898435192505,0.010195021789164652,0.009728143453231614,0.01863466939055536,0.0028953142795227816
0.0659423,0.001826506575648219,0.003908201210299999,0.007576560596735193,0.009378545124766139,0.010235900005589304,0.009768268631709353,0.018706924819786103,0.0029094430504731134
0.0664615,0.001837452591388391,0.003914298943058411,0.0075876414287408146,0.009417756388172525,0.010276109331945407,0.009807923195661645,0.018778689054659202,0.002923446742722495
0.0669808,0.0018481888559875317,0.003919788830128834,0.007598538869350715,0.009456533020074471,0.010315653911892446,0.009847110167357754,0.01884997039263763,0.0029373254991112915
0.0675,0.0018587155208872898,0.00392467941917367,0.007609262801403191,0.009494875936985153,0.010354537973600978,0.009885832695657595,0.0189207773379402,0.002951079457624355
0.0680192,0.0018690327493486425,0.003928979314412977,0.007619823084538854,0.009532786175519049,0.010392765827011631,0.009924094053975053,0.018991118595953337,0.002964708750667081
0.0685385,0.0018791407159963786,0.003932697173586198,0.007630229549489725,0.009570264890556414,0.010430341861086942,0.009961897638205697,0.01906100306747971,0.002978213504350836
0.0690577,0.0018890396063684911,0.003935841704926671,0.0076404919923951115,0.009607313353324234,0.010467270541057196,0.009999246964620382,0.019130439842826207,0.002991593837788225
0.0695769,0.001898729616470755,0.003938421664149732,0.007650620169147479,0.009643932949396767,0.01050355640566136,0.010036145667726216,0.01919943819573388,0.0030048498623986624
0.0700962,0.001908210952336774,0.003940445851455175,0.007660623789771477,0.009680125176618842,0.010539204064384276,0.01007259749809637,0.01926800757715255,0.0030179816812247
0.0706154,0.0019174838295937793,0.003941923108544816,0.0076705125128392285,0.009715891642955075,0.010574218194691235,0.010108606320170131,0.019336157608863085,0.003030989388259579
0.0711346,0.001926548473034457,0.003942862315655865,0.0076802959399249774,0.009751234064268118,0.010608603539261071,0.010144176110024666,0.019403898076950456,0.0030438730677864673
0.0716538,0.0019354051161950812,0.003943272388610802,0.007689983610102103,0.009786154262029056,0.010642364903218992,0.010179310953119892,0.01947123892513126,0.003056632793729813
0.0721731,0.0019440540009402262,0.003943162275884399,0.0076995849944855276,0.009820654160963026,0.010675507151370356,0.010214015042017788,0.01953819024793967,0.0030692686290192577
0.0726923,0.001952495377054318,0.003942540955688524,0.0077091094908224985,0.009854735786633114,0.010708035205436584,0.010248292674077501,0.019604762283776375,0.003081780624966502
0.0732115,0.0019607295018402825,0.0039414174330753195,0.0077185664181346715,0.009888401262965602,0.010739954041294384,0.010282148249127552,0.019670965407825446,0.00309416882065554
0.0737308,0.0019687566397255363,0.003939800737059333,0.007727965011414439,0.009921652809719548,0.010771268686219452,0.010315586267116423,0.01973681012484435,0.0031064332423466597
0.07425,0.0019765770618755648,0.0039376999177592005,0.007737314416378395,0.009954492739903708,0.010801984216135738,0.010348611325742827,0.01980230706183265,0.003118573902894596
0.0747692,0.0019841910458153196,0.003935124043559445,0.0077466236842808,0.009986923457143726,0.010832105752871392,0.010381228118066976,0.01986746696058495,0.0031305908011812155
0.0752885,0.001991598875058664,0.003932082198292999,0.0077559017667898425,0.010018947453002502,0.010861638461422324,0.0104134414301041,0.019932300670134035,0.0031424839215631003
0.0758077,0.001998800838746084,0.003928583478445067,0.007765157510929483,0.010050567304256667,0.010890587547224377,0.010445256138401535,0.019996819139090165,0.0031542532333343784
0.0763269,0.0020057972312909093,0.003924636990378943,0.007774399654089566,0.010081785670132015,0.010918958253434976,0.010476677207600536,0.020061033407882744,0.003165898690205135
0.0768462,0.0020125883520342707,0.003920251847584446,0.007783636819106867,0.01011260528950083,0.010946755858225158,0.010507709687983993,0.020124954600910787,0.0031774202297957187
0.0773654,0.00201917450490905,0.003915437167949564,0.0077928775094196785,0.010143028978043984,0.010973985672082921,0.010538358713011148,0.020188593918608753,0.003188817773147258
0.0778846,0.0020255559981130675,0.00391020207105596,0.007802130104298461,0.010173059625380811,0.011000653035128734,0.0105686294968403,0.02025196262943435,0.003200091224248701
0.0784038,0.0020317331437917636,0.0039045556754989403,0.007811402854155076,0.010202700192169682,0.011026763314444207,0.010598527331840447,0.02031507206178484,0.0032112404695806823
0.0789231,0.0020377062577306374,0.0038985070962325222,0.007820703875933003,0.010231953707182242,0.011052321901414702,0.010628057586092735,0.020377933595848385,0.0032222653776765244
0.0794423,0.002043475659057692,0.003892065441940271,0.007830041148580954,0.010260823264354261,0.011077334209086733,0.010657225700882423,0.020440558655396825,0.0032331657987006764
0.0799615,0.0020490416699561645,0.0038852398124325674,0.007839422508612196,0.010289312019816007,0.0111018056695409,0.010686037188182078,0.020502958699526203,0.003243941564044879
0.0804808,0.0020544046153878207,0.003878039296071004,0.007848855645751857,0.010317423188905037,0.011125741731281048,0.010714497628126549,0.02056514521435125,0.00325459248594236
0.081,0.002059564822827084,0.003870472967220586,0.007858348098674433,0.010345160043164242,0.011149147856640423,0.010742612666480206,0.020627129704660012,0.0032651183571003675
0.0815192,0.0020645226220062764,0.00386254988373039,0.00786790725083368,0.010372525907327951,0.011172029519205581,0.010770388012096862,0.020688923685534676,0.003275518950351364
0.0820385,0.002069278344672231,0.0038542790844433164,0.007877540326386975,0.010399524156298877,0.011194392201258882,0.010797829434372627,0.020750538673944566,0.0032857940183232044
0.0825577,0.0020738323243545556,0.003845669586735568,0.007887254386216165,0.010426158212118617,0.011216241391240514,0.010824942760691954,0.02081198618031728,0.003295943293128624
0.0830769,0.002078184896145789,0.0038367303840864653,0.007897056324046935,0.010452431540934361,0.011237582581230966,0.010851733873867005,0.02087327770009371,0.003305966486074335
0.0835962,0.002082336396493716,0.0038274704436792157,0.007906952862668572,0.010478347649964382,0.011258421264454919,0.010878208709570363,0.02093442470527283,0.0033158632873900216
0.0841154,0.0020862871630060805,0.003817898704033252,0.007916950550256,0.010503910084464826,0.011278762932807595,0.010904373253761136,0.020995438635951994,0.003325633365977533
0.0846346,0.002090037534267946,0.003808024072668766,0.007927055756795878,0.010529122424700256,0.011298613074404572,0.010930233540104388,0.021056330891868678,0.003335276369180513
0.0851538,0.002093587849671958,0.0037978554238040307,0.007937274670618517,0.010553988282920323,0.011317977171156254,0.010955795647383897,0.02111711282394947,0.0033447919225747403
0.0856731,0.002096938449261758,0.0037874015960861094,0.007947613295037256,0.010578511300344859,0.01133686069636815,0.010981065696908219,0.02117779572587235,0.0033541796297794097
0.0861923,0.0021000896735887888,0.00377667139035552,0.007958077445096984,0.010602695144159685,0.011355269112368194,0.011006049849910172,0.0212383908256482,0.0033634390722895708
0.0867115,0.002103041863582718,0.003765673567445394,0.007968672744433369,0.010626543504525368,0.011373207868162252,0.011030754304939874,0.021298909277227794,0.003372569809329939
0.0872308,0.002105795360435701,0.0037544168460156534,0.007979404622244316,0.010650060091601122,0.011390682397118913,0.011055185295251504,0.021359362152140446,0.0033815713777302745
0.08775,0.002108350505500686,0.0037429099004227116,0.007990278310375165,0.010673248632585994,0.011407698114684636,0.011079349086184017,0.02141976043117043,0.00339044329182252
0.0882692,0.0021107076402039526,0.003731161358625153,0.008001298840519016,0.010696112868779438,0.011424260416130158,0.011103251972536053,0.021480114996077448,0.0033991850433598768
0.0887885,0.002112867105972074,0.0037191798001258505,0.008012471041533568,0.010718656552663347,0.011440374674329094,0.01112690027593536,0.021540436621367114,0.003407796101457986
0.0893077,0.0021148292441734895,0.00370697375395094,0.008023799536875743,0.010740883445007494,0.011456046237569538,0.011150300342203066,0.021600735966117418,0.003416275912558362
0.0898269,0.0021165943960748477,0.003694551696666056,0.00803528874215534,0.010762797312000314,0.011471280427399536,0.011173458538713281,0.021661023565866983,0.0034246239004142322
0.0903462,0.00211816290281228,0.0036819220504302076,0.008046942862808881,0.010784401922406877,0.011486082536507241,0.011196381251748433,0.021721309824570774,0.0034328394660989364
0.0908654,0.0021195351053777474,0.003669093181087686,0.008058765891894753,0.01080570104475586,0.011500457826636603,0.011219074883850837,0.02178160500662877,0.0034409219880370393
0.0913846,0.002120711344620583,0.003656073396298354,0.00807076160801069,0.010826698444557194,0.011514411526539441,0.011241545851171026,0.021841919228993263,0.003448870822058305
0.0919038,0.0021216919612643604,0.0036428709437066964,0.008082933573334559,0.010847397881552055,0.011527948829964689,0.011263800580813475,0.021902262453360157,0.0034566853014746713
0.0924231,0.002122477295939192,0.003629494009149994,0.008095285131789403,0.010867803106996794,0.011541074893685633,0.01128584550818056,0.021962644478449807,0.0034643647371803555
0.0929423,0.0021230676892295573,0.0036159507149059727,0.008107819407333539,0.010887917860982293,0.011553794835565906,0.011307687074315743,0.02202307493238288,0.0034719084177752047
0.0934615,0.0021234634817377447,0.003602249117980273,0.008120539302376563,0.010907745869790196,0.011566113732665051,0.011329331723247127,0.022083563265156446,0.0034793156097113914
0.0939808,0.002123665014162989,0.0035883972084340865,0.00813344749632196,0.010927290843287349,0.011578036619384493,0.011350785899332704,0.02214411874122569,0.003486585557463548
0.0945,0.002123672627396363,0.003574402907752247,0.008146546444237021,0.010946556472359738,0.011589568485654735,0.011372056044608756,0.02220475043219628,0.003493717483722382
0.0950192,0.0021234866626314735,0.0035602740672520824,0.008159838375650654,0.010965546426387085,0.011600714275164627,0.011393148596142788,0.022265467209632434,0.0035007105896118257
0.0955385,0.0021231074614910055,0.0035460184665332857,0.008173325293479647,0.010984264350759198,0.011611478883633607,0.011414069983392483,0.022326277737985532,0.0035075640549297364
0.0960577,0.0021225353661691268,0.0035316438119690394,0.008187008973083915,0.011002713864435154,0.011621867157127722,0.011434826625572062,0.022387190467648126,0.0035142770384121594
0.0965769,0.0021217707195897583,0.0035171577352386034,0.008200890961451148,0.011020898557546241,0.01163188389042026,0.011455424929027364,0.022448213628137845,0.003520848678021168
0.0970962,0.0021208138655806996,0.0035025677919015533,0.008214972576511286,0.011038821989043563,0.01164153382539774,0.011475871284620819,0.022509355221415842,0.0035272780912562604
0.0976154,0.002119665149063572,0.003487881460013818,0.008229254906581083,0.01105648768439118,0.011650821649511948,0.011496172065127494,0.0225706230153441,0.003533564375489289
0.0981346,0.0021183249162595387,0.0034731061387856597,0.00824373880993909,0.011073899133305582,0.01165975199427861,0.011516333622643307,0.022632024537285834,0.0035397066083228844
0.0986538,0.0021167935149107417,0.003458249147281708,0.008258424914531244,0.011091059787542178,0.011668329433823321,0.011536362286006407,0.02269356706785316,0.0035457038479723463
0.0991731,0.0021150712945173723,0.003443317723163132,0.008273313617807193,0.011107973058729476,0.011676558483475265,0.011556264358232768,0.022755257634805886,0.003551555133670957
0.0996923,0.002113158606590289,0.00342831902147203,0.008288405086687446,0.011124642316251465,0.011684443598409323,0.011576046113966967,0.022817103007105287,0.003557259486098708
0.1002115,0.0021110558049190794,0.0034132601134580732,0.008303699257661347,0.011141070885178633,0.011691989172337072,0.011595713796949151,0.022879109689126376,0.003562815907834411
0.1007308,0.002108763245855449,0.003398147985447421,0.008319195837015816,0.011157262044247999,0.011699199536247184,0.011615273617499195,0.02294128391503212,0.003568223383831183
0.10125,0.002106281288611811,0.0033829895377539046,0.008334894301194704,0.011173219023892407,0.01170607895719572,0.01163473175001916,0.023003631643312743,0.003573480881915283
0.1017692,0.002103610295574954,0.003367791583632454,0.008350793897288558,0.011188945004319238,0.011712631637146786,0.011654094330515273,0.023066158551493254,0.0035785873533082696
0.1022885,0.002100750632634646,0.0033525608482747157,0.008366893643654534,0.01120444311363862,0.011718861711863966,0.011673367454140661,0.023128870031012,0.003583541733172433
0.1028077,0.002097702669527025,0.0033373039678468094,0.008383192330666091,0.01121971642604118,0.011724773249852834,0.011692557172760246,0.023191771182272967,0.00358834294117942
0.1033269,0.0020944667801926216,0.00332202748856915,0.008399688521592069,0.011234767960025245,0.011730370251354873,0.011711669492539153,0.023254866809874257,0.0035929898821019644
0.1038462,0.002091043343148839,0.0033067378658382654,0.00841638055360466,0.011249600676673435,0.01173565664739299,0.01173071037155593,0.023318161418015026,0.003597481446428616
0.1043654,0.002087432741876703,0.0032914414633905286,0.008433266538915712,0.011264217477978422,0.01174063629886877,0.01174968571744186,0.023381659206082952,0.0036018165110013566
0.1048846,0.002083635365221677,0.003276144552507717,0.008450344366040715,0.011278621205217738,0.0117453129957116,0.011768601385047527,0.023445364064424077,0.003605993939675961
0.1054038,0.002079651607808331,0.0032608533112642867,0.008467611701189804,0.011292814637377316,0.01174969045607979,0.011787463174137706,0.023509279570296786,0.0036100125840049647
0.1059231,0.002075481870468628,0.003245573823816246,0.008485065989784974,0.011306800489623537,0.011753772325613778,0.011806276827115554,0.023573408984011397,0.0036138712839430603
0.1064423,0.0020711265606835915,0.0032303120797314826,0.008502704458102677,0.0113205814118234,0.011757562176741577,0.01182504802677703,0.023637755245256714,0.003617568868574725
0.1069615,0.0020665860930380894,0.003215073973361385,0.008520524115040862,0.011334159987112501,0.011761063508036643,0.01184378239409628,0.023702320969614735,0.0036211041568638747
0.1074808,0.0020618608896884557,0.0031998653032535777,0.00853852175400952,0.011347538730510287,0.011764279743628325,0.011862485486042759,0.02376710844526438,0.0036244759584252934
0.108,0.0020569513808426708,0.0031846917716055975,0.008556693954943649,0.011360720087582097,0.011767214232665055,0.011881162793430785,0.023832119629875085,0.003627683074317584
0.1085192,0.002051858005252794,0.0031695589837593095,0.008575037086437549,0.011373706433147461,0.011769870248830416,0.011899819738802256,0.023897356147690764,0.003630724297857346
0.1090385,0.0020465812107193504,0.003154472447735857,0.008593547307999263,0.011386500070034057,0.011772250989912273,0.011918461674343243,0.0239628192868046,0.0036335984154542925
0.1095577,0.002041121454607363,0.0031394375738109186,0.008612220572423935,0.011399103227876786,0.01177435957742516,0.011937093879835211,0.024028509996624817,0.0036363042074669676
0.1100769,0.0020354792043737195,0.0031244596741300413,0.00863105262828481,0.011411518061961407,0.011776199056286128,0.011955721560641617,0.02409442888553152,0.0036388404490787225
0.1105962,0.002029654938105571,0.0031095439623637896,0.00865003902254055,0.011423746652112243,0.011777772394544321,0.011974349845730613,0.024160576218724573,0.0036412059111935804
0.1111154,0.0020236491450694614,0.003094695553402453,0.008669175103257466,0.01143579100162348,0.01177908248316448,0.011992983785734533,0.024226951916262354,0.003643399361351588
0.1116346,0.0020174623262708873,0.0030799194630900034,0.008688456022445256,0.01144765303623363,0.011780132135864523,0.012011628351046792,0.024293555551291195,0.0036454195646632324
0.1121538,0.002011094995023999,0.003065220607997019,0.008707876739004727,0.011459334603142798,0.011780924089007366,0.012030288429956761,0.024360386348465185,0.003647265284762478
0.1126731,0.0020045476775311342,0.0030506038052322483,0.008727432021785948,0.011470837470072473,0.01178146100154702,0.012048968826823148,0.024427443182556113,0.0036489352847779467
0.1131923,0.001997820913471895,0.0030360737722924668,0.008747116452755213,0.01148216332436754,0.011781745455028953,0.012067674260286328,0.02449472457725322,0.0036504283283217555
0.1137115,0.0019909152566014794,0.003021635126950261,0.008766924430269109,0.011493313772140237,0.011781779953644685,0.012086409361519966,0.02456222870415239,0.0036517431804954895
0.1142308,0.0019838312753579865,0.0030072923871793562,0.008786850172453944,0.011504290337455803,0.01178156692434042,0.012105178672522234,0.024629953381934345,0.003652878608912791
0.11475,0.001976569553478429,0.0029930499711170932,0.008806887720688703,0.011515094461559502,0.011781108716979514,0.012123986644446893,0.024697896075731408,0.0036538333847380092
0.1152692,0.001969130690623195,0.0029789121970636343,0.008827030943189684,0.011525727502144735,0.011780407604558452,0.012142837635974466,0.024766053896682235,0.003654606283740383
0.1157885,0.0019615153030086976,0.0029648832835174723,0.008847273538694942,0.01153619073266203,0.011779465783475976,0.012161735911723764,0.024834423601673903,0.00365519608736319
0.1163077,0.001953724024047952,0.002950967349246792,0.008867609040246634,0.011546485341668833,0.011778285373854941,0.012180685640704104,0.02490300159327072,0.003655601583807318
0.1168269,0.0019457575049988075,0.0029371684133962287,0.00888803081906936,0.011556612432220264,0.01177686841991642,0.012199690894808515,0.024971783919829127,0.003655821569128698
0.1173462,0.0019376164156195501,0.0029234903956285377,0.008908532088542595,0.011566573021301228,0.011775216890405673,0.01221875564734836,0.025040766275798085,0.003655854848349026
0.1178654,0.0019293014448315807,0.0029099371163006944,0.008929105908265275,0.011576368039300436,0.01177333267906951,0.01223788377162967,0.02510994400220411,0.0036557002365792206
0.1183846,0.0019208133013888667,0.002896512296673919,0.00894974518821062,0.011585998329527034,0.011771217605184642,0.01225707903957142,0.02517931208732021,0.003655356560155027
0.1189038,0.0019121527145538736,0.002883219559157126,0.008970442692969231,0.011595464647770662,0.011768873414136585,0.01227634512036596,0.025248865167517877,0.003654822657784192
0.1194231,0.0019033204347796734,0.002870062427583262,0.008991191046078513,0.01160476766190572,0.011766301778048625,0.01229568557918168,0.025318597528301453,0.003654097381704617
0.1199423,0.0018943172343979437,0.0028570443275179784,0.009011982734436362,0.011613907951540698,0.011763504296460371,0.01231510387590797,0.025388503105524096,0.0036531795988528834
0.1204615,0.0018851439083125642,0.0028441685866001007,0.00903281011279709,0.011622886007713322,0.011760482497055363,0.012334603363942476,0.0254585754867848,0.0036520681920425057
0.1209808,0.0018758012746985108,0.0028314384349133067,0.009053665408347476,0.011631702232632265,0.011757237836437145,0.012354187289020676,0.025528807913005772,0.0036507620611512595
0.1215,0.0018662901757057393,0.0028188570053884494,0.0090745407253608,0.011640356939466096,0.011753771700953252,0.01237385878808768,0.02559919328018943,0.0036492601243169193
0.1220192,0.0018566114781677287,0.0028064273342359425,0.009095428049926687,0.011648850352180074,0.01175008540756646,0.012393620888212196,0.025669724141354162,0.0036475613191407253
0.1225385,0.0018467660743143475,0.002794152361407619,0.009116319254754568,0.011657182605421434,0.011746180204772626,0.012413476505542538,0.02574039270864779,0.0036456646038978925
0.1230577,0.0018367548824886955,0.0027820349310874494,0.009137206104048516,0.011665353744453738,0.011742057273564352,0.01243342844430455,0.02581119085563747,0.0036435689587544697
0.1235769,0.001826578847867572,0.0027700777922105018,0.00915808025845118,0.011673363725140887,0.011737717728439736,0.012453479395841339,0.02588211011977468,0.0036412733869898533
0.1240962,0.0018162389431852293,0.0027582835990094955,0.009178933280054452,0.011681212413981405,0.01173316261845541,0.012473631937694676,0.0259531417050336,0.0036387769162242755
0.1246154,0.0018057361694600726,0.0027466549115882943,0.009199756637474505,0.011688899588193583,0.011728392928323086,0.012493888532727964,0.02602427648472113,0.0036360785996506074
0.1251346,0.0017950715567239847,0.002735194196521682,0.00922054171098874,0.011696424935852124,0.011723409579548818,0.012514251528290627,0.026095505004456523,0.003633177517269849
0.1256538,0.0017842461647539463,0.0027239038274807707,0.009241279797732132,0.0117037880560769,0.01171821343161419,0.01253472315542385,0.02616681748531858,0.0036300727771297133
0.1261731,0.0017732610838056208,0.00271278608588337,0.00926196211695043,0.011710988459274518,0.011712805283198522,0.012555305528107526,0.026238203827157996,0.003626763516565766
0.1266923,0.0017621174353485666,0.0027018431615686463,0.009282579815307624,0.011718025567433312,0.011707185873441162,0.012576000642548265,0.026309653612072575,0.003623248903444612
0.1272115,0.001750816372802727,0.0026910771534954013,0.009303123972244991,0.011724898714472461,0.011701355883242807,0.012596810376508383,0.02638115610804263,0.003619528137408676
0.1277308,0.0017393590822758383,0.0026804900704632886,0.009323585605389047,0.011731607146645832,0.011695315936604734,0.012617736488675821,0.026452700272723857,0.003615600451122148
0.12825,0.0017277467833013967,0.002670083831856289,0.00934395567600564,0.011738150023001227,0.011689066602004757,0.01263878061807499,0.026524274757394786,0.003611465111517668
0.1287692,0.0017159807295768072,0.0026598602684077587,0.009364225094497398,0.011744526415895578,0.011682608393808656,0.012659944283518644,0.026595867911055737,0.003607121421043351
0.1292885,0.001704062209701334,0.002649821122986405,0.009384384725941618,0.011750735311566604,0.011675941773715892,0.012681228883100847,0.0266674677846761,0.003602568718909765
0.1298077,0.001691992547913458,0.0026399680514025085,0.009404425395665649,0.011756775610761369,0.01166906715223838,0.012702635693731137,0.02673906213558665,0.0035978063823364943
0.1303269,0.001679773104827232,0.0026303026232337386,0.009424337894856761,0.011762646129422058,0.011661984890211237,0.012724165870709944,0.026810638432013235,0.003592833827797929
0.1308462,0.0016674052781672215,0.0026208263226699152,0.009444112986203379,0.011768345599429285,0.011654695300334377,0.012745820447345367,0.0268821838577481,0.0035876505122679502
0.1313654,0.0016548905035015974,0.0026115405493760857,0.0094637414095645,0.011773872669403204,0.01164719864874394,0.012767600334611388,0.026953685316954905,0.0035822559344631647
0.1318846,0.0016422302549729518,0.0026024466193732936,0.009483213887664056,0.01177922590556269,0.011639495156612448,0.012789506320847608,0.02702512943910323,0.0035766496360843335
0.1324038,0.0016294260460263973,0.002593545765936411,0.00950252113180687,0.01178440379264308,0.011631585001776659,0.01281153907150056,0.027096502584028234,0.0035708312030556313
0.1329231,0.001616479430134521,0.002584839140508412,0.009521653847612818,0.011789404734873018,0.011623468320391891,0.012833699128906608,0.027167790847110924,0.0035648002667613534
0.1334423,0.001603392001518758,0.002576327813630436,0.009540602740765717,0.01179422705701106,0.011615145208611694,0.012855986912116424,0.02723898006457462,0.0035585565052796645
0.1339615,0.0015901653958667614,0.0025680127758869963,0.009559358522773415,0.011798869005442789,0.01160661572429153,0.012878402716760969,0.027310055818892873,0.0035520996446129728
0.1344808,0.0015768012910453472,0.002559894938865682,0.009577911916735488,0.011803328749339152,0.011597879888715152,0.012900946714958924,0.0273810034443043,0.003545429459914489
0.135,0.001563301407808593,0.002551975136130698,0.009596253663114835,0.011807604381876701,0.011588937688342215,0.012923618955265549,0.02745180803242985,0.0035385457767105415
0.1355192,0.0015496675105006765,0.0025442541242095946,0.009614374525509457,0.011811693921520415,0.011579789076575621,0.012946419362663115,0.027522454437988054,0.003531448472118208
0.1360385,0.0015359014077530586,0.0025367325835925366,0.009632265296420564,0.011815595313369674,0.01157043397554701,0.012969347738593128,0.027592927284603802,0.003524137476057837
0.1365577,0.001522004953175625,0.0025294111197434513,0.009649916803013085,0.011819306430567937,0.011560872277918804,0.012992403761030743,0.027663210970706578,0.003516612772460038
0.1370769,0.0015079800460414136,0.0025222902641223958,0.009667319912864628,0.011822825075776592,0.01155110384870117,0.01301558698460192,0.027733289675514007,0.00350887440046673
0.1375962,0.0014938286319645662,0.00251537047521847,0.009684465539698803,0.011826148982713438,0.011541128527082407,0.013038896840743778,0.02780314736509701,0.0035009224556258292
0.1381154,0.0014795527035711363,0.0025086521395926067,0.009701344649098794,0.011829275817756167,0.0115309461282712,0.013062332637908718,0.027872767798523053,0.0034927570910791537
0.1386346,0.0014651543011623782,0.0025021355729295583,0.009717948264197059,0.011832203181611116,0.011520556445349304,0.0130858935618127,0.027942134534074164,0.0034843785187431064
0.1391538,0.0014506355133701312,0.0024958210210983952,0.009734267471336936,0.011834928611047584,0.011509959251133264,0.01310957867572809,0.02801123093553656,0.00347578701048172
0.1396731,0.0014359984778039027,0.0024897086612208443,0.009750293425702026,0.011837449580697872,0.01149915430004371,0.01313338692082141,0.02808004017855875,0.0034669828992716103
0.1401923,0.0014212453816892484,0.002483798602746818,0.009766017356909178,0.0118397635049232,0.011488141329980758,0.013157317116536203,0.028148545257074886,0.0034579665803583914
0.1407115,0.0014063784624970348,0.0024780908885365075,0.009781430574561,0.011841867739745536,0.011476920064203963,0.013181367961021121,0.028216728989790083,0.0034487385124041016
0.1412308,0.00139140000856317,0.002472585495948499,0.009796524473753782,0.011843759584845346,0.011465490213215227,0.013205538031603348,0.028284574026724577,0.0034392992186251807
0.14175,0.001376312359698382,0.002467282337933412,0.009811290540536794,0.011845436285625155,0.011453851476642988,0.013229825785307247,0.02835206285581373,0.0034296492879205614
0.1422692,0.0013611179077876467,0.0024621812641326584,0.00982572035731899,0.011846895035338737,0.011442003545125952,0.013254229559418127,0.028419177809561276,0.0034197893759894122
0.1427885,0.0013458190973788737,0.002457282061981975,0.009839805608219128,0.011848132977285708,0.011429946102194598,0.01327874757209092,0.02848590107174375,0.0034097202064380786
0.1433077,0.0013304184262604721,0.0024525844578194476,0.009853538084355443,0.011849147207071148,0.011417678826148683,0.013303377923003557,0.028552214684164506,0.0033994425718757546
0.1438269,0.0013149184460274355,0.0024480881179977892,0.00986690968907105,0.01184993477492988,0.011405201391928991,0.013328118594054765,0.028618100553456094,0.0033889573349984033
0.1443462,0.0012993217626355818,0.002443792650000657,0.009879912443091408,0.011850492688114925,0.011392513472981695,0.01335296745010601,0.028683540457929993,0.003378265429660431
0.1448654,0.0012836310369435848,0.0024396976035628145,0.009892538489610353,0.011850817913349517,0.011379614743113676,0.01337792223976738,0.028748516054472966,0.003367367861933607
0.1453846,0.0012678489852424207,0.0024358024717939454,0.009904780099301317,0.011850907379342041,0.011366504878337338,0.01340298059622716,0.02881300888548943,0.003356265711152718
0.1459038,0.0012519783797718528,0.0024321066923059156,0.009916629675250555,0.011850757979363066,0.011353183558703467,0.013428140038124979,0.028877000385889237,0.0033449601309474258
0.1464231,0.0012360220492235654,0.00242860964834328,0.009928079757809226,0.011850366573883638,0.011339650470120767,0.01345339797046834,0.028940471890120337,0.003333452350259772
0.1469423,0.001219982879230557,0.0024253106699168073,0.009939123029361225,0.011849729993273838,0.011325905306160799,0.01347875168559239,0.02900340463924549,0.003321743674346784
0.1474615,0.0012038638128424128,0.002422209034939791,0.009949752319003571,0.01184884504056055,0.011311947769847197,0.013504198364162737,0.0290657797880622,0.003309835485767617
0.1479808,0.001187667850986088,0.002419303970366915,0.009959960607136184,0.011847708494243308,0.011297777575428172,0.0135297350762211,0.029127578412264786,0.003297729245354708
0.1485,0.0011713980529118372,0.002416594653335436,0.009969741029957749,0.011846317111167022,0.011283394450131495,0.013555358782273534,0.029188781515647525,0.0032854264931684246
0.1490192,0.0011550575366239433,0.002414080212308457,0.009979086883864471,0.011844667629450228,0.01126879813590133,0.01358106633442087,0.029249370037347584,0.003272928849434736
0.1495385,0.0011386494792958901,0.0024117597282200674,0.009987991629748564,0.011842756771467474,0.01125398839111631,0.013606854477531002,0.02930932485912652,0.0032602380154654626
0.1500577,0.0011221771176696239,0.002409632235622094,0.009996448897193616,0.01184058124688436,0.011238964992288311,0.01363271985045253,0.029368626812688998,0.0032473557745606695
0.1505769,0.0011056437484385472,0.0024076967238322233,0.010004452488564314,0.011838137755743636,0.011223727735741356,0.013658658987269263,0.029427256687037214,0.003234283992892785
0.1510962,0.0010890527286138783,0.0024059521380832174,0.010011996382988459,0.011835422991600742,0.011208276439270078,0.013684668318595024,0.029485195235859303,0.0032210246203719967
0.1516154,0.0010724074758740063,0.002404397380672942,0.010019074740229653,0.01183243364470699,0.011192610943777067,0.013710744172908098,0.02954242318494982,0.003207579691492462
0.1521346,0.0010557114688964698,0.0024030313121149007,0.010025681904449508,0.011829166405238603,0.011176731114888486,0.013736882777924788,0.02959892123966029,0.003193951326158855
0.1526538,0.0010389682476721824,0.0024018527522889637,0.010031812407858519,0.011825617966569677,0.011160636844547253,0.013763080262011281,0.02965467009237735,0.003180141730492756
0.1531731,0.0010221814138015272,0.002400860481591971,0.010037460974255029,0.011821785028587089,0.011144328052583113,0.013789332655633115,0.029709650430026022,0.003166153197618371
0.1536923,0.0010053546307719555,0.0024000532420878945,0.010042622522451843,0.011817664301045262,0.01112780468825889,0.013815635892841367,0.02976384294159518,0.003151988108427064
0.1542115,0.0009884916242167282,0.0023994297386572315,0.010047292169590097,0.011813252506958602,0.011111066731792331,0.013841985812794668,0.029817228325682187,0.0031376489323201736
0.1547308,0.00097159618215445,0.0023989886401453156,0.01005146523433997,0.011808546386029397,0.01109411419585303,0.013868378161316051,0.02986978729805352,0.003123138227929573
0.15525,0.0009546721552090537,0.0023987285805092463,0.010055137239987813,0.011803542698108857,0.011076947127034081,0.013894808592483538,0.029921500599217915,0.003108458643815414
0.1557692,0.0009377234568098899,0.002398648159963149,0.010058303917409202,0.0117982382266889,0.011059565607298106,0.013921272670253296,0.029972349002008503,0.003093612919140498
0.1562885,0.0009207540633715826,0.0023987459461214905,0.010060961207927389,0.011792629782422265,0.011041969755397417,0.013947765870114245,0.03002231331917041,0.003078603884320716
0.1568077,0.0009037680144533093,0.0023990204751401893,0.010063105266056667,0.011786714206668424,0.011024159728268047,0.013974283580772878,0.03007137441094998,0.0030634344616510124
0.1573269,0.0008867694128971682,0.002399470252855273,0.01006473246213016,0.011780488375062726,0.011006135722397392,0.014000821105867095,0.03011951319268178,0.003048107665906358
0.1578462,0.0008697624249452849,0.002400093755918841,0.010065839384811636,0.011773949201106138,0.010987897975165216,0.014027373665707917,0.03016671064236926,0.0030326266049172405
0.1583654,0.0008527512803353137,0.00240088943293208,0.010066422843491005,0.011767093639772819,0.010969446766157801,0.014053936399047966,0.030212947808254776,0.0030169944801191925
0.1588846,0.0008357402723739898,0.0024018557055750928,0.010066479870563192,0.011759918691132748,0.010950782418454904,0.01408050436487564,0.03025820581637457,0.0030012145870758726
0.1594038,0.0008187337579883895,0.0024029909697332666,0.010066007723590066,0.01175242140398645,0.010931905299889284,0.014107072544233996,0.030302465878093966,0.0029852903159752328
0.1599231,0.0008017361577545759,0.002404293596619916,0.010065003887345075,0.011744598879508865,0.010912815824278525,0.014133635842063298,0.030345709297618068,0.002969225152098279
0.1604423,0.0007847519559033194,0.0024057619338949043,0.010063466075740218,0.011736448274899208,0.010893514452628887,0.014160189089066202,0.030387917479473222,0.0029530226762599313
0.1609615,0.000767785700302607,0.0024073943067789514,0.010061392233634973,0.01172796680703365,0.01087400169431096,0.014186727043594466,0.030429071935954625,0.0029366865652214677
0.1614808,0.000750842002416668,0.002409189019163309,0.01005878053852682,0.01171915175611754,0.010854278108206905,0.01421324439355597,0.030469154294535505,0.0029202205920740316
0.162,0.0007339255372412511,0.002411144354714479,0.010055629402123024,0.011710000469333803,0.010834344303829114,0.014239735758340793,0.03050814630523347,0.0029036286265926945
0.1625192,0.0007170410432148939,0.0024132585779736322,0.010051937471793334,0.011700510364484055,0.01081420094241014,0.014266195690764979,0.030546029847929774,0.0028869146355605716
0.1630385,0.0007001933221059248,0.0024155299354503596,0.010047703631903326,0.011690678933619036,0.010793848737963891,0.014292618679030596,0.03058278693963727,0.0028700826830625075
0.1635577,0.0006833872388749387,0.0024179566567103915,0.010042927005028087,0.011680503746654766,0.010773288458318068,0.014318999148700612,0.030618399741712838,0.0028531369307478686
0.1640769,0.0006666277215124795,0.0024205369554568964,0.010037606953045975,0.01166998245497088,0.010752520926117894,0.014345331464687208,0.03065285056700987,0.002836081638061978
0.1645962,0.0006499197608516658,0.0024232690306049557,0.010031743078112212,0.011659112794987431,0.010731547019801155,0.014371609933252205,0.030686121886966518,0.0028189211624457334
0.1651154,0.0006332684103554897,0.0024261510673488085,0.010025335223512058,0.011647892591716471,0.010710367674544564,0.014397828804018532,0.030718196338625183,0.002801659959502954
0.1656346,0.0006166787858785179,0.002429181238221436,0.010018383474393317,0.011636319762284502,0.010688983883181331,0.014423982271991896,0.030749056731578694,0.002784302583135038
0.1661538,0.0006001560654027408,0.002432357704146043,0.010010888158378011,0.011624392319421925,0.01066739669708986,0.01445006447959204,0.030778686054838886,0.002766853685642534
0.1666731,0.0005837054887473167,0.0024356786154789848,0.010002849846053059,0.011612108374915435,0.010645607227053438,0.014476069518693058,0.030807067483623447,0.0027493180177932475
0.1671923,0.0005673323572519744,0.002439142113043676,0.009994269351339923,0.01159946614301925,0.010623616644090705,0.01450199143267226,0.030834184386057395,0.002731700428856528
0.1677115,0.000551042033433842,0.0024427463291550235,0.009985147731743246,0.011586463943821063,0.010601426180256885,0.014527824218467003,0.03086002032978591,0.0027140058666033895
0.1682308,0.0005348399406174761,0.0024464893886339033,0.009975486288478592,0.011573100206558511,0.010579037129415712,0.014553561828638904,0.030884559088495536,0.0026962393772721085
0.16875,0.0005187315625378616,0.0024503694098112093,0.009965286566479527,0.011559373472881919,0.010556450847982126,0.014579198173444682,0.030907784648341007,0.002678406105498938
0.1692692,0.0005027224429161574,0.0024543845055209975,0.00995455035428435,0.011545282400059052,0.010533668755635795,0.014604727122912988,0.030929681214275098,0.002660511294213553
0.1697885,0.00048681818500795993,0.0024585327840822425,0.00994327968380289,0.011530825764117496,0.010510692336005675,0.01463014250892638,0.030950233216279155,0.0026425602844988593
0.1703077,0.0004710244511238666,0.0024628123502686994,0.009931476829963919,0.011516002462920281,0.010487523137325771,0.014655438127307586,0.030969425315492217,0.002624558515414764
0.1708269,0.00045534696212212397,0.002467221306266362,0.009919144310243756,0.01150081151917035,0.010464162773062339,0.014680607739909214,0.030987242410237276,0.002606511523785525
0.1713462,0.0004397914968731557,0.0024717577526179825,0.009906284884076817,0.011485252083339614,0.010440612922512724,0.014705645076705928,0.031003669641943662,0.0025884249439502905
0.1718654,0.0004243638916957699,0.0024764197891541115,0.009892901552148876,0.011469323436518368,0.010416875331375995,0.014730543837888174,0.031018692400965164,0.002570304507476458
0.1723846,0.0004090700397648471,0.0024812055159101143,0.009878997555573888,0.01145302499318121,0.01039295181229549,0.014755297695956474,0.031032296332293745,0.0025521560428354876
0.1729038,0.0003939158904903119,0.002486113034028641,0.009864576374955287,0.011436356303865684,0.010368844245373392,0.0147799002978153,0.031044467341169116,0.0025339854750408134
0.1734231,0.00037890744886718707,0.0024911404466470438,0.00984964172933272,0.01141931705776022,0.01034455457865738,0.014804345266865495,0.03105519159858484,0.0025157988252474963
0.1739423,0.0003640507747965327,0.0024962858597692987,0.009834197575015193,0.01140190708519804,0.010320084828599451,0.014828626205094045,0.031064455546691815,0.0024976022103132696
0.1744615,0.0003493519823770729,0.002501547383122019,0.009818248104301723,0.011384126360053837,0.010295437080487064,0.014852736695160032,0.03107224590410013,0.002479401842320629
0.1749808,0.00033481723916731546,0.0025069231309942045,0.00980179774409057,0.011365975002039992,0.010270613488846735,0.014876670302475494,0.03107854967108053,0.0024612040280596404
0.1755,0.00032045276541797194,0.002512411223060399,0.009784851154378178,0.011347453278899201,0.010245616277820249,0.014900420577279916,0.031083354134666594,0.0024430151684711778
0.1760192,0.0003062648332744886,0.0025180097851869357,0.00976741322664903,0.011328561608490283,0.010220447741513641,0.014923981056707147,0.03108664687365881,0.002424841758050351
0.1765385,0.00029225976594950327,0.0025237169502209636,0.009749489082157572,0.011309300560763992,0.010195110244319138,0.014947345266843543,0.031088415763531392,0.0024066903842099243
0.1770577,0.0002784439368650474,0.0025295308587619486,0.00973108407010344,0.011289670859625631,0.010169606221210199,0.014970506724776282,0.031088648981242684,0.002388567726603601
0.1775769,0.0002648237687643121,0.0025354496599153593,0.009712203765701208,0.011269673384681263,0.010143938178009864,0.01499345894063101,0.031087335009949698,0.0023704805564090953
0.1780962,0.0002514057327928039,0.0025414715120282696,0.009692853968145955,0.011249309172864362,0.01011810869163261,0.015016195419598229,0.031084462643627155,0.0023524357355710055
0.1786154,0.00023819634754871817,0.0025475945834066284,0.009673040698475854,0.011228579419939927,0.010092120410299972,0.01503870966394815,0.031080020991591278,0.002334440216003543
0.1791346,0.00022520217810237178,0.0025538170530139824,0.009652770197333075,0.011207485481883318,0.010065976053730134,0.015060995175033953,0.031073999482928275,0.002316501038753251
0.1796538,0.0002124298349845518,0.0025601371111514653,0.009632048922624278,0.011186028876131432,0.010039678413301745,0.0150830454552834,0.031066387870827425,0.002298625333121869
0.1801731,0.0001998859731436646,0.002566552960118908,0.009610883547081915,0.011164211282704395,0.01001323035219217,0.015104854010178869,0.031057176236818286,0.002280820315749556
0.1806923,0.00018757729087159807,0.0025730628148569585,0.009589280955727553,0.011142034545196458,0.009986634805490368,0.01512641435022583,0.03104635499491163,0.0022630932896587105
0.1812115,0.00017551052869824396,0.0025796649035701637,0.009567248243238378,0.011119500671635401,0.009959894780284608,0.015147719992909791,0.031033914895643437,0.0022454516432586415
0.1817308,0.0001636924682546599,0.002586357468330992,0.009544792711218029,0.01109661183521024,0.009933013355725143,0.015168764464641729,0.031019847030021398,0.002227902849311352
0.18225,0.0001521299311048834,0.002593138765664823,0.009521921865372854,0.011073370374867449,0.009905993683062012,0.015189541302691954,0.03100414283337332,0.002210454463858682
0.1827692,0.00014082977754643867,0.002600007067115952,0.009498643412594732,0.01104977879577617,0.009878838985658148,0.01521004405711234,0.030986794089096756,0.0021931141251110677
0.1832885,0.0001297989053795986,0.0026069606597946835,0.009474965257951653,0.011025839769663152,0.009851552558977978,0.015230266292646812,0.03096779293230918,0.002175889552298179
0.1838077,0.00011904424864547747,0.002613997846905599,0.00945089550158731,0.011001556135018192,0.009824137770551746,0.015250201590630008,0.030947131853397866,0.002158788544481716
0.1843269,0.00010857277633303778,0.0026211169482570932,0.009426442435531047,0.01097693089717107,0.009796598059915831,0.015269843550874095,0.030924803701468703,0.0021418189793306433
0.1848462,9.83914910551011e-05,0.0026283163007522837,0.009401614540419545,0.01095196722824089,0.009768936938529324,0.015289185793543731,0.03090080168769303,0.0021249888118591636
0.1853654,8.850742769345854e-05,0.0026355942588613766,0.009376420482131687,0.010926668466958845,0.009741157989667168,0.015308221961019254,0.03087511938855158,0.0021083060731277355
0.1858846,7.892765201318408e-05,0.0026429491950755828,0.00935086910833801,0.010901038118365326,0.009713264868290146,0.015326945719748148,0.030847750748974553,0.0020917788689074532
0.1864038,6.965925924625998e-05,0.0026503795003426506,0.009324969444966176,0.01087507985338232,0.009685261300892043,0.015345350762084892,0.03081869008537678,0.0020754153783081194
0.1869231,6.070937264462792e-05,0.002657883584484072,0.009298730692583834,0.010848797508261938,0.009657151085324245,0.015363430808119253,0.030787932088586715,0.00205922385237035
0.1874423,5.208514200278419e-05,0.002665459876594015,0.009272162222700293,0.010822195083911926,0.009628938090598057,0.015381179607493085,0.030755471826667876,0.0020432126126220655
0.1879615,4.3793742150043974e-05,0.002673106825420025,0.00924527357398846,0.01079527674509902,0.009600626256664992,0.015398590941205655,0.030721304747631357,0.0020273900495997124
0.1884808,3.5842371412610445e-05,0.0026808228997255486,0.009218074448428584,0.010768046819531045,0.00957221959417539,0.015415658623407514,0.030685426682037806,0.0020117646213345572
0.189,2.8238250045596766e-05,0.0026886065886343484,0.009190574707375486,0.010740509796818674,0.009543722184215724,0.015432376503182955,0.030647833845487357,0.0019963448518043893
0.1895192,2.0988618635162113e-05,0.0026964564019568834,0.009162784367551162,0.010712670327317875,0.009515138178025,0.015448738466321147,0.030608522840995942,0.0019811393293509482
0.1900385,1.4100736470933363e-05,0.0027043708704987783,0.009134713596964791,0.010684533220854104,0.009486471796690616,0.015464738437075949,0.030567490661256365,0.0019661567050633893
0.1905577,7.581879888894304e-06,0.002712348546351515,0.009106372710762464,0.010656103445329496,0.009457727330824109,0.015480370379914496,0.030524734690782387,0.0019514056911280966
0.1910769,1.4393405849334163e-06,0.002720388003165534,0.009077772167009085,0.01062738612521433,0.009428909140217167,0.015495628301254531,0.0304802527079344,0.0019368950591451466
0.1915962,-4.319576100750659e-06,0.0027284878364059375,0.009048922562405111,0.01059838653992421,0.009400021653478257,0.015510506251190414,0.030434042886825326,0.0019226336384117117
0.1921154,-9.687552928180976e-06,0.0027366466635910308,0.009019834627940858,0.0105691101220846,0.009371069367650241,0.015524998325207675,0.03038610379910577,0.0019086303141726826
0.1926346,-1.465726253086182e-05,0.0027448631245139575,0.008990519224491199,0.010539562455684354,0.009342056847809307,0.015539098665885808,0.03033643441562757,0.001894894025838775
0.1931538,-1.9221369217551048e-05,0.0027531358814477046,0.008960987338353495,0.010509749274120132,0.009312988726645521,0.015552801464588943,0.030285034107984957,0.0018814337651723706
0.1936731,-2.3372530802322997e-05,0.002761463619333803,0.008931250076731565,0.010479676458133637,0.009283869704025307,0.015566100963143878,0.0302319026499326,0.0018682585744413337
0.1941923,-2.71034004626901e-05,0.0027698450459550687,0.008901318663168501,0.01044935003364378,0.009254704546536156,0.015578991455504846,0.03017704021867967,0.0018553775445410302
0.1947115,-3.0406628625539515e-05,0.00277827889209274,0.008871204432931063,0.01041877616947605,0.00922549808701387,0.015591467289404238,0.030120447396059076,0.0018427998130847829
0.1952308,-3.3274864880627314e-05,0.0027867639116683977,0.008840918828348377,0.010387961174991488,0.009196255224052603,0.015603522867988391,0.03006212516957102,0.0018305345624629963
0.19575,-3.5700759921356676e-05,0.002795298881871042,0.008810473394107614,0.010356911497617808,0.009166980921497895,0.015615152651437451,0.03000207493330011,0.0018185910178712028
0.1962692,-3.767696751254827e-05,0.0028038826032696857,0.008779879772509307,0.010325633720285393,0.009137680207922867,0.015626351158568308,0.02994029848870535,0.0018069784453072868
0.1967885,-3.9196146484892754e-05,0.0028125138999118273,0.008749149698684998,0.01029413455877091,0.009108358176087626,0.015637112968419516,0.029876798045282444,0.0017957061495381431
0.1973077,-4.02509627557592e-05,0.002821191619408135,0.008718294995779838,0.010262420858951531,0.009079019982381914,0.015647432721817223,0.029811576221097754,0.0017847834720360436
0.1978269,-4.08340913760195e-05,0.0028299146330036558,0.00868732757010285,0.010230499593972747,0.009049670846250971,0.015657305122921125,0.02974463604319346,0.0017742197888849821
0.1983462,-4.093821860253509e-05,0.0028386818356358782,0.008656259406247542,0.010198377861332939,0.009020316049604534,0.015666724940749534,0.029675980947863445,0.0017640245086572902
0.1988654,-4.055604399593517e-05,0.0028474921459799426,0.00862510256218568,0.010166062879887914,0.008990960936208978,0.01567568701068279,0.029605614780799355,0.0017542070702608126
0.1993846,-3.968028254329391e-05,0.0028563445064813246,0.008593869164336984,0.010133561986778668,0.008961610911062535,0.01568418623594438,0.02953354179710629,0.0017447769407569489
0.1999038,-3.830366680529134e-05,0.0028652378833762945,0.008562571402617533,0.010100882634285657,0.008932271439753609,0.015692217589059396,0.02945976666118741,0.0017357436131498559
0.2004231,-3.64189490874233e-05,0.002874171266700455,0.008531221525469751,0.010068032386612896,0.008902948047802176,0.01569977611329007,0.02938429444649668,0.0017271166041471257
0.2009423,-3.401890363480929e-05,0.0028831436702856598,0.00849983183487675,0.010035018916605135,0.008873646319984253,0.015706856924048312,0.029307130635158662,0.001718905451892257
0.2014615,-3.109632885013187e-05,0.002892154131745579,0.008468414681363869,0.010001850002401438,0.00884437189963941,0.015713455210285044,0.029228281117453965,0.0017111197136692486
0.2019808,-2.764404953422407e-05,0.0029012017124501986,0.008436982458990201,0.009968533524028376,0.00881513048796126,0.01571956623585608,0.029147752191169014,0.0017037689635796696
0.2025,-2.3654919148802636e-05,0.002910285497489515,0.008405547600332911,0.009935077459936142,0.008785927843270862,0.015725185340864218,0.029065550560808322,0.0016968627901925804
0.2030192,-1.912182210082749e-05,0.0029194045956266895,0.008374122571467052,0.00990148988348075,0.008756769780272912,0.015730307942977216,0.028981683336667508,0.001690410794167681
0.2035385,-1.403767604795436e-05,0.002928558139240917,0.008342719866943571,0.009867778959355481,0.008727662169294636,0.015734929538721246,0.028896158033765214,0.0016844225858520811
0.2040577,-8.395434224537315e-06,0.0029377452842602667,0.008311352004768149,0.009833952939974648,0.008698610935507242,0.015739045704749734,0.028808982570632084,0.0016789077828510772
0.2045769,-2.1880877876290305e-06,0.0029469652100847267,0.00828003152138345,0.009800020161812743,0.008669622058129794,0.01574265209908769,0.02872016526795483,0.0016738760075733197
0.2050962,4.59133181758204e-06,0.0029562171194996894,0.008248770966657314,0.00976598904170195,0.008640701569615312,0.01574574446235206,0.028629714847073533,0.0016693368847507369
0.2056154,1.1949750473468987e-05,0.0029655002385801173,0.008217582898879326,0.009731868073090944,0.00861185555481887,0.015748318618948938,0.02853764042832997,0.0016653000389335877
0.2061346,1.9894048987380836e-05,0.002974813816585628,0.008186479879768203,0.009697665822267876,0.008583090150147412,0.015750370478248732,0.028443951529264922,0.0016617750919610131
0.2066538,2.843106067136675e-05,0.0029841571258467157,0.008155474469492304,0.009663390924550312,0.008554411542690921,0.01575189603574064,0.02834865806266225,0.0016587716604074573
0.2071731,3.7567568904811404e-05,0.0029935294616423346,0.008124579221705567,0.009629052080444872,0.00852582596933454,0.015752891374167945,0.028251770334437758,0.0016562993530053523
0.2076923,4.731030468059255e-05,0.0030029301420690427,0.008093806678601094,0.009594658051779236,0.008497339715851204,0.015753352664645597,0.028153299041371035,0.0016543677680444816
0.2082115,5.766594413538674e-05,0.0030123585079018973,0.008063169365984568,0.009560217657809117,0.008468959115974313,0.015753276167761645,0.028053255268678638,0.0016529864907484698
0.2087308,6.864110606477114e-05,0.0030218139224472895,0.008032679788369683,0.009525739771302761,0.008440690550449931,0.015752658234663854,0.027951650487427208,0.0016521650906288813
0.20925,8.024234942379587e-05,0.003031295771387905,0.0080023504240977,0.00949123331460547,0.008412540446068009,0.0157514953081329,0.027848496551785302,0.001651913118817419
0.2097692,9.247617081372749e-05,0.003040803462620022,0.007972193720483238,0.009456707255686593,0.008384515274672176,0.015749783923643325,0.027743805696112896,0.0016522401053767333
0.2102885,0.00010534900195568713,0.0030503364260833525,0.007942222088988399,0.009422170604171408,0.008356621552147666,0.015747520710413403,0.027637590531887694,0.0016531555565903375
0.2108077,0.00011886720715192488,0.00305989411358368,0.007912447900427272,0.00938763240736024,0.008328865837387003,0.01574470239244487,0.0275298640444677,0.0016546689522321334
0.2113269,0.00013303708073548676,0.0030694759986085317,0.007882883480202881,0.00935310174623715,0.00830125473123321,0.015741325789553447,0.02742063958968997,0.001656789742816044
0.2118462,0.00014786484450904068,0.0030790815761361605,0.007853541103578603,0.009318587731470493,0.008273794875400352,0.015737387818390867,0.027309930890305614,0.0016595273468262514
0.2123654,0.00016335664517363525,0.003088710362438084,0.00782443299098605,0.009284099499407693,0.008246492951371307,0.015732885493459144,0.027197752032251735,0.0016628911479285313
0.2128846,0.00017951855174816786,0.0030983618948754437,0.007795571303371398,0.009249646208066507,0.008219355679272764,0.015727815928117637,0.027084117460761285,0.0016668904921631783
0.2134038,0.00019635655298034198,0.0031080357316894164,0.007766968137582126,0.009215237033125108,0.008192389816727466,0.015722176335583437,0.02696904197631198,0.0016715346851200058
0.2139231,0.00021387655474989744,0.0031177314517859297,0.007738635521796105,0.00918088116391323,0.008165602157683787,0.015715964029925446,0.026852540730415625,0.0016768329890959044
0.2144423,0.00023208437746490406,0.0031274486545148977,0.007710585410994916,0.009146587799406651,0.008138999531222805,0.01570917642705256,0.02673462922124916,0.0016827946202354449
0.2149615,0.0002509857534519163,0.003137186959444197,0.00768282968248325,0.009112366144227299,0.008112588800343105,0.015701811045696127,0.026615323289128735,0.0016894287456550212
0.2154808,0.0002705863243407937,0.0031469460061285897,0.007655380131456218,0.009078225404651209,0.00808637686072358,0.015693865508386962,0.026494639111828186,0.001696744480551056
0.216,0.0002908916384449957,0.0031567254538737966,0.00762824846661633,0.00904417478462668,0.008060370639464551,0.015685337542426937,0.02637259319974343,0.001704750885292812
0.2165192,0.00031190714813816124,0.003166524981495911,0.007601446305841855,0.009010223481804974,0.008034577093807494,0.015676224980855198,0.026249202390904502,0.0017134569625003669
0.2170385,0.0003336382072277835,0.0031763442870763486,0.0075749851719082405,0.008976380683585961,0.008009003209833627,0.01566652576340895,0.026124483845837574,0.001722871654108322
0.2175577,0.0003560900683267919,0.003186183087712515,0.0075488764882642116,0.00894265556318117,0.00798365600114158,0.015656237937478664,0.025998455042279687,0.0017330038384158156
0.2180769,0.00037926788022385775,0.0031960411192643976,0.007523131574864124,0.008909057275696682,0.007958542507504315,0.015645359659057452,0.025871133769749588,0.0017438623271234033
0.2185962,0.00040317668525325056,0.003205918136097281,0.007497761644058072,0.00887559495423826,0.0079336697935054,0.015633889193684337,0.02574253812397858,0.0017554558623573613
0.2191154,0.0004278214166650876,0.003215813910820791,0.0074727777965412,0.008842277706041074,0.007909044947154735,0.015621824917381014,0.025612686501205746,0.0017677931136819611
0.2196346,0.0004532068959968373,0.0032257282340244623,0.007448191017363631,0.008809114608626298,0.007884675078483746,0.015609165317581608,0.02548159759234246,0.0017808826751002488
0.2201538,0.0004793378304469574,0.0032356609140100122,0.0074240121720023445,0.0087761147059868,0.007860567318119963,0.015595908994054934,0.025349290377011335,0.0017947330620438663
0.2206731,0.0005062188102515615,0.0032456117765205035,0.0074002520024962935,0.008743287004804083,0.00783672881584092,0.015582054659818625,0.025215784117464998,0.001809352708352465
0.2211923,0.0005338543060650238,0.00325558066446656,0.007376921123646037,0.008710640470698597,0.007813166739107223,0.015567601142044467,0.025081098352390186,0.001824749963243266
0.2217115,0.0005622486663454375,0.0032655674376497992,0.007354030019279095,0.00867818402451544,0.007789888271574585,0.015552547382954104,0.024945252890602728,0.0018409330882713409
0.2222308,0.0005914061147458557,0.003275571972483619,0.0073315890385822055,0.008645926538647458,0.007766900611584606,0.015536892440704265,0.024808267804639055,0.0018579102542812058
0.22275,0.0006213307475122492,0.003285594161711471,0.00730960839250162,0.008613876833397644,0.007744210970634002,0.015520635490260505,0.02467016342424979,0.0018756895383503316
0.2232692,0.0006520265308891302,0.00329563391412273,0.007288098150212564,0.008582043673382705,0.007721826571822008,0.015503775824258378,0.024530960329800976,0.0018942789207251822
0.2237885,0.0006834972985337927,0.0033056911542662486,0.007267068235658905,0.008550435763979592,0.007699754648275737,0.015486312853850978,0.02439067934558831,0.001913686281750435
0.2243077,0.0007157467489401259,0.0033157658221616777,0.0072465284241640835,0.008519061747816747,0.007678002441553354,0.01546824610954183,0.024249341533069735,0.0019339193987921012
0.2248269,0.0007487784428729627,0.003325857873008618,0.007226488339114301,0.008487930201311746,0.007656577200025056,0.015449575242002064,0.024106968184021534,0.0019549859431553453
0.2253462,0.0007825958008139137,0.003335967276893658,0.007206957448714973,0.008457049631257015,0.00763548617723201,0.015430300022870849,0.023963580813622935,0.0019768934769978973
0.2258654,0.0008172021004196474,0.003346094018495352,0.007187945062821429,0.008426428471455279,0.007614736630223566,0.015410420345538075,0.023819201153474023,0.001999649450240014
0.2263846,0.0008526004739935679,0.003356238096787195,0.007169460329844867,0.008396075079406342,0.0075943358178731935,0.015389936225908226,0.023673851144551564,0.002023261197471982
0.2269038,0.0008887939059718479,0.0033663995247386683,0.007151512233734526,0.008365997733046792,0.007574290999173764,0.015368847803144384,0.023527552930107266,0.0020477359348601747
0.2274231,0.0009257852304247753,0.003376578329014407,0.007134109591037055,0.008336204627544128,0.007554609431512847,0.015347155340391291,0.02338032884851292,0.002073080757052687
0.2279423,0.000963577128574377,0.0033867745496715595,0.007117261048034009,0.00830670387214678,0.007535298368928802,0.015324859225476429,0.02323220142605658,0.002099302634085583
0.2284615,0.0010021721263292797,0.0033969882398553726,0.0071009750779584,0.008277503487091461,0.007516365060348485,0.01530195997158802,0.023083193369694034,0.0021264084082908224
0.2289808,0.0010415725918377658,0.0034072194654930555,0.0070852599782911954,0.008248611400569136,0.00749781674780741,0.015278458217928987,0.02293332755975956,0.002154404791206996
0.2295,0.0010817807330599782,0.0034174683049859383,0.0070701238681386,0.008220035445751008,0.007479660664653246,0.015254354730345978,0.02278262704263995,0.002183298360494066
0.2300192,0.0011227985953602211,0.0034277348488999447,0.007055574685690949,0.00819178335787576,0.007461904033733543,0.01522965040193268,0.022631115023415638,0.0022130955568533646
0.2305385,0.0011646280591202985,0.0034380191996543907,0.007041620185763959,0.008163862771399319,0.007444554065568592,0.01520434625360679,0.02247881485847269,0.0022438026809541867
0.2310577,0.0012072708373748258,0.0034483214712090985,0.007028267937423092,0.008136281217208333,0.007427617956510311,0.015178443434660013,0.022325750048089378,0.002275425890368349
0.2315769,0.0012507284734694555,0.00345864178874981,0.007015525321691675,0.00810904611989853,0.007411102886887992,0.015151943223280591,0.022171944229001064,0.002307971196514124
0.2320962,0.0012950023387429698,0.003468980288371883,0.007003399529343436,0.008082164795119065,0.00739501601914176,0.015124847027047889,0.02201742116694703,0.002341444461610985
0.2326154,0.0013400936302342154,0.0034793371167622412,0.0069918975587799975,0.008055644446983933,0.007379364495944496,0.01509715638339871,0.021862204749203,0.0023758513956466205
0.2331346,0.0013860033684148841,0.0034897124308795433,0.0069810262139938595,0.008029492165551459,0.007364155438312934,0.01506887296006514,0.02170631897710311,0.0024111975533576764
0.2336538,0.0014327323949491766,0.003500106397632533,0.006970792102617328,0.008003714924372813,0.007349395943708589,0.015039998555483757,0.021549787958555094,0.002447488331225695
0.2341731,0.0014802813704814133,0.00351051919355652,0.006961201634057814,0.00797831957811048,0.007335093084129086,0.015010535099176114,0.021392635900552563,0.002484728964489716
0.2346923,0.001528650772452683,0.003520951004487918,0.006952261017719871,0.007953312860227532,0.007321253904190435,0.014980484652100293,0.02123488710168812,0.002522924524176996
0.2352115,0.0015778408929476434,0.0035314020252367635,0.006943976261314279,0.00792870138074853,0.0073078854192006925,0.01494984940697334,0.021076565944671263,0.0025620799141533117
0.2357308,0.0016278518365726035,0.0035418724592571308,0.0069363531692544665,0.007904491624092834,0.007294994613225456,0.014918631688564273,0.02091769688885479,0.002602199868194296
0.23625,0.0016786835183660444,0.003552362518315374,0.006929397341140458,0.007880689946981049,0.007282588437145584,0.014886833953957275,0.020758304462773505,0.002643288947079261
0.2367692,0.001730335661742731,0.0035628724221561524,0.006923114170330537,0.007857302576415254,0.007270673806707514,0.014854458792784617,0.020598413256698766,0.002685351535708951
0.2372885,0.0017828077964725858,0.003573402398166205,0.006917508842600757,0.007834335607733707,0.007259257600566502,0.014821508927428737,0.020438047915212365,0.0027283918402486525
0.2378077,0.0018360992566954922,0.003583952681035879,0.006912586334892391,0.007811795002740508,0.007248346658323152,0.01478798721319277,0.020277233129803018,0.0027724138852980966
0.2383269,0.0018902091789732135,0.0035945235124184294,0.006908351414147344,0.007789686587910771,0.007237947778553558,0.014753896638438731,0.020115993631488655,0.0028174215110895818
0.2388462,0.0019451365003796029,0.003605115140587147,0.006904808636231518,0.007768016052671682,0.007228067716833407,0.014719240324692406,0.01995435418346752,0.0028634183707157584
0.2393654,0.0020008799566302938,0.0036157278200903776,0.006901962344946085,0.007746788947759851,0.007218713183756459,0.014684021526713864,0.01979233957380095,0.0029104079273885326
0.2398846,0.0020574380802530464,0.0036263618114045397,0.006899816671126575,0.007726010683655204,0.007209890842947779,0.014648243632532438,0.019629974608130655,0.002958393451730571
0.2404038,0.002114809198799933,0.003637017380585262,0.006898375531829642,0.007705686529091678,0.007201607309072181,0.01461191016344487,0.01946728410243316,0.0030073780191008787
0.2409231,0.002172991433102556,0.0036476947989167816,0.0068976426296073244,0.007685821609644877,0.007193869145838265,0.01457502477397522,0.019304292875813985,0.0030573645069559368
0.2414423,0.002231982695571493,0.003658394342559747,0.0068976214518686,0.007666420906396768,0.007186682863998511,0.014537591251795072,0.019141025743344007,0.0031083555922478624
0.2419615,0.0022917806885412017,0.003669116292197543,0.006898315270327951,0.007647489254677484,0.007180054919345824,0.01449961351760249,0.018977507508940387,0.003160353748861051
0.2424808,0.0023523829026616213,0.0036798609326812665,0.006899727140540641,0.007629031342884185,0.007173991710707002,0.014461095624958188,0.018813762958294296,0.003213361245088781
0.243,0.002413786615337745,0.003690628552673453,0.006901859901524311,0.007611051711376904,0.007168499577933613,0.014422041760077343,0.018649816851847467,0.003267380141151237
0.2435192,0.00247598888921844,0.00370141944429064,0.006904716175466461,0.007593554751451269,0.007163584799890842,0.01438245624157549,0.018485693917819575,0.0033224122867564336
0.2440385,0.0025389865707358063,0.003712233902744823,0.006908298367517347,0.0075765447043879336,0.007159253592444924,0.014342343520166934,0.018321418845288324,0.0033784593187055046
0.2445577,0.0026027762886963717,0.0037230722259838497,0.006912608665667765,0.007560025660578543,0.0071555121064498725,0.014301708178314136,0.01815701627732404,0.003435522658543844
0.2450769,0.0026673544529254053,0.0037339347143307616,0.0069176490407111425,0.007544001558728016,0.007152366425734263,0.014260554929826539,0.01799251080418062,0.003493603510259584
0.2455962,0.002732717252965637,0.0037448216701220878,0.006923421246289288,0.007528476185132914,0.007149822565088873,0.014218888619407379,0.01782792695654475,0.00355270285803092
0.2461154,0.0027988606568316527,0.0037557333973450993,0.006929926819021137,0.0075134531730356125,0.0071478864682560025,0.014176714222147016,0.017663289198845314,0.0036128214640237886
0.2466346,0.002865780409821229,0.003766670201274034,0.00693716707871373,0.007498936002053945,0.007146564005921295,0.014134036842961419,0.017498621922624958,0.003673959866241382
0.2471538,0.0029334720333848555,0.0037776323881053312,0.006945143128654644,0.007484927997685976,0.007145860973708853,0.014090861715974514,0.0173339494399757,0.0037361183764269895
0.2476731,0.003001930824054674,0.003788620264591958,0.006953855855985007,0.007471432330889495,0.00714578309018037,0.014047194203843238,0.017169295977040474,0.003799297078021607
0.2481923,0.0030711518524340546,0.003799634137676938,0.006963305932152239,0.007458452017735778,0.007146335994838984,0.014003039797024148,0.017004685667582443,0.0038634958241777553
0.2487115,0.003141129962249008,0.0038106743141262216,0.0069734938134415605,0.007445989919137133,0.007147525246138477,0.013958404112980594,0.016840142546623863,0.0039287142358309
0.2492308,0.003211859769462617,0.0038217411001610717,0.006984419741585309,0.007434048740647694,0.007149356319498434,0.013913292895329388,0.016675690544156387,0.003994951699829864
0.24975,0.0032833356614536424,0.0038328348010901745,0.006996083744449038,0.00742263103233689,0.007151834605325917,0.0138677120129259,0.016511353478924674,0.004062207367127594
0.2502692,0.0033555517962604586,0.0038439557209416944,0.0070084856367933395,0.0074117391887349535,0.0071549654070442135,0.01382166745888652,0.016347155052285227,0.004130480151033612
0.2507885,0.0034285021018914475,0.0038551041620955287,0.007021625021110289,0.007401375448849786,0.0071587539391291585,0.0137751653495473,0.016183118842142415,0.004199768725529496
0.2513077,0.003502180275702962,0.0038662804249160136,0.0070355012885333365,0.007391541896254437,0.007163205325153526,0.01372821192335761,0.016019268296963683,0.0042700715236486985
0.2518269,0.003576579783845962,0.0038774848073853336,0.007050113619819417,0.007382240459244384,0.007168324595839922,0.013680813539707707,0.01585562672987592,0.004341386735922016
0.2523462,0.0036516938607824047,0.0038887176047378807,0.007065460986402024,0.007373472911063774,0.007174116687122593,0.013632976677689259,0.015692217312845015,0.004413712308890004
0.2528654,0.0037275155088724436,0.003899979109095783,0.007081542151513896,0.007365240870199695,0.007180586438218533,0.013584707934788219,0.015529063070940543,0.004487045943683602
0.2533846,0.0038040374980334597,0.0039112696091058085,0.007098355671377928,0.007357545800743498,0.007187738589708223,0.013536014025509852,0.015366186876687667,0.00456138509467422
0.2539038,0.003881252365471935,0.003922589389577828,0.00711589989646489,0.00735038901281818,0.007195577781626338,0.013486901779936165,0.0152036114445082,0.004636726968194506
0.2544231,0.003959152415489179,0.003933938731124991,0.0071341729728164535,0.007343771663070722,0.007204108551562703,0.013437378142216445,0.015041359325252768,0.0047130685213310035
0.2549423,0.004037729719361903,0.0039453179098057544,0.007153172843432019,0.007337694755228267,0.007213335332773761,0.013387450168991896,0.01487945290082598,0.0047904064607898625
0.2554615,0.004116976115298609,0.0039567271967678765,0.007172897249717791,0.007332159140716997,0.007223262452304832,0.013337125027755473,0.014717914378906382,0.004868737241836743
0.2559808,0.004196883208472785,0.0039681668578944625,0.0071933437329964895,0.007327165519342514,0.007233894129123406,0.013286409995148211,0.014556765787762917,0.004948057067312018
0.2565,0.004277442371133872,0.003979637153452158,0.007214509636076109,0.007322714440030565,0.0072452344722636775,0.013235312455193266,0.01439602897116958,0.005028361886722349
0.2570192,0.004358644742796949,0.003991138337741599,0.007236392104876057,0.007318806301626897,0.0072572874789825605,0.0131838398974691,0.014235725583419925,0.005109647395409684
0.2575385,0.004440481230512086,0.0040026706587502495,0.007258988090109005,0.007315441353755054,0.007270057032927385,0.013131999915223215,0.014075877084443009,0.005191909033798701
0.2580577,0.004522942509214277,0.004014234357807771,0.007282294349016766,0.0073126196977309045,0.007283546902315491,0.013079800203427892,0.013916504735022319,0.005275141986723671
0.2585769,0.00460601902215484,0.004025829669244081,0.0073063074471584515,0.007310341287532698,0.007297760738126002,0.013027248556779484,0.013757629592119186,0.0053593411828357276
0.2590962,0.004689700981415142,0.0040374568200502725,0.0073310237602491665,0.007308605930825433,0.0073127020723040975,0.01297435286764272,0.013599272504302052,0.005444501294091453
0.2596154,0.004773978368503498,0.004049116029542538,0.00735643947604746,0.007307413290038338,0.007328374315978229,0.01292112112394149,0.013441454107282945,0.005530616735323687
0.2601346,0.004858840935036016,0.004060807509029282,0.007382550596289754,0.0073067628834942305,0.0073447807576908115,0.012867561406997498,0.01328419481956239,0.00561768166389542
0.2606538,0.004944278203502157,0.004072531461481615,0.007409352938669958,0.007306654086589492,0.007361924561642993,0.012813681889318123,0.013127514838183967,0.005705689979437618
0.2611731,0.005030279468115747,0.004084288081207437,0.007436842138862521,0.007307086133023408,0.007379808765954202,0.012759490832334842,0.012971434134599669,0.005794635323671803
0.2616923,0.00511683379575217,0.004096077553529328,0.007465013652587139,0.0073080581160755494,0.007398436280937249,0.012704996584093438,0.012815972450647172,0.005884511080318181
0.2622115,0.005203930026972403,0.004107900054466467,0.0074938627577134185,0.007309568989929868,0.007417809887389936,0.012650207576897346,0.012661149294640026,0.005975310375090068
0.2627308,0.005291556777134578,0.00411975575042078,0.00752338455640377,0.007311617571044161,0.007437932234904195,0.012595132324905386,0.012506983937571669,0.0060670260757753535
0.26325,0.005379702437593701,0.004131644797867528,0.007553573977292802,0.0073142025395634665,0.007458805840193891,0.012539779421685148,0.012353495409434177,0.006159650792405713
0.2637692,0.00546835517699015,0.004143567343050518,0.007584425777701491,0.007317322440775933,0.007480433085442465,0.012484157537723287,0.012200702495652523,0.006253176877514233
0.2642885,0.005557502942627574,0.004155523521682102,0.0076159345458844075,0.007320975686609649,0.007502816216671567,0.012428275417894008,0.012048623733635121,0.0063475964264820784
0.2648077,0.005647133461940745,0.004167513458648166,0.00764809470330823,0.007325160557168856,0.007525957342131846,0.012372141878887044,0.011897277409441345,0.006442901277974786
0.2653269,0.005737234244053965,0.00417953726771823,0.00768090050695986,0.007329875202307925,0.007549858430717035,0.012315765806596464,0.011746681554566665,0.006539083014468756
0.2658462,0.0058277925814305504,0.0041915950512608985,0.007714346051682499,0.007335117643241386,0.0075745213104024735,0.01225915615347164,0.011596853942846,0.006636132962868438
0.2663654,0.0059187955516139075,0.004203686899964809,0.007748425272538105,0.007340885774188287,0.007599947666709228,0.01220232193583186,0.01144781208747578,0.006734042195214707
0.2668846,0.006010230019060723,0.0042158128925653465,0.007783131947194755,0.00734717736404908,0.007626139041194997,0.012145272231146025,0.011299573238155138,0.006832801529484893
0.2674038,0.006102082637066744,0.0042279730955773415,0.007818459698337452,0.007353990058113169,0.007653096829973061,0.01208801617527896,0.011152154378346534,0.006932401530484864
0.2679231,0.006194339849785608,0.004240167563034016,0.007854401996100942,0.007361321379795232,0.00768082228226054,0.012030562959705934,0.011005572222656081,0.007032832510833579
0.2684423,0.006286987894341177,0.004252396336232432,0.007890952160523091,0.007369168732398347,0.007709316498957238,0.011972921828696918,0.010859843214333734,0.0071340845320404375
0.2689615,0.006380012803033796,0.004264659443485703,0.007928103364017343,0.007377529400901928,0.007738580431256329,0.011915102076472148,0.010714983522893393,0.0072361474056757665
0.2694808,0.006473400405640883,0.004276956899882188,0.007965848633862715,0.007386400553772413,0.007768614879288079,0.011857113044330559,0.010571009041852958,0.007339010694634755
0.27,0.006567136331812227,0.004289288707051905,0.008004180854709782,0.007395779244794584,0.00779942049079775,0.011798964117752582,0.010427935386594218,0.00744266371449509
0.2705192,0.006661206013560361,0.004301654852940376,0.008043092771100999,0.007405662414921357,0.007830997759858807,0.011740664723478884,0.010285777892342415,0.007547095534968503
0.2710385,0.0067555946878463235,0.004314055311590091,0.008082576990003683,0.0074160468941398185,0.007863347025622485,0.011682224326566591,0.010144551612265235,0.007652294981446382
0.2715577,0.006850287399261119,0.0043264900429297905,0.008122625983353957,0.0074269294033512704,0.007896468471104721,0.011623652427424545,0.010004271315690913,0.007758250636639573
0.2720769,0.006945269002803092,0.004338958992571684,0.008163232090609953,0.007438306556263046,0.007930362122011448,0.011564958558829129,0.009864951486445055,0.007864950842312405
0.2725962,0.007040524166751416,0.0043514620916167744,0.008204387521312641,0.007450174861289879,0.007965027845603167,0.01150615228292226,0.00972660632130571,0.007972383701110966
0.2731154,0.007136037375635824,0.004363999256468368,0.008246084357652736,0.007462530723462738,0.008000465349599703,0.01144724318819311,0.00958924972857617,0.008080537078485562
0.2736346,0.0072317929333026955,0.004376570388653895,0.008288314557042228,0.007475370446343094,0.008036674181125964,0.011388240886445149,0.00945289532677491,0.008189398604707266
0.2741538,0.007327774966077504,0.0043891753746551606,0.008331069954689218,0.0074886902339407636,0.00807365372569952,0.011329155009750213,0.009317556443442074,0.008298955676978415
0.2746731,0.007423967426023634,0.004401814085747124,0.008374342266174789,0.0075024861926336105,0.008111403206260769,0.011269995207391184,0.00918324611406178,0.00840919546163691
0.2751923,0.007520354094297493,0.004414486377845371,0.008418123090030703,0.0075167543330875095,0.008149921682246411,0.011210771142795029,0.009049977081099574,0.008520104896454115
0.2757115,0.0076169185845998445,0.004427192091362407,0.008462403910316791,0.007531490572175133,0.008189208048706903,0.011151492490457885,0.008917761793154245,0.00863167069302616
0.2762308,0.007713644346723204,0.004439931051072966,0.008507176099196925,0.0075466907348921836,0.008229261035468489,0.011092168932863928,0.008786612404223203,0.008743879339258505
0.27675,0.00781051467019513,0.004452703065988486,0.008552430919512586,0.007562350556269763,0.008270079206340413,0.011032810157399809,0.008656540773080574,0.008856717101943511
0.2772692,0.007907512688017178,0.00446550792924094,0.008598159527353065,0.0075784656832815845,0.008311660958367786,0.010973425853266447,0.008527558462767102,0.008970170029430827
0.2777885,0.00800462138049929,0.0044783454179762,0.008644352974621461,0.007595031676744744,0.00835400452113062,0.010914025708390108,0.008399676740190891,0.00908422395439027
0.2783077,0.008101823579189307,0.0044912152932571,0.008691002211595777,0.007612044013212798,0.008397107956089472,0.01085461940633464,0.008272906575837971,0.0091988644966669
0.2788269,0.008199101970897332,0.004504117299976317,0.00873809808948457,0.007629498086859971,0.008440969155978131,0.010795216623216827,0.008147258643591532,0.009314077066227848
0.2793462,0.008296439101814573,0.004517051166779223,0.008785631362976793,0.007647389211355392,0.008485585844243772,0.010735827024626662,0.008022743320658693,0.009429846866200475
0.2798654,0.008393817381726317,0.004530016605996789,0.00883359269278552,0.007665712621726317,0.008530955574535006,0.01067646026255443,0.007899370687603534,0.009546158896001305
0.2803846,0.008491219088318566,0.004543013313588666,0.008881972648185263,0.00768446347620936,0.008577075730238196,0.010617125972326277,0.0077771505284850995,0.009662997954555138
0.2809038,0.008588626371577878,0.004556040969096479,0.008930761709542583,0.007703636858088722,0.008623943524062464,0.010557833769550008,0.00765609233109899,0.009780348643603626
0.2814231,0.008686021258283817,0.004569099235607415,0.008979950270839672,0.007723227777520434,0.00867155599767371,0.010498593247072766,0.007536205287321127,0.009898195371102583
0.2819423,0.008783385656593395,0.0045821877597281135,0.009029528642190667,0.007743231173341582,0.008719910021377989,0.010439413971952196,0.007417498293552192,0.010016522354707152
0.2824615,0.008880701360716815,0.0045953061715689044,0.009079487052350545,0.007763641914863492,0.008769002293854473,0.010380305482442776,0.007299979951261203,0.01013531362534395
0.2829808,0.00897795005568372,0.004608454084738399,0.009129815651216566,0.0077844548036478944,0.008818829341938244,0.010321277284998908,0.007183658567626649,0.010254553030869158
0.2835,0.009075113322199114,0.004621631096348459,0.00918050451232237,0.007805664575265155,0.008869387520453109,0.010262338851296415,0.007068542156273627,0.0103742242398115
0.2840192,0.009172172641588058,0.00463483678702955,0.009231543635324973,0.00782726590103376,0.008920673012094652,0.01020349961527411,0.006954638438105433,0.010494310745198958
0.2845385,0.009269109400828155,0.004648070720956513,0.009282922948485048,0.007849253389740357,0.008972681827363679,0.010144768970197117,0.006841954842228026,0.010614795868467978
0.2850577,0.009365904897668762,0.0046613324458847655,0.009334632311140881,0.007871621589339857,0.009025409804550183,0.010086156265743586,0.006730498506965841,0.010735662763453923
0.2855769,0.00946254034583585,0.0046746214931969714,0.009386661516176597,0.007894364988635305,0.009078852609767932,0.010027670805116504,0.006620276280967399,0.010856894420461422
0.2860962,0.009558996880321283,0.004687937377960203,0.009439000292485185,0.007917478018937461,0.009133005737039717,0.009969321842182197,0.0065112947243991795,0.010978473670413158
0.2866154,0.009655255562755278,0.004701279598993621,0.009491638307426935,0.007940955055704262,0.009187864508433298,0.00991111857863712,0.006403560110226218,0.011100383189075632
0.2871346,0.009751297386860694,0.004714647638946681,0.009544565169283908,0.007964790420160496,0.00924342407424801,0.009853070161204463,0.006297078425577902,0.011222605501360285
0.2876538,0.009847103283987753,0.00472804096438785,0.009597770429710962,0.007988978380898227,0.009299679413252023,0.009795185678862057,0.006191855373197464,0.011345122985698343
0.2881731,0.0099426541287277,0.004741459025903837,0.009651243586183885,0.008013513155458533,0.009356625332970152,0.009737474160102915,0.006087896372973617,0.011467917878487662
0.2886923,0.010037930744603846,0.0047549012582092706,0.009704974084445142,0.00803838891189528,0.009414256470022194,0.00967994457022976,0.005985206563552825,0.011590972278609807
0.2892115,0.010132913909838318,0.0047683670802667645,0.009758951320947706,0.008063599770321615,0.009472567290511687,0.009622605808684775,0.005883790804030639,0.011714268152015513
0.2897308,0.010227584363192831,0.004781855895417286,0.00981316464529746,0.008089139804439946,0.009531552090465042,0.009565466706415768,0.00578365367572051,0.011837787336376644
0.29025,0.010321922809881638,0.004795367091520682,0.009867603362694688,0.00811500304305611,0.009591204996320966,0.009508536023279906,0.00568479948399847,0.011961511545802727
0.2907692,0.010415909927554751,0.0048089000411062205,0.009922256736375127,0.008141183471578424,0.009651519965470068,0.009451822445486107,0.005587232260222034,0.012085422375620049
0.2912885,0.010509526372349476,0.004822454101532984,0.009977113990051141,0.008167675033502282,0.00971249078684452,0.009395334583077125,0.005490955763721643,0.012209501307211294
0.2918077,0.010602752785008164,0.004836028615159897,0.010032164310353512,0.00819447163188095,0.00977411108155753,0.009339080967452307,0.005395973483862957,0.012333729712913586
0.2923269,0.010695569797060076,0.004849622909525201,0.0100873968492744,0.008221567130783232,0.009836374303592316,0.00928307004893196,0.005302288642178273,0.012458088860972785
0.2928462,0.010787958037065134,0.004863236297535181,0.01014280072661202,0.008248955356738695,0.009899273740540239,0.009227310194364187,0.005209904194565297,0.012582559920551795
0.2933654,0.010879898136917306,0.004876868077661918,0.010198365032417556,0.008276630100171175,0.009962802514387607,0.009171809684775,0.005118822833551483,0.012707123966790593
0.2938846,0.010971370738205252,0.00489051753414985,0.010254078829444794,0.008304585116821259,0.010026953582350631,0.009116576713062418,0.005029046990622144,0.012831761985915626
0.2944038,0.011062356498627853,0.004904183937230895,0.010309931155602893,0.008332814129158428,0.010091719737757911,0.00906161938173519,0.004940578838610475,0.012956454880396122
0.2949231,0.01115283609846215,0.004917866543347872,0.010365911026412733,0.00836131082778348,0.010157093610979792,0.009006945700696723,0.00485342029414769,0.013081183474144852
0.2954423,0.011242790247081174,0.004931564595385909,0.010422007437467299,0.008390068872821782,0.010223067670403797,0.008952563585074772,0.0047675730201714095,0.013205928517760729
0.2959615,0.011332199689519129,0.004945277322911516,0.010478209366896567,0.008419081895307892,0.01028963422345531,0.00889848085309743,0.0046830384284904415,0.013330670693810635
0.2964808,0.011421045213081255,0.004959003942418936,0.010534505777837468,0.008448343498561954,0.01035678541766259,0.008844705224015929,0.004599817682404135,0.013455390622147822
0.297,0.011509307653995764,0.004972743657583389,0.010590885620909476,0.008477847259558316,0.01042451324176515,0.008791244316074772,0.0045179116993744415,0.013580068865264179
0.2975192,0.011596967904105051,0.004986495659520735,0.010647337836696478,0.008507586730286714,0.010492809526864488,0.008738105644529709,0.004437321153748873,0.013704685933673574
0.2980385,0.011684006917593427,0.005000259127053125,0.010703851358235457,0.00853755543910639,0.010561665947616157,0.008685296619714018,0.004358046479532554,0.013829222291323606
0.2985577,0.011770405717748542,0.005014033226980108,0.010760415113512634,0.008567746892093454,0.010631074023462118,0.00863282454515355,0.004280087873207593,0.01395365836103313
0.2990769,0.011856145403753657,0.005027817114354693,0.010817018027967626,0.008598154574381808,0.010701025119902466,0.00858069661573096,0.004203445296598046,0.014077974529953135
0.2995962,0.01194120715750777,0.005041609932763774,0.010873649027006176,0.008628771951498,0.010771510449805507,0.008528919915899606,0.004128118479778769,0.014202151155048885
0.3001154,0.012025572250470684,0.0050554108146123305,0.010930297038521998,0.00865959247069029,0.010842521074755298,0.008477501417947562,0.004054106924026491,0.01432616856860149
0.3006346,0.01210922205053001,0.005069218881410782,0.01098695099542825,0.008690609562252203,0.010914047906435775,0.008426447980312264,0.003981409904811449,0.014450007083727475
0.3011538,0.012192138028887018,0.005083033244064864,0.011043599838199207,0.00872181664084083,0.01098608170805054,0.008375766345946199,0.003910026474827937,0.014573646999915188
0.3016731,0.012274301766958247,0.005096853003167377,0.011100232517422681,0.008753207106790005,0.01105861309577751,0.008325463140734122,0.003839955467062098,0.01469706860857708
0.3021923,0.012355694963289717,0.005110677249291213,0.01115683799636377,0.00878477434741853,0.011131632540257631,0.008275544871962174,0.0037711954978953163,0.014820252198617009
0.3027115,0.012436299440480459,0.005124505063282993,0.011213405253540486,0.008816511738333602,0.011205130368117,0.008226017926839257,0.0037037449702415383,0.014943178062011748
0.3032308,0.012516097152112039,0.005138335516556727,0.011269923285311834,0.008848412644729532,0.011279096763521713,0.008176888571070963,0.00363760207671686,0.015065826499405842
0.30375,0.012595070189680722,0.005152167671386851,0.011326381108478925,0.008880470422681919,0.011353521769764957,0.008128162947486256,0.0035727648028397014,0.015188177825718883
0.3042692,0.012673200789528773,0.0051660005812000365,0.011382767762899685,0.008912678420437446,0.011428395290885903,0.008079847074717147,0.0035092309302598777,0.015310212375764194
0.3047885,0.01275047133977129,0.005179833290865152,0.011439072314117671,0.008945029979699514,0.011503707093320069,0.008031946845931576,0.003446998040014855,0.015431910509877881
0.3053077,0.012826864387215007,0.005193664836980789,0.011495283856005487,0.008977518436909963,0.011579446807580822,0.007984468027619658,0.0033860635158114603,0.015553252619557065
0.3058269,0.012902362644265232,0.0052074942481598035,0.011551391513423147,0.009010137124527218,0.011655603929971755,0.007937416258433503,0.0033264245473313054,0.01567421913310613
0.3063462,0.012976948995817146,0.0052213205453103834,0.011607384444891726,0.009042879372301235,0.011732167824329657,0.007890797048080753,0.0032680781335581543,0.015794790521289705
0.3068654,0.01305060650612749,0.00523514274191317,0.0116632518452825,0.0090757385085457,0.011809127723797741,0.007844615776271964,0.0032110210861254914,0.015914947302991107
0.3073846,0.013123318425662665,0.005248959844294008,0.01171898294852175,0.009108707861408072,0.011886472732628687,0.007798877691721951,0.003155250032682518,0.016034670050874892
0.3079038,0.013195068197919168,0.0052627708518919025,0.011774567030311366,0.009141780760138118,0.011964191828017025,0.007753587911205093,0.0031007614202768394,0.016153939397052144
0.3084231,0.013265839466212258,0.00527657475752173,0.011829993410865365,0.009174950536355683,0.012042273861960252,0.007708751418664688,0.0030475515187521076,0.01627273603874702
0.3089423,0.013335616080428657,0.005290370547631266,0.01188525145766243,0.009208210525318533,0.012120707563148056,0.007664373064376308,0.0029956164241588855,0.016391040743963074
0.3094615,0.013404382103739065,0.0053041572025520345,0.011940330588214516,0.009241554067191205,0.01219948153887898,0.007620457564165138,0.002944952062177018,0.016508834357147697
0.3099808,0.013472121819266242,0.0053179336967434905,0.011995220272851598,0.009274974508315836,0.012278584277003983,0.007577009498677226,0.0028955541915477914,0.01662609780485287
0.3105,0.01353881973670432,0.005331698999030005,0.012049910037522595,0.009308465202486009,0.012358004147896395,0.0075340333127044915,0.002847418407514178,0.016742812101390427
0.3110192,0.013604460598885013,0.005345452072830117,0.01210438946661247,0.009342019512224665,0.012437729406447958,0.007491533314563321,0.002800540145267491,0.01685895835447984
0.3115385,0.013669029388286355,0.0053591918763775505,0.012158648205775457,0.009375630810067119,0.012517748194090886,0.007449513675526522,0.00275491468339879,0.016974517770886613
0.3120577,0.013732511333479571,0.005372917362933477,0.01221267596478433,0.00940929247985017,0.01259804854084603,0.007407978429308393,0.002710537147353422,0.017089471662049223
0.3125769,0.01379489191550966,0.005386627480989554,0.012266462520395541,0.009442997918008247,0.012678618367397471,0.007366931471602581,0.0026674025128870884,0.017203801449692645
0.3130962,0.013856156874205197,0.005400321174461357,0.012319997719230029,0.00947674053487749,0.012759445487193991,0.0073263765596724515,0.0026255056095218737,0.01731748867142651
0.3136154,0.01391629221441289,0.005413997382871871,0.012373271480669367,0.00951051375600864,0.012840517608578057,0.007286317311993565,0.0025848411240006965,0.017430514986325935
0.3141346,0.013975284212152292,0.005427655041524817,0.01242627379976684,0.009544311023489576,0.012921822336943117,0.007246757207947874,0.0025454036037386683,0.017542862180493123
0.3146538,0.014033119420686087,0.005441293081667719,0.012478994750172934,0.009578125797278392,0.013003347176920019,0.007207699587569181,0.0025071874602698705,0.017654512172597815
0.3151731,0.014089784676501255,0.0054549104306446695,0.012531424487074632,0.009611951556547881,0.013085079534593412,0.00716914765133937,0.0024701869726880916,0.0177654470193948
0.3156923,0.014145267105196329,0.005468506012038862,0.012583553250147796,0.009645781801042374,0.01316700671974906,0.007131104460034835,0.002434396291080071,0.017875648921216642
0.3162115,0.014199554127270001,0.005482078745805024,0.01263537136652186,0.009679610052447824,0.01324911594815287,0.007093572934622521,0.0023998094399497972,0.017985100227439946
0.3167308,0.014252633463806284,0.005495627548391916,0.012686869253755869,0.00971342985577611,0.01333139434386246,0.007056555856204972,0.0023664203216324097,0.0180937834419235
0.31725,0.014304493142051403,0.005509151332855108,0.012738037422824946,0.009747234780764537,0.013413828941571957,0.007020055866013727,0.0023342227196962487,0.018201681228416727
0.3177692,0.014355121500877715,0.005522649008960308,0.012788866481116106,0.009781018423291502,0.01349640668899072,0.006984075465450442,0.002303210302331596,0.018308776415936902
0.3182885,0.014404507196129939,0.005536119483277495,0.012839347135432297,0.009814774406809333,0.013579114449256515,0.006948617016175106,0.0022733766257246567,0.018415052004113718
0.3188077,0.014452639205849075,0.0055495616592661605,0.012889470195003572,0.009848496383795272,0.01366193900338373,0.006913682740240672,0.0022447151374153386,0.018520491168499926
0.3193269,0.014499506835369401,0.005562974437351985,0.012939226574504192,0.009882178037221554,0.013744867052747183,0.006879274720273424,0.002217219179637385,0.018625077265846918
0.3198462,0.014545099722284075,0.005576356714995253,0.012988607297074446,0.009915813082045513,0.013827885221602148,0.006845394899698351,0.0021908819926394637,0.018728793839344216
0.3203654,0.014589407841274877,0.005589707386751323,0.013037603497345979,0.009949395266720609,0.01391098005964132,0.00681204508300876,0.0021656967179858543,0.01883162462382198
0.3208846,0.014632421508801785,0.0056030253443235065,0.013086206424469317,0.009982918374729187,0.013994138044589413,0.006779226936079393,0.002141656401835447,0.018933553550915597
0.3214038,0.014674131387648191,0.005616309476608713,0.013134407445142273,0.010016376226137826,0.01407734558483612,0.006746941986522338,0.0021187539981978383,0.019034564754191418
0.3219231,0.014714528491317705,0.005629558669736301,0.013182198046637813,0.010049762679175945,0.014160589022108103,0.0067151916240850065,0.0020969823721653865,0.01913464257423247
0.3224423,0.014753604188278669,0.005642771807100656,0.013229569839829976,0.010083071631838405,0.01424385463418063,0.006683977101089565,0.0020763343031201366,0.0192337715636831
0.3229615,0.014791350206052708,0.005655947769388098,0.013276514562216296,0.010116297023512681,0.014327128637629442,0.006653299532913204,0.0020568024879145585,0.019331936492251154
0.3234808,0.014827758635143792,0.005669085434598797,0.013323024080935176,0.010149432836631158,0.014410397190623396,0.006623159898508617,0.002038379544025051,0.01942912235166644
0.324,0.014862821932804476,0.005682183678064456,0.013369090395776578,0.010182473098349009,0.014493646395758491,0.006593559040964114,0.0020210580126771576,0.019525314360594168
0.3245192,0.014896532926636187,0.005695241372462544,0.013414705642184258,0.010215411882248018,0.0145768623029338,0.006564497668102692,0.0020048303619414564,0.01962049796950201
0.3250385,0.014928884818020426,0.00570825738782792,0.01345986209424781,0.010248243310066662,0.014660030912269832,0.006535976353119466,0.001989688989799107,0.019714658865479517
0.3255577,0.014959871185377834,0.005721230591562656,0.013504552167682643,0.01028096155345665,0.014743138177069745,0.0065079955352567494,0.001975626227176086,0.019807782977008588
0.3260769,0.014989485987252088,0.0057341598484449115,0.013548768422795976,0.010313560835766098,0.014826170006823817,0.006480555520516136,0.001962634340945186,0.019899856478683572
0.3265962,0.01501772356521561,0.00574704402063766,0.01359250356743694,0.010346035433849423,0.014909112270257376,0.006453656482406899,0.001950705536894903,0.019990865795879515
0.3271154,0.015044578646594284,0.005759881967698068,0.013635750459928738,0.010378379679903989,0.014991950798422457,0.006427298462730073,0.0019398319626643457,0.020080797609366957
0.3276346,0.015070046347008597,0.005772672546588263,0.013678502111980732,0.0104105879633335,0.0150746713878333,0.0064014813723976055,0.0019300057106433287,0.020169638859871553
0.3281538,0.01509412217272903,0.005785414611688229,0.013720751691578268,0.0104426547326381,0.015157259803645804,0.006376204992285923,0.0019212188208367967,0.02025737675257665
0.3286731,0.015116802022843963,0.005798107014811487,0.013762492525847896,0.010474574497331047,0.015239701782881034,0.0063514689741232914,0.0019134632836927464,0.02034399876156693
0.3291923,0.015138082191238788,0.005810748605224215,0.013803718103895576,0.010506341829881787,0.015321983037692739,0.006327272841410285,0.001906731042892814,0.02042949263421117
0.3297115,0.01515795936838538,0.005823338229668404,0.013844422079615415,0.010537951367685188,0.015404089258678835,0.00630361599037267,0.001901013998104731,0.020513846395482087
0.3302308,0.015176430642941573,0.005835874732389673,0.013884598274466352,0.010569397815056582,0.015486006118236653,0.006280497690945992,0.0018963040076958961,0.02059704835221127
0.33075,0.015193493503160647,0.005848356955170303,0.013924240680214096,0.010600675945252231,0.015567719273961722,0.006257917087791112,0.0018925928914073505,0.020679087097277195
0.3312692,0.015209145838111225,0.005860783737368086,0.013963343461635575,0.010631780602514686,0.01564921437208963,0.00623587320133994,0.0018898724329874997,0.02075995151372426
0.3317885,0.015223385938708379,0.0058731539159615365,0.014001900959183036,0.010662706704142474,0.015730477050980542,0.006214364928870585,0.0018881343827849553,0.02083963077881087
0.3323077,0.015236212498557139,0.005885466325602001,0.014039907691604844,0.010693449242583442,0.015811492944645705,0.006193391045611176,0.001887370460299902,0.02091811436798456
0.3328269,0.015247624614609837,0.005897719798673181,0.014077358358519894,0.010724003287550965,0.015892247686315277,0.006172950205871542,0.0018875723566934227,0.020995392058782134
0.3333462,0.015257621787639047,0.005909913165358547,0.014114247842942471,0.01075436398816223,0.015972726912046563,0.00615304094420201,0.0018887317372542455,0.021071453934652894
0.3338654,0.015266203922527996,0.005922045253717152,0.014150571213754196,0.01078452657509769,0.0160529162643718,0.006133661676578617,0.0018908402438224013,0.021146290388702926
0.3343846,0.015273371328380407,0.005934114889768299,0.014186323728119699,0.010814486362780717,0.016132801395984386,0.006114810701614121,0.001893889497169305,0.0212198921273584
0.3349038,0.015279124718451836,0.0059461208975855745,0.014221500833842432,0.010844238751576437,0.01621236797346241,0.006096486201794269,0.001897871099333785,0.021292250173945978
0.3354231,0.015283465209904472,0.005958062099400742,0.014256098171656998,0.010873779230008665,0.01629160168102823,0.006078686244738867,0.0019027766359135973,0.021363355872188322
0.3359423,0.015286394323387452,0.005969937315717983,0.014290111577454198,0.010903103376993805,0.01637048822434273,0.006061408784487205,0.001908597678311972,0.02143320088961274
0.3364615,0.015287913982444624,0.005981745365438964,0.014323537084434988,0.010932206864090533,0.016449013334332855,0.006044651662807376,0.0019153257859387436,0.02150177722087105
0.3369808,0.01528802651275159,0.005993485065999223,0.014356370925189318,0.010961085457763952,0.01652716277105087,0.006028412610529062,0.0019229525083656201,0.021569077190968785
0.3375,0.0152867346411838,0.006005155233516342,0.014388609533695865,0.010989735021662944,0.01660492232756384,0.006012689248899319,0.0019314693874351533,0.021635093458401918
0.3380192,0.015284041494717357,0.006016754682950419,0.014420249547238528,0.01101815151890938,0.016682277833871627,0.0059974790909608595,0.0019408679593229553,0.02169981901819921
0.3385385,0.015279950599164063,0.006028282228277417,0.014451287808235586,0.011046331014397814,0.016759215160851795,0.005982779542952306,0.0019511397565527173,0.02176324720486836
0.3390577,0.015274465877742215,0.0060397366826759735,0.014481721365977356,0.011074269677104315,0.01683572022422955,0.005968587905729851,0.001962276309963566,0.021825371695244143
0.3395769,0.015267591649484507,0.006051116858728292,0.01451154747826822,0.011101963782402998,0.0169117789885709,0.005954901376209727,0.001974269150629297,0.021886186511236715
0.3400962,0.015259332627484364,0.0060624215686357315,0.014540763612968802,0.011129409714388774,0.01698737747129712,0.005941717048830868,0.001987109811729026,0.021945686022478178
0.3406154,0.015249693916982063,0.0060736496244496885,0.014569367449434016,0.011156603968204734,0.017062501746718587,0.005929031917037182,0.0020007898303688013,0.022003864948865443
0.3411346,0.015238681013291925,0.006084799838318378,0.01459735687984267,0.011183543152372574,0.017137137950085948,0.005916842874778824,0.0020153007493537395,0.022060718362997472
0.3416538,0.015226299799571942,0.00609587102275003,0.014624730010414233,0.01121022399112432,0.0172112722816566,0.005905146718031931,0.002030634118910256,0.022116241692504878
0.3421731,0.015212556544437173,0.006106861990893019,0.014651485162508332,0.011236643326733622,0.0172848910107743,0.005893940146336235,0.0020467814983579943,0.022170430722269804
0.3426923,0.015197457899418336,0.006117771556833385,0.014677620873602748,0.011262798121844839,0.01735798047995974,0.005883219764350053,0.002063734457731064,0.022223281596534014
0.3432115,0.015181010896267036,0.0061285985359101494,0.014703135898145937,0.011288685461798132,0.017430527109009775,0.005872982083422148,0.0020814845793482363,0.022274790820893075
0.3437308,0.01516322294410915,0.006139341745048806,0.014728029208280482,0.011314302556948859,0.017502517399102916,0.005863223523179989,0.0021000234593317535,0.022324955264174565
0.34425,0.015144101826447954,0.006150000003113296,0.014752299994434274,0.011339646744979568,0.01757393793690869,0.00585394041313397,0.0021193427090744382,0.022373772160198067
0.3447692,0.015123655698018611,0.006160572131276761,0.014775947665776602,0.011364715493202953,0.01764477539869828,0.005845128994297114,0.0021394339566548092,0.022421239109414914
0.3452885,0.015101893081495755,0.0061710569534113155,0.014798971850536542,0.011389506400854165,0.01771501655445371,0.00583678542081978,0.0021602888481999315,0.022467354080425734
0.3458077,0.01507882286405598,0.0061814532964970526,0.014821372396181169,0.011414017201370882,0.01778464827197284,0.005828905761638874,0.0021818990491957358,0.022512115411373806
0.3463269,0.015054454293797138,0.006191759991050465,0.014843149369451105,0.011438245764659575,0.017853657520967257,0.005821486002141079,0.002204256245744572,0.02255552181121249
0.3468462,0.015028796976016431,0.006201975871572438,0.014864303056250985,0.011462190099346322,0.017922031377150007,0.005814522045839625,0.0022273521457697736,0.02259757236084518
0.3473654,0.015001860869349406,0.006212099777015914,0.014884833961392549,0.011485848355010538,0.01798975702631015,0.005808009716064164,0.0022511784801670207,0.022638266514136127
