Time,Rectus Femoris right,Rectus Femoris left,Hamstrings right,Hamstrings left,TibilaisÂ Anterior right,TibilaisÂ Anterior left,Gastrocnemius right,Gastrocnemius left
0.0,0.0012115012680070677,0.003488474636183786,0.002452439728038057,-0.0006335663938832715,0.00042439345691954366,0.009687228720810407,0.000525165178488201,4.810355948836601e-05
0.0005192,0.0012780413774754185,0.003527947139297075,0.002493373919778881,-0.0005952076773878745,0.0005780454056208635,0.010103038536176992,0.0005596208216484997,7.644815525806325e-05
0.0010385,0.0013455494780043099,0.0035671473237215176,0.0025343467471128094,-0.0005568018450392445,0.0007311021418155857,0.010518075307752455,0.0005942324973433498,0.00010478915734435443
0.0015577,0.001414028032952839,0.003606067375539063,0.002575352329846087,-0.0005183525717737949,0.0008835427915233957,0.01093227525014143,0.0006290034141096441,0.00013312312437940016
0.0020769,0.001483479370862571,0.0036446995319798564,0.0026163847657378896,-0.0004798635267743543,0.0010353466824406237,0.011345574679845236,0.0006639369063896982,0.0001614466185828457
0.0025962,0.0015539056839931017,0.0036830360842704545,0.0026574381322719406,-0.00044133837237833454,0.0011864933517761755,0.011757910035621098,0.000699036435802935,0.00018975620676524158
0.0031154,0.0016253090268690676,0.0037210693804687763,0.0026985064884458626,-0.00040278076299728795,0.0013369625539947643,0.012169217898808886,0.0007343055923751282,0.00021804846132704095
0.0036346,0.0016976913148383243,0.0037587918282834735,0.0027395838765775643,-0.0003641943440487515,0.0014867342684608755,0.012579435013610281,0.0007697480957237465,0.00024631996125255065
0.0041538,0.0017710543226410883,0.0037961958978755014,0.0027806643241279597,-0.0003255827509012485,0.0016357887069769583,0.012988498307305328,0.0008053677961979455,0.00027456729309823793
0.0046731,0.001845399682989923,0.0038332741246397592,0.0028217418455392927,-0.0002869496078332917,0.0017841063212094208,0.013396344910391683,0.0008411686759717599,0.0003027870519748182
0.0051923,0.0019207288851605284,0.003870019111964786,0.0028628104440883533,-0.00024829852700719904,0.00193166780999613,0.013802912176632334,0.0008771548500890574,0.00033097584252256767
0.0057115,0.0019970432735933697,0.003906423533968561,0.002903864113753845,-0.00020963310745850474,0.002078454126529282,0.014208137702998122,0.0009133305674588275,0.0003591302798793164
0.0062308,0.0020743440465062313,0.003942480138208556,0.002944896841097179,-0.00017095693410171863,0.002224446485407706,0.014611959349492129,0.0009497002117994106,0.0003872469906405858
0.00675,0.0021526322545178064,0.003978181748364247,0.0029859026071559634,-0.00013227357675315289,0.0023696263695529205,0.015014315258843681,0.0009862683025303157,0.000415322613811336
0.0072692,0.0022319087992824687,0.004013521266890335,0.0030268753893494364,-9.358658917149652e-05,0.0025139755369835088,0.015415143876060354,0.001023039495610328,0.00044335380174879274
0.0077885,0.0023121744321364,0.004048491677638908,0.0030678091633951116,-5.489950811677051e-05,0.002657476027442677,0.01581438396782686,0.001060018584320671,0.00047133722109582817
0.0083077,0.002393429752755276,0.0040830860484488115,0.0031086979052358495,-1.621585242824171e-05,0.0028001101688741085,0.016211974641740255,0.0010972104999920445,0.0004992695537043746
0.0088269,0.002475675207823752,0.0041172975337004465,0.0031495355929765856,2.2460877878181263e-05,0.0029418605837414563,0.01660785536537112,0.0011346203126744259,0.0005271474975483599
0.0093462,0.002558911089717017,0.004151119376834218,0.0031903162088299185,6.112720249260226e-05,0.0030827101951870343,0.017001965985140845,0.0011722532317485724,0.0005549677676256683
0.0098654,0.002643137535194687,0.004184544912830856,0.0032310337410697693,9.97796616734268e-05,0.00322264223302549,0.017394246745005136,0.0012101146064781977,0.0005827270968486514
0.0103846,0.002728354524107301,0.0042175675706518576,0.0032716821859923167,0.00013841481708892387,0.003361640239568482,0.017784638304934083,0.0012482099265018227,0.0006104222369227435
0.0109038,0.002814561878115684,0.004250180875638368,0.0033122555498834505,0.00017702925263775058,0.0034996880752766624,0.01817308175917915,0.0012865448222633042,0.0006380499592127601
0.0114231,0.0029017592594234266,0.004282378451866885,0.003352747850992015,0.0002156195752481808,0.003636769924235474,0.018559518654317465,0.0013251250653800505,0.000665607055596484
0.0119423,0.0029899461695227485,0.00431415402446026,0.003393153121508155,0.00025418241565582306,0.003772870299451454,0.01894389100706387,0.001363956568947928,0.000693090339305158
0.0124615,0.0030791219479540358,0.004345501421852612,0.0034334654095461046,0.0002927144291596502,0.003907974047965851,0.019326141321841253,0.0014030453877818703,0.0007204966457505192
0.0129808,0.0031692857710793605,0.00437641457800682,0.0034736787811307677,0.00033121229635619224,0.004042066355782439,0.01970621260809994,0.001442397718591215,0.0007478228333380209
0.0135,0.0032604366508703748,0.004406887534583404,0.0035137873221874655,0.0003696727238517634,0.004175132752606488,0.020084048397376923,0.0014820199000888377,0.000775065784265899
0.0140192,0.0033525734337110057,0.004436914443059671,0.0035537851405342148,0.0004080924449526128,0.004307159116391929,0.02045959276008593,0.001521918413033196,0.0008022224053097626
0.0145385,0.0034456947992154577,0.004466489566798067,0.0035936663678759165,0.0004464682203328961,0.004438131677693826,0.020832790322029296,0.0015620998802024783,0.0008292896285924103
0.0150577,0.003539799259062072,0.004495607283062777,0.0036334251617998544,0.0004847968386803709,0.004568037023823364,0.021203586280622685,0.0016025710663001296,0.0008562644123385954
0.0155769,0.0036348851558436414,0.004524262084983548,0.003673055707771934,0.0005230751173197229,0.004696862102802624,0.02157192642082393,0.00164333887779112,0.0008831437416144748
0.0160962,0.0037309506619348006,0.004552448583465795,0.003712552221133115,0.0005612999028134264,0.004824594227116641,0.02193775713075768,0.001684410362668442,0.0009099246290514806
0.0166154,0.0038279937783771137,0.004580161509045942,0.003751908949095535,0.0005994680715400447,0.004951221077260434,0.022301025417028133,0.0017257927101494406,0.0009366041155543588
0.0171346,0.003926012333782483,0.0046073957136910015,0.0037911201727378247,0.0006375765302498711,0.005076730705078987,0.02266167891971271,0.0017674932503017192,0.0009631792709931118
0.0176538,0.0040250039832555,0.004634146172541393,0.0038301802089990965,0.0006756222165978173,0.005201111536898483,0.0230196659270302,0.001809519453598485,0.0009896471948785915
0.0181731,0.0041249662073353545,0.00466040798559602,0.003869083412671112,0.0007136020996534627,0.005324352376447316,0.023374935389677366,0.0018518789304032993,0.0010160050170214844
0.0186923,0.004225896310957955,0.004686176379338713,0.003907824178388113,0.0007515131803881825,0.005446442407565648,0.023727436934828258,0.0018945794303842753,0.0010422498981744513
0.0192115,0.004327791422438913,0.0047114467083052385,0.003946396942613823,0.0007893524921392896,0.00556737119670243,0.024077120879790654,0.0019376288418578378,0.0010683790306572063
0.0197308,0.004430648492478096,0.0047362144565901865,0.003984796185625164,0.0008271171010511387,0.005687128695198948,0.024423938245314206,0.0019810351910621985,0.0010943896389643691
0.02025,0.0045344642931864874,0.004760475239293166,0.004023016433492328,0.000864804106493168,0.005805705241358028,0.02476784076854526,0.0020248066413607437,0.0011202789803559832
0.0207692,0.004639235417136071,0.004784224803903892,0.0040610522600548985,0.000902410641454879,0.005923091562298021,0.02510878091562393,0.0020689514923755772,0.0011460443454306465
0.0212885,0.004744958276433471,0.00480745903162585,0.004098898288893807,0.0009399338729177934,0.006039278775590741,0.02544671189391989,0.0021134781790514887,0.0011716830586812532
0.0218077,0.004851629101818102,0.004830173938638366,0.004136549195298907,0.0009773710022044555,0.006154258390682549,0.02578158766390445,0.002158395270650636,0.0011971924790333687
0.0223269,0.004959243941785534,0.0048523656772969884,0.0041739997082319924,0.0010147192653045848,0.006268022310097869,0.026113362950657304,0.002203711469678235,0.0012225700003662713
0.0228462,0.0050677986617367905,0.004874030537272124,0.004211244612285037,0.001051975933178515,0.0063805628304246294,0.02644199325500713,0.002249435610739539,0.0012478130520166971
0.0233654,0.00517728894315427,0.004895164946625892,0.004248278749633435,0.0010891383120380845,0.006491872643081272,0.026767434864305828,0.0022955766593283915,0.0012729190992653192
0.0238846,0.005287710282804958,0.004915765472827191,0.004285097021983972,0.0011262037436051667,0.006601944834865268,0.027089644862836482,0.0023421437105476104,0.0012978856438059917
0.0244038,0.005399057991971588,0.0049358288237049104,0.004321694392517251,0.0011631696053480585,0.00671077288828343,0.02740858114185548,0.0023891459877614773,0.0013227102241977788
0.0249231,0.005511327195712375,0.004955351848339216,0.004358065887824265,0.001200033310695961,0.0068183506816648105,0.027724202409269618,0.0024365928411805866,0.0013473904162997917
0.0254423,0.005624512832149944,0.004974331537890817,0.004394206599836761,0.0012367923092318003,0.006924672489057579,0.02803646819894916,0.002484493746379314,0.00137192383368885
0.0259615,0.005738609651790007,0.0049927650263681045,0.004430111687751066,0.001273444086863653,0.007029732979911881,0.028345338879678182,0.002532858302746168,0.001396308128059981
0.0264808,0.005853612216870361,0.005010649591332064,0.004465776379944956,0.0013099861659750455,0.00713352721855119,0.02865077566374363,0.002581696231867275,0.0014205409896097638
0.027,0.005969514900740761,0.005027982654538928,0.004501195975887194,0.001346416105554407,0.007236050663434979,0.02895274061516463,0.002631017375843276,0.0014446201474025329
0.0275192,0.0060863118872741505,0.005044761782520576,0.004536365848039308,0.0013827315013039676,0.007337299166215836,0.029251196657563896,0.002680831695539901,0.0014685433697194346
0.0280385,0.006203997170309774,0.005060984687102847,0.004571281443749184,0.0014189299857284001,0.007437268970594331,0.02954610758168338,0.0027311492687725485,0.0014923084643903364
0.0285577,0.00632256455312866,0.005076649225862003,0.004605938287136039,0.0014550092282035157,0.007535956710975071,0.029837438052546798,0.0027819802884252293,0.001515913279108576
0.0290769,0.006442007647961934,0.00509175340251976,0.004640331980966267,0.0014909669350253198,0.007633359410927445,0.030125153616272084,0.002833335060504315,0.0015393557017285315
0.0295962,0.006562319875532412,0.00510629536727738,0.004674458208519677,0.001526800849439728,0.0077294744814546176,0.030409220706536826,0.0028852240021275616,0.0015626336605459932
0.0301154,0.006683494464629913,0.005120273417089384,0.004708312735445623,0.0015625087516532498,0.00782429971907436,0.030689606650699915,0.0029376576394489905,0.0015857451245613007
0.0306346,0.006805524451720705,0.005133685995877472,0.0047418914116085275,0.0015980884588249243,0.007917833303715302,0.03096627967558243,0.0029906466055202347,0.001608688103725211
0.0311538,0.006928402680591507,0.005146531694685279,0.004775190172922342,0.001633537825039791,0.008010073796432208,0.031239208912910675,0.003044201638089064,0.001631460649167462
0.0316731,0.0070521218020285215,0.005158809251774596,0.004808205043173548,0.0016688547412641727,0.00810102013694392,0.031508364404424206,0.0030983335773358362,0.001654060853407984
0.0321923,0.0071766742735320105,0.0051705175526637415,0.004840932135832364,0.0017040371352830463,0.008190671640997545,0.03177371710665146,0.003153053363548699,0.0016764868505507126
0.0327115,0.007302052359066979,0.005181655630108769,0.004873367655851864,0.0017390829716197789,0.008279027997562503,0.032035238895355644,0.003208372034738429,0.0016987368164599363
0.0332308,0.007428248128850544,0.005192222664028281,0.004905507901454802,0.0017739902514385042,0.008366089265858117,0.032292902569653364,0.0032643007241938467,0.0017208089689191193
0.03375,0.007555253459176538,0.005202217981372597,0.0049373492659079005,0.0018087570124294362,0.008451855872218392,0.03254668185580846,0.0033208506579787927,0.0017427015677721315
0.0342692,0.007683060032277904,0.005211641055938063,0.0049688882392833885,0.0018433813286774054,0.008536328606797686,0.03279655141070346,0.0033780331523717098,0.0017644129150468392
0.0347885,0.007811659336227391,0.00522049150812726,0.005000121410207548,0.001877861310513915,0.008619508620120956,0.033042486824991224,0.003435859611248886,0.0017859413550610327
0.0353077,0.00794104266487707,0.00522876910465588,0.005031045467595991,0.001912195104353025,0.00870139741948228,0.033284464625929315,0.003494341523412451,0.0018072852745107193
0.0358269,0.008071201117837181,0.005236473758206992,0.005061657202375376,0.0019463808925113705,0.0087819968651953,0.0335224622798998,0.0035534904598642043,0.0018284431025408553
0.0363462,0.008202125600494868,0.005243605527033428,0.005091953509191257,0.001980416893012617,0.008861309166699203,0.03375645819461732,0.003613318071026349,0.001849413310798643
0.0368654,0.008333806824073432,0.0052501646145089904,0.005121931388101731,0.002014301359376661,0.008939336878523928,0.03398643172102823,0.0036738360839101984,0.0018701944134695636
0.0373846,0.008466235305732726,0.005256151368629187,0.005151587946256519,0.0020480325803938775,0.009016082896118213,0.034212363154903676,0.0037350562992339207,0.0018907849672963495
0.0379038,0.008599401368711372,0.0052615662814621935,0.005180920399561091,0.0020816088798847115,0.009091550451544151,0.034434233738129545,0.003796990588490408,0.0019111835715811124
0.0384231,0.008733295142511492,0.005266409988550727,0.005209926074325395,0.0021150286164449026,0.00916574310904188,0.03465202565969632,0.003859650890966351,0.001931388868170865
0.0389423,0.008867906563126624,0.005270683268265488,0.005238602408896722,0.0021482901831766338,0.00923866476046804,0.03486572205639227,0.003923049210713646,0.0019513995414266823
0.0394615,0.009003225373313432,0.005274387041110833,0.0052669469552761895,0.002181392007405893,0.00931031962061168,0.03507530701320344,0.00398719761347427,0.0019712143181767647
0.0399808,0.009139241122907827,0.005277522368983308,0.005294957380718292,0.0022143325503863457,0.009380712222391346,0.03528076556342427,0.0040521082235597874,0.0019908319676537126
0.0405,0.009275943169186007,0.005280090454383641,0.005322631469312967,0.0022471103069900134,0.009449847411937195,0.035482083688482366,0.004117793220686645,0.0020102513014163543
0.0410192,0.009413320677270944,0.005282092639582785,0.005349967123549567,0.002279723805385064,0.009517730343562127,0.03567924831748115,0.004184264836768428,0.0020294711732565026
0.0415385,0.009551362620584817,0.005283530405742597,0.005376962365862136,0.002312171606701026,0.009584366474626035,0.035872247326463845,0.004251535352666227,0.0020484904790910446
0.0420577,0.009690057781347931,0.0052844053719917055,0.005403615340155382,0.002344452304681745,0.009649761560297449,0.036061069537402096,0.00431961709489824,0.0020673081568397837
0.0425769,0.009829394751124673,0.0052847192944570996,0.0054299243133107385,0.002376564525326429,0.009713921648216814,0.03624570471691247,0.004388522432309738,0.0020859231862894573
0.0430962,0.009969361931417191,0.005284474065251995,0.0054558876766719385,0.0024085069265191114,0.009776853073065736,0.03642614357470425,0.004458263772704464,0.002104334588944362
0.0436154,0.010109947534307521,0.005283671711420478,0.005481503947509534,0.0024402781976469,0.009838562451046463,0.03660237776176192,0.004528853559438546,0.002122541427864008
0.0441346,0.010251139583148843,0.005282314393839489,0.005506771770463846,0.002471877059207357,0.009899056674275897,0.0367743998682663,0.004600304267977981,0.0021405428074882217
0.0446538,0.010392925913306565,0.0052804044060786905,0.005531689918965791,0.002503302262405375,0.009958342905098375,0.03694220342125832,0.004672628402420729,0.0021583378734501167
0.0451731,0.010535294172949895,0.005277944173218823,0.005556257296635066,0.0025345525887399164,0.010016428570321454,0.03710578288204981,0.004745838491984435,0.002175925812377337
0.0456923,0.010678231823894517,0.005274936250629134,0.005580472938655142,0.0025656268495810037,0.010073321355378886,0.03726513364338538,0.00481994708746079,0.002193305851681974
0.0462115,0.010821726142497025,0.005271383322704474,0.005604336013124517,0.0025965238857373536,0.010129029198424924,0.037420252026359554,0.004894966757637547,0.0022104772593395444
0.0467308,0.01096576422060168,0.005267288201562633,0.0056278458223836285,0.002627242567015096,0.01018356028436407,0.03757113527709311,0.004970910085689147,0.0022274393436573937
0.04725,0.011110332966540164,0.00526265382570247,0.005651001804316847,0.0026577817917680163,0.010236923038820303,0.03771778156317239,0.005047789665536945,0.0022441914530328924
0.0477692,0.011255419106184899,0.005257483258623397,0.005673803533628912,0.0026881404864398037,0.010289126122049769,0.03786018996985537,0.005125618098179988,0.0022607329757017643
0.0482885,0.011401009184056468,0.0052517796874067425,0.0056962507230951965,0.0027183176050987936,0.010340178422800913,0.03799836049604832,0.005204407987997293,0.00227706333947688
0.0488077,0.011547089564485578,0.005245546421259568,0.0057183432247851565,0.0027483121289656968,0.010390089052125937,0.03813229405005657,0.005284171939022549,0.002293182011477842
0.0493269,0.011693646432829954,0.005238786890021524,0.005740081031258332,0.0027781230659348253,0.010438867337147472,0.038261992445112865,0.005364922551192141,0.0023090884978516782
0.0498462,0.011840665796746476,0.005231504642635338,0.005761464276732301,0.0028077494500893104,0.010486522814784235,0.03838745839468668,0.005446672416567382,0.00232478234348495
0.0503654,0.011988133487518744,0.005223703345581629,0.005782493238221955,0.002837190341210804,0.010533065225439472,0.03850869550757747,0.005529434115531771,0.002340263131707576
0.0508846,0.012136035161440288,0.005215386781278719,0.005803168336649458,0.002866444824284138,0.010578504506655912,0.038625708282795004,0.0056132202129641085,0.002355530483988658
0.0514038,0.01228435630125358,0.0052065588464481226,0.005823490137924276,0.0028955120089974207,0.010622850786740915,0.038738502104229855,0.005698043254388229,0.0023705840596246115
0.0519231,0.012433082217644999,0.005197223550446427,0.005843459353992564,0.002924391029238041,0.010666114378365529,0.03884708323511709,0.005783915762100142,0.002385423555419885
0.0524423,0.012582198050795971,0.005187385013564223,0.005863076843855244,0.0029530810425850494,0.01070830577214109,0.03895145881229645,0.005870850231273316,0.002400048705360589
0.0529615,0.012731688771990417,0.005177047465292797,0.005882343614553988,0.002981581229798383,0.010749435630176935,0.039051636840272644,0.005958859126042877,0.0024144592802813466
0.0534808,0.01288153918527864,0.0051662152425593095,0.005901260822124313,0.0030098907943053926,0.010789514779622731,0.03914762618507963,0.006047954875569501,0.0024286550875256743
0.054,0.013031733929197759,0.0051548927879311824,0.005919829772514955,0.003038008961685143,0.010828554206198873,0.03923943656795277,0.006138149870083777,0.002442635970600209
0.0545192,0.013182257478548662,0.005143084647790475,0.005938051922472608,0.0030659349791509376,0.010866565047718319,0.03932707855881309,0.006229456456911825,0.002456401808823079
0.0550385,0.013333094146229445,0.005130795470478994,0.0059559288803910865,0.0030936681150315034,0.010903558587603172,0.03941056356956744,0.0063218869364829655,0.0024699525169667187
0.0555577,0.013484228085125232,0.005118030004414938,0.0059734624071239315,0.003121207658251254,0.010939546248399287,0.039489903847228766,0.006415453558320203,0.0024832880448954204
0.0560769,0.013635643290054227,0.005104793096181819,0.0059906544167594,0.0031485529178100417,0.010974539585292115,0.039565112466860376,0.0065101685170142806,0.0024964083771979117
0.0565962,0.013787323599769809,0.005091089688590457,0.0060075069773567824,0.0031757032222627913,0.011008550279626984,0.03963620332434843,0.006606043948182061,0.002509313532815237
0.0571154,0.013939252699018426,0.005076924818714833,0.006024022311642912,0.0032026579191993727,0.011041590132436985,0.039703191129006755,0.006703091924409988,0.00252200356466422
0.0576346,0.014091414120652913,0.005062303615902622,0.006040202797667706,0.0032294163747250775,0.011073671057981651,0.03976609139601814,0.00680132445118341,0.002534478559256771
0.0581538,0.014243791247800907,0.005047231299761298,0.006056050969417506,0.0032559779729420253,0.011104805077299572,0.039824920438715945,0.006900753462802524,0.002546738636315299
0.0586731,0.014396367316087828,0.005031713178120763,0.00607156951738497,0.0032823421154318014,0.011135004311778147,0.03987969536070989,0.007001390818285671,0.0025587839483844905
0.0591923,0.014549125415913976,0.005015754644973546,0.006086761289094189,0.0033085082207396236,0.0111642809767437,0.03993043404785933,0.007103248297260708,0.0025706146804396935
0.0597115,0.014702048494785281,0.004999361178393711,0.0061016292895796935,0.003334475723860306,0.011192647375075184,0.03997715516009727,0.007206337595845082,0.0025822310494921542
0.0602308,0.014855119359697267,0.004982538338435691,0.006116176681817953,0.00336024407572627,0.011220115890844663,0.040019878123108026,0.0073106703225152255,0.0025936333041913355
0.06075,0.01500832067957195,0.00496529176501428,0.00613040678710998,0.003385812742697838,0.011246698982987705,0.04005862311986085,0.007416257993965853,0.0026048217244245457
0.0612692,0.015161634987747412,0.004947627175767068,0.006144323085413613,0.0034111812060560413,0.011272409179006787,0.0400934110820019,0.007523112030959695,0.0026157966209141023
0.0617885,0.015315044684519845,0.004929550363900548,0.006157929215624072,0.003436348961498172,0.01129725906871071,0.04012426368110624,0.007631243754168194,0.00262655833481225
0.0623077,0.015468532039737849,0.0049110671960211705,0.006171228975801426,0.003461315518636292,0.011321261297992938,0.04015120331979155,0.00774066438000368,0.0026371072372940387
0.0628269,0.015622079195448738,0.004892183609952563,0.006184226323343618,0.0034860804004989217,0.011344428562651788,0.040174253122694535,0.007851385016443552,0.0026474437291483435
0.0633462,0.015775668168596536,0.004872905612540138,0.006196925375103688,0.003510643143036135,0.011366773602255258,0.04019343692731125,0.007963416658846968,0.0026575682403672213
0.0638654,0.01592928085377129,0.004853239277444294,0.006209330407449847,0.003535003294628293,0.011388309194053382,0.040208779274701824,0.008076770185764559,0.002667481229733752
0.0643846,0.016082899026009286,0.004833190742923366,0.0062214458562670095,0.0035591604155986896,0.011409048146940876,0.0402203054000602,0.008191456354741654,0.0026771831844085202
0.0649038,0.016236504343643668,0.004812766209607489,0.006233276316898378,0.0035831140777303995,0.011429003295472922,0.04022804122314902,0.008307485798115468,0.0026866746195148635
0.0654231,0.016390078351204974,0.0047919719382644695,0.006244826544025663,0.003606863863787632,0.011448187493936885,0.040232013338600055,0.008424869018806678,0.0026959560777230275
0.0659423,0.01654360248237104,0.004770814247558755,0.006256101451486516,0.0036304093670419275,0.011466613610482792,0.04023224900608012,0.00854361638610583,0.0027050281288333424
0.0664615,0.016697058062965755,0.0047492995118045105,0.0062671061120277505,0.00365375019080354,0.011484294521315379,0.04022877614032247,0.008663738131454905,0.0027138913693585585
0.0669808,0.016850426314006163,0.004727434158713837,0.006277845756992941,0.0036768859479583927,0.011501243104950494,0.04022162330102337,0.008785244344224457,0.002722546422105443
0.0675,0.017003688354797524,0.004705224667141065,0.006288325775943011,0.0036998162605110085,0.011517472236538564,0.04021081968260375,0.00890814496748673,0.0027309939357557456
0.0680192,0.017156825206076018,0.004682677564824059,0.006298551716208516,0.0037225407591338464,0.011532994782257769,0.040196395103835526,0.009032449793785187,0.0027392345844466292
0.0685385,0.017309817793198807,0.0046597994261234465,0.006308529282372414,0.003745059082723502,0.011547823593779497,0.04017837999733225,0.00915816846090103,0.002747269067350656
0.0690577,0.017462646949381305,0.004636596869760614,0.006318264335682223,0.003767370877964249,0.011561971502808582,0.04015680539890411,0.009285310447617302,0.0027550981082553948
0.0695769,0.017615293418981517,0.004613076556555317,0.006327762893390648,0.0037894757988994046,0.011575451315700657,0.04013170293677692,0.009413885069481294,0.0027627224551427317
0.0700962,0.01776773786083145,0.0045892451871637355,0.006337031128023812,0.003811373506511004,0.011588275808158922,0.040103104820675195,0.009543901474565996,0.0027701428797679284
0.0706154,0.017919960851615558,0.004565109499817749,0.006346075366576414,0.0038330636683082714,0.011600457720012508,0.04007104383076912,0.009675368639231335,0.0027773601772384756
0.0711346,0.01807194288929621,0.004540676268066234,0.006354902089633153,0.003854545957925366,0.011612009750078513,0.040035553306485304,0.00980829536388588,0.0027843751655927773
0.0716538,0.018223664396586143,0.0045159522985191314,0.006363517930415897,0.0038758200547288684,0.011622944551109708,0.039996667135181345,0.009942690268749655,0.0027911886853786757
0.0721731,0.01837510572446777,0.004490944428595105,0.006371929673756165,0.0038968856434355025,0.011633274724829803,0.039954419740684526,0.01007856178961861,0.002797801599231852
0.0726923,0.01852624715575915,0.0044656595242735676,0.006380144254992703,0.0039177424137405645,0.011643012817058044,0.03990884607169546,0.010215918173631227,0.0028042147914541086
0.0732115,0.01867706890872634,0.00444010447785192,0.0063881687587942285,0.003938390059957549,0.011652171312924873,0.039859981590058095,0.010354767475037729,0.002810429167591573
0.0737308,0.018827551140741746,0.0044142862057088275,0.006396010417907694,0.003958828280669466,0.011660762632180273,0.039807862258898,0.010495117550972313,0.0028164456540128915
0.07425,0.018977673951988173,0.004388211646074385,0.006403676611832783,0.003979056778392336,0.011668799124596299,0.03975252453063133,0.010636976057228879,0.0028222651974875073
0.0747692,0.019127417389208073,0.004361887756807997,0.006411174865423617,0.003999075259251366,0.011676293065465313,0.039694005334846974,0.010780350444040753,0.0028278887647641524
0.0752885,0.0192767614494978,0.004335321513184829,0.006418512847418921,0.00401888343267027,0.011683256651195338,0.03963234206606492,0.010925247951864973,0.0028333173421496963
0.0758077,0.019425686084146566,0.0043085199056916625,0.0064256983689020535,0.0040384810110742,0.011689701995003875,0.039567572571373916,0.01107167560717176,0.0028385519350885473
0.0763269,0.019574171202520002,0.00428148993783299,0.006432739381692387,0.004057867709606733,0.01169564112271152,0.039499735137952144,0.011219640218239818,0.00284359356774281
0.0768462,0.01972219667598818,0.004254238623948203,0.006439643976669524,0.00407704324586134,0.011701085968636657,0.03942886848047488,0.011369148370958138,0.0028484432825734303
0.0773654,0.019869742341897943,0.00422677298704067,0.006446420382031864,0.004096007339627733,0.011706048371592406,0.03935501172841396,0.011520206424634954,0.0028531021399225633
0.0778846,0.020016788007589426,0.0041991000566195345,0.00645307696149097,0.004114759712653508,0.011710540070986958,0.03927820441323422,0.011672820507814478,0.002857571217597381
0.0784038,0.020163313454456468,0.0041712268665550015,0.006459622212403198,0.004133300088421449,0.011714572703028343,0.039198486455492614,0.011826996514102047,0.0028618516104555376
0.0789231,0.020309298442050563,0.004143160452947865,0.006466064763840084,0.0041516281919428384,0.011718157797034556,0.039115898151846316,0.011982740097998275,0.002865944429992497
0.0794423,0.02045472271222792,0.004114907852013999,0.0064724133745989515,0.0041697437495671185,0.011721306771849889,0.039030480161976314,0.01214005667074287,0.0028698508039309047
0.0799615,0.020599565993339113,0.004086476097984518,0.006478676931155317,0.004187646488808188,0.01172403093236822,0.03894227349543315,0.012298951396168703,0.0028735718758122037
0.0804808,0.020743808004460677,0.004057872221022265,0.006484864445558691,0.004205336138187616,0.011726341466163956,0.03885131949841184,0.012459429186566694,0.0028771088045906777
0.081,0.020887428459667984,0.004029103245155316,0.0064909850532734546,0.004222812427095034,0.011728249440231105,0.038757659840463345,0.012621494698562014,0.0028804627642301157
0.0815192,0.02103040707234842,0.004000176186228157,0.006497048010966534,0.004240075085665935,0.011729765797831027,0.03866133650115072,0.01278515232900214,0.002883634943303287
0.0820385,0.021172723559553953,0.003971098049871199,0.006503062694243672,0.00425712384467711,0.011730901355449158,0.03856239175665861,0.012950406210857319,0.0028866265445944106
0.0825577,0.02131435764639187,0.003941875829489277,0.006509038595336107,0.004273958435459913,0.011731666799860974,0.03846086816636485,0.01311726020913409,0.0028894387847047966
0.0830769,0.02145528907045254,0.003912516504269771,0.0065149853207395565,0.004290578589831531,0.011732072685307434,0.03835680855938345,0.013285717916802728,0.0028920728936618293
0.0835962,0.021595497586272935,0.0038830270372109898,0.006520912588807414,0.004306984040044416,0.011732129430780076,0.03825025602108769,0.013455782650739573,0.002894530114531464
0.0841154,0.021734962969834796,0.003853414373171437,0.006526830227300088,0.0043231745187540084,0.01173184731741592,0.038141253879622146,0.013627457447685443,0.0028968117030344124
0.0846346,0.021873665023096338,0.0038236854369406094,0.00653274817089243,0.004339149759004825,0.011731236486002427,0.038029845692412134,0.013800745060221428,0.002898918927166203
0.0851538,0.022011583578556673,0.0037938471313319435,0.006538676458641115,0.004354909494235021,0.011730306934592675,0.037916075232679036,0.013975647952763376,0.002900853066821299
0.0856731,0.022148698503851948,0.0037639063352985463,0.006544625231413865,0.004370453458299443,0.011729068516231045,0.0377999864759699,0.014152168297576503,0.002902615413421481
0.0861923,0.02228498970638231,0.0037338699020723117,0.006550604729282336,0.004385781385511234,0.011727530936789604,0.03768162358670969,0.014330307970811543,0.0029042072695487278
0.0867115,0.022420437137968673,0.003703744657327016,0.006556625288880508,0.004400893010701975,0.011725703752915342,0.03756103090478432,0.014510068548563897,0.0029056299485828146
0.0872308,0.022555020799538257,0.0036735373973659584,0.006562697340730382,0.004415788069300402,0.011723596370088355,0.03743825293216261,0.014691451302957188,0.002906884774343862
0.08775,0.022688720745837554,0.0036432548873347043,0.006568831406536797,0.004430466297429676,0.011721218040791048,0.03731333431956506,0.014874457198252589,0.0029079730807400482
0.0882692,0.022821517090171575,0.0036129038594594474,0.006575038096453172,0.004444927432023201,0.01171857786278832,0.03718631985318699,0.015059086886985238,0.0029088962114207167
0.0887885,0.022953390009168025,0.0035824910113114892,0.006581328106319938,0.004459171210958949,0.011715684777518746,0.03705725444148358,0.015245340706129042,0.0029096555194350593
0.0893077,0.023084319747565047,0.0035520230040982964,0.006587712214877429,0.004473197373212262,0.011712547568596644,0.036926183102023925,0.015433218673291052,0.0029102523668965785
0.0898269,0.023214286623021184,0.0035215064609815773,0.006594201280954952,0.004487005659027085,0.011709174860424974,0.03679315094842115,0.015622720482936706,0.002910688124653504
0.0903462,0.02334327103094614,0.0034909479654227898,0.006600806240637789,0.004500595810105556,0.011705575116918809,0.03665820317734523,0.015813845502647136,0.0029109641719653636
0.0908654,0.023471253449350863,0.0034603540595564693,0.006607538104413854,0.004513967569815903,0.011701756640339178,0.036521385055625015,0.016006592769409807,0.002911081896185879
0.0913846,0.02359821444371544,0.003429731242591744,0.006614407954301734,0.004527120683418556,0.011697727570236918,0.03638274190744555,0.01620096098594384,0.0029110426924523684
0.0919038,0.023724134671873162,0.003399085969242386,0.006621426940961824,0.00454005489831038,0.011693495882506122,0.0362423191016466,0.01639694851706138,0.002910847963381831
0.0924231,0.023848994888909066,0.0033684246481857235,0.006628606280792225,0.004552769964286923,0.011689069388546705,0.03610016203912787,0.016594553386066548,0.0029104991187738414
0.0929423,0.023972775952071222,0.0033377536405507276,0.006635957253011071,0.004565265633822579,0.011684455734535503,0.03595631614036639,0.016793773271193545,0.0029099975753204203
0.0934615,0.024095458825693042,0.0033070792584355565,0.006643491196726849,0.004577541662368532,0.011679662400805273,0.035810826833050924,0.01699460550208565,0.002909344756323006
0.0939808,0.024217024586124833,0.003276407763454818,0.0066512195079982805,0.004589597808668342,0.011674696701330884,0.035663739539838354,0.017197047056316972,0.0029085420914166773
0.0945,0.024337454426672782,0.003245745365316791,0.006659153636885279,0.004601433835091042,0.01166956578332196,0.035515099666236345,0.017401094555958865,0.0029075910163017856
0.0950192,0.024456729662543416,0.0032150982204308337,0.00666730508449241,0.004613049507981526,0.011664276626921063,0.035364952588616716,0.017606744264193015,0.0029064929724831653
0.0955385,0.0245748317357916,0.0031844724305451627,0.006675685400006264,0.0046244445980280465,0.011658836045006506,0.03521334364236351,0.017813992081973318,0.002905249407017089
0.0960577,0.02469174222026986,0.0031538740414152142,0.006684306177728147,0.004635618880646547,0.011653250683098724,0.035060318110159513,0.018022833544738624,0.002903861772266139
0.0965769,0.024807442826576744,0.0031233090415027634,0.006693179054103417,0.004646572136381542,0.011647527019369068,0.03490592121041484,0.0182332638191785,0.002902331525662139
0.0970962,0.024921915407001918,0.0030927833607059915,0.006702315704748815,0.004657304151323227,0.01164167136474979,0.034750198085841004,0.018445277700054014,0.0029006601294772837
0.0976154,0.025035141960465513,0.0030623028691206767,0.006711727841479126,0.004667814717540459,0.011635689863143867,0.03459319379217353,0.018658869607075593,0.0028988490506035754
0.0981346,0.025147104637449035,0.0030318733758326636,0.006721427209334453,0.004678103633529235,0.01162958849173324,0.03443495328704611,0.01887403358183982,0.0028968997603406733
0.0986538,0.025257785744915114,0.0030015006277417534,0.006731425583609453,0.004688170704676263,0.011623373061383994,0.034275521419019205,0.01909076328482704,0.0028948137341922335
0.0991731,0.025367167751213157,0.0029711903084171268,0.006741734766885807,0.0046980157437372175,0.01161704921714683,0.03411494291676559,0.0193090519924616,0.0028925924516707982
0.0996923,0.025475233290967854,0.002940948036984393,0.0067523665860692314,0.0047076385713292574,0.011610622438851293,0.03395326237841554,0.01952889259423654,0.0028902373961112904
0.1002115,0.02558196516994751,0.0029107793670443494,0.0067633328894323285,0.004717039016437381,0.011604098041791987,0.03379052426106384,0.01975027758990448,0.0028877500544931445
0.1007308,0.025687346369909214,0.0028806897856235095,0.006774645543664518,0.004726216916934199,0.011597481177505068,0.033626772870440955,0.01997319908673659,0.002885131917271102
0.10125,0.02579136005341765,0.002850684712156462,0.006786316430930327,0.004735172120112682,0.011590776834633203,0.033462052350750275,0.020197648796851594,0.002882384478214685
0.1017692,0.025893989568634347,0.0028207694975000983,0.006798357445937204,0.004743904483231457,0.011583989839877105,0.03329640667467343,0.020423618034616925,0.00287950923425635
0.1022885,0.025995218454074168,0.0027909494229797494,0.006810780493014037,0.0047524138740721875,0.011577124859031722,0.03312987963354545,0.020651097714124402,0.002876507685348314
0.1028077,0.026095030443325562,0.002761229699467245,0.006823597483201456,0.004760700171508581,0.011570186398105137,0.032962514827701475,0.020880078346743,0.002873381334328028
0.1033269,0.026193409469731154,0.0027316154664909073,0.006836820331355037,0.004768763266086507,0.011563178804518237,0.03279435565699641,0.021110550038751535,0.0028701316867922482
0.1038462,0.026290339671025034,0.002702111791377463,0.006850460953262463,0.004776603060614701,0.011556106268383281,0.03262544531149887,0.021342502489054175,0.002866760250979635
0.1043654,0.026385805393923392,0.0026727236684258478,0.006864531262775735,0.004784219470765508,0.01154897282385955,0.03245582676236039,0.021575924986981736,0.0028632685376617888
0.1048846,0.026479791198664986,0.0026434560181128487,0.006879043168959512,0.004791612425685062,0.011541782350584345,0.03228554275286069,0.021810806410181884,0.00285965806004262
0.1054038,0.026572281863497922,0.002614313686330505,0.006894008573256669,0.004798781868612268,0.011534538575177541,0.03211463578962945,0.022047135222601013,0.002855930333665922
0.1059231,0.026663262389109328,0.0025853014436551815,0.006909439366672183,0.004805727757505949,0.01152724507281789,0.03194314813404499,0.022284899472560623,0.0028520868763310184
0.1064423,0.02675271800299442,0.0025564239846481906,0.00692534742697642,0.004812450065679399,0.011519905268889349,0.03177112179381039,0.02252408679093081,0.0028481292080163247
0.1069615,0.02684063416376139,0.0025276859271878274,0.0069417446159288606,0.004818948782441633,0.011512522440695594,0.03159859851470708,0.022764684389403385,0.0028440588508106697
0.1074808,0.026926996565368705,0.0024990918118326546,0.00695864277652329,0.00482522391374454,0.01150509971924089,0.03142561977252605,0.02300667905886694,0.002839877328852193
0.108,0.027011791141291524,0.002470646101215859,0.006976053730255426,0.0048312754828351324,0.011497640091075472,0.0312522267651769,0.023250057167886164,0.002835586168274629
0.1085192,0.027095004068614065,0.002442353179470476,0.006993989274413921,0.004837103530912061,0.011490146400203566,0.031078460404974598,0.023494804661287474,0.0028311868971607652
0.1090385,0.027176621772044995,0.0024142173516852757,0.00701246117939564,0.004842708117785542,0.011482621350052197,0.030904361311104134,0.023740907058853084,0.002826681045502877
0.1095577,0.02725663092785313,0.0023862428433910716,0.007031481186046074,0.004848089322539806,0.011475067505498846,0.030729969802263155,0.023988349454125677,0.0028220701451699037
0.1100769,0.02733501846772087,0.002358433800077245,0.007051061003025717,0.0048532472441971865,0.011467487294956108,0.030555325889482517,0.024237116513325913,0.0028173557298811604
0.1105962,0.027411771582512887,0.0023307942867382605,0.007071212304203166,0.0048581820023828855,0.011459883012511406,0.03038046926912488,0.024487192474385074,0.0028125393351863385
0.1111154,0.02748687772595783,0.002303328287449963,0.007091946726075707,0.004862893737989474,0.01145225682011978,0.03020543931606118,0.024738561146095434,0.00280762249845155
0.1116346,0.027560324618240605,0.0022760397049754726,0.007113275865218072,0.004867382613840124,0.011444610749847726,0.030030275077025048,0.024991205907380798,0.0028026067588511395
0.1121538,0.027632100249502897,0.0022489323604005067,0.0071352112757600665,0.004871648815349547,0.011436946706165947,0.02985501526414513,0.025245109706689826,0.0027974936573649718
0.1126731,0.02770219288324957,0.0022220099927979546,0.007157764466893775,0.004875692551181616,0.011429266468288887,0.029679698248655788,0.025500255061514623,0.0027922847367808897
0.1131923,0.02777059105965881,0.002195276258921547,0.007180946900411022,0.004879514053902601,0.011421571692558802,0.02950436205478663,0.02575662405803715,0.0027869815417020313
0.1137115,0.02783728359879404,0.0021687347329284487,0.007204769988271838,0.004883113580628968,0.011413863914872148,0.02932904435383173,0.02601419835090581,0.0027815856185586904
0.1142308,0.02790225960371609,0.002142388906130595,0.007229245090204619,0.004886491413668718,0.01140614455314611,0.02915378245839955,0.026272959163144507,0.0027760985156244054
0.11475,0.027965508463494288,0.0021162421867745784,0.0072543835113387245,0.004889647861155199,0.011398414909823141,0.028978613316844436,0.0265328872861963,0.0027705217830359917
0.1152692,0.028027019856115554,0.0020902978998498844,0.0072801964998701766,0.004892583257672393,0.011390676174411456,0.02880357350788069,0.026793963080103712,0.0027648569728172174
0.1157885,0.028086783751290825,0.0020645592869252423,0.007306695244761137,0.0048952979648706875,0.011382929426059594,0.02862869923538003,0.027056166473827376,0.0027591056389058405
0.1163077,0.028144790413158524,0.0020390295060128596,0.007333890873473747,0.004897792372072172,0.011375175636163096,0.028454026323352914,0.027319476965704664,0.002753269337183711
0.1168269,0.02820103040288498,0.0020137116314602735,0.007361794449738886,0.00490006689686456,0.011367415671001468,0.028279590211114376,0.027583873624049664,0.002747349625509652
0.1173462,0.028255494581162006,0.001988608653869559,0.007390416971360348,0.004902121985682872,0.011359650294403527,0.028105425948634643,0.02784933508789578,0.0027413480637548068
0.1178654,0.028308174110602147,0.0019637234800435944,0.007419769368054921,0.004903958114378101,0.01135188017043917,0.027931568192074933,0.028115839567882175,0.0027352662138401354
0.1183846,0.028359060458032118,0.001939058932959091,0.007449862499328765,0.004905575788772098,0.011344105866135712,0.027758051199508728,0.028383364847285226,0.0027291056397757306
0.1189038,0.028408145396685278,0.00191461775176607,0.0074807071523904645,0.004906975545198022,0.011336327854216873,0.02758490882682867,0.028651888283196317,0.0027228679077016308
0.1194231,0.028455421008293784,0.0018904025918134646,0.007512314040101091,0.0049081579510257415,0.011328546515862672,0.02741217452383922,0.028921386807847366,0.0027165545859297964
0.1199423,0.028500879685081124,0.0018664160247005225,0.00754469379896152,0.004909123605171655,0.011320762143488445,0.027239881330534902,0.02919183693008541,0.0027101672449869304
0.1204615,0.028544514131655586,0.0018426605383536653,0.00757785698713724,0.004909873138592466,0.011312974943541255,0.027068061873563802,0.029463214736997635,0.0027037074576578323
0.1209808,0.028586317366805242,0.0018191385371284815,0.007611814082520801,0.004910407214762484,0.011305185039311985,0.026896748362875714,0.02973549589568812,0.0026971767990289766
0.1215,0.028626282725195032,0.0017958523419365155,0.007646575480832012,0.0049107265301340484,0.011297392473761405,0.02672597258855413,0.03000865565520738,0.002690576846532012
0.1220192,0.028664403858966615,0.0017728041903965286,0.00768215149375592,0.0049108318145807284,0.011289597212358608,0.02655576591783114,0.030282668848635487,0.0026839091799868956
0.1225385,0.0287006747392418,0.001749996237009903,0.007718552347118561,0.0049107238318229305,0.011281799145930244,0.026386159292284075,0.030557509895319558,0.0026771753816443584
0.1230577,0.02873508965753058,0.001727430553359863,0.007755788179100434,0.004910403379835595,0.011273998093519182,0.026217183225212777,0.03083315280326593,0.002670377036227407
0.1235769,0.028767643227044882,0.0017051091283341873,0.007793869038487589,0.004909871291237658,0.011266193805251347,0.02604886779919638,0.0311095711716872,0.002663515730971553
0.1240962,0.028798330383919254,0.0016830338683710693,0.00783280488296027,0.004909128433662964,0.011258385965209625,0.02588124266382836,0.03138673819370405,0.0026565930556634583
0.1246154,0.028827146388339924,0.0016612065977277867,0.007872605577418928,0.004908175710112339,0.011250574194313788,0.025714337033628815,0.03166462665920142,0.002649610602677685
0.1251346,0.0288540868255836,0.0016396290587718293,0.007913280892347514,0.004907014059286496,0.011242758053205416,0.025548179686132738,0.03194320895783861,0.0026425699670112137
0.1256538,0.02887914760696753,0.001618302912294132,0.007954840502213834,0.004905644455899453,0.01123493704513679,0.025382798960153042,0.03222245708221239,0.0026354727463154203
0.1261731,0.0289023249707122,0.001597229737844052,0.007997293983906795,0.0049040679109721,0.011227110618862628,0.025218222754216875,0.03250234263117205,0.0026283205409251558
0.1266923,0.02892361548271793,0.0015764110340857381,0.008040650815210219,0.004902285472105536,0.011219278171533453,0.025054478525173698,0.03278283681328511,0.0026211149538845945
0.1272115,0.028943016037256467,0.0015558482191755489,0.00808492037331294,0.004900298223733803,0.011211439051589379,0.024891593286973508,0.03306391045045257,0.0026138575909694997
0.1277308,0.028960523857578493,0.0015355426311601797,0.008130111933354849,0.004898107287355613,0.011203592561652962,0.024729593609613465,0.03334553398167211,0.002606550060705579
0.12825,0.02897613649643772,0.001515495528395164,0.008176234667008444,0.004895713821744747,0.011195737961419792,0.024568505618251205,0.03362767746694795,0.002599193974382616
0.1287692,0.028989851836532132,0.0014957080899834167,0.00822329764109545,0.004893119023138786,0.011187874470545546,0.024408354992482877,0.03391031059134616,0.002591790946064088
0.1292885,0.02900166809086268,0.0014761814162334822,0.008271309816237984,0.0048903241254059015,0.01118000127152836,0.024249166965783907,0.03419340266919403,0.0025843425925920166
0.1298077,0.029011583803009874,0.0014569165291371533,0.008320280045543684,0.0048873304001895105,0.011172117512585573,0.024090966325110253,0.0344769226484222,0.002576850533586812
0.1303269,0.02901959784732854,0.0014379143728661175,0.008370217073324176,0.00488413915703059,0.011164222310524156,0.023933777410657803,0.03476083911504818,0.0025693163914418775
0.1308462,0.02902570942906096,0.001419175814287296,0.008421129533846165,0.004880751743467563,0.011156314753604273,0.02377762411577737,0.035045120297799985,0.0025617417913127265
0.1313654,0.029029918084368698,0.0014007016434965474,0.008473025950114364,0.004877169545113677,0.01114839390439561,0.023622529887042592,0.03532973407287839,0.0025541283611003654
0.1318846,0.029032223680283138,0.0013824925743704127,0.008525914732685427,0.004873393985711892,0.011140458802626143,0.023468517724467765,0.03561464796885684,0.0025464777314286643
0.1324038,0.029032626414574814,0.0013645492451355872,0.008579804178511964,0.004869426527167313,0.01113250846802301,0.023315610181872764,0.03589982917171777,0.002538791535615429
0.1329231,0.0290311268155414,0.0013468722189558045,0.008634702469815665,0.004865268669557302,0.011124541903145106,0.023163829367391787,0.03618524453002429,0.002531071409636886
0.1334423,0.029027725741714305,0.0013294619845358225,0.008690617672988517,0.0048609219511194166,0.01111655809620698,0.023013196944122617,0.036470860560226005,0.0025233189920852764
0.1339615,0.029022424381484148,0.0013123189567421866,0.00874755773752103,0.004856387948217406,0.011108556023893565,0.02286373413091306,0.0367566434520978,0.0025155359241193
0.1344808,0.029015224252645275,0.0012954434772404493,0.008805530494956334,0.004851668275285497,0.011100534654165096,0.02271546170328108,0.03704255907430995,0.0025077238494071352
0.135,0.02900612720185999,0.0012788358151485193,0.008864543657868974,0.004846764584751279,0.011092492949051656,0.02256839999446504,0.037328572980128115,0.0024998844140618278
0.1355192,0.028995135404043065,0.0012624961677058066,0.008924604818867194,0.004841678566937484,0.01108442986743656,0.022422568896600454,0.03761465041324161,0.002492019266568832
0.1360385,0.028982251361667155,0.0012464246609578187,0.008985721449617446,0.004836411949943023,0.011076344367827885,0.022277987862019673,0.03790075631371825,0.0024841300577055376
0.1365577,0.02896747790398969,0.001230621350455868,0.009047900899889882,0.004830966499503653,0.011068235411117344,0.02213467590467085,0.038186855324084404,0.0024762184404525894
0.1370769,0.028950818186201568,0.0012150862219715301,0.009111150396623526,0.004825344018832713,0.011060101963325707,0.02199265160165251,0.03847291179552853,0.00246828606989682
0.1375962,0.028932275688497905,0.0011998191922254955,0.009175477043009793,0.00481954634844236,0.011051942998333912,0.021851933094859933,0.03875888979422649,0.002460334603125601
0.1381154,0.02891185421507074,0.0011848201096304504,0.009240887817592996,0.004813575365945788,0.011043757500599058,0.021712538092739563,0.0390447531077869,0.0024523656991123984
0.1386346,0.028889557893023547,0.0011700887550476176,0.009307389573386414,0.004807432985840922,0.011035544467854319,0.021574483872147797,0.03933046525181427,0.002444381018593326
0.1391538,0.028865391171207073,0.0011556248425565873,0.009374989037002466,0.0048011211592761,0.011027302913791887,0.021437787280310306,0.03961598947658766,0.0024363822239344885
0.1396731,0.028839358818975994,0.0011414280202380655,0.009443692807795508,0.004794641873798235,0.011019031870727926,0.021302464736878066,0.03990128877385209,0.002428370978989936
0.1401923,0.028811465924865703,0.0011274978709691773,0.009513507357015727,0.00478799715308399,0.011010730392248659,0.021168532236076214,0.04018632588371985,0.0024203489489500745
0.1407115,0.02878171789518863,0.0011138339132309542,0.009584439026972725,0.004781189056654475,0.01100239755583676,0.021036005348941806,0.04047106330167852,0.0024123178001804173
0.1412308,0.028750120452549602,0.0011004356019276437,0.009656494030207378,0.00477421967957396,0.010994032465477355,0.0209048992256464,0.04075546328570211,0.002404279200050569
0.14175,0.02871667963428012,0.00108730232921747,0.009729678448670676,0.004767091152133117,0.010985634254243088,0.020775228597899396,0.04103948786346195,0.0023962348167533517
0.1422692,0.02868140179079158,0.0010744334253544648,0.009803998232908239,0.004759805639517275,0.010977202086857835,0.020647007781428056,0.04132309883963353,0.0023881863191139853
0.1427885,0.028644293583848138,0.0010618281595409862,0.00987945920124926,0.00475236534146016,0.010968735162238718,0.02052025067853001,0.041606257803296166,0.002380135376389236
0.1433077,0.02860536198476013,0.001049485740790532,0.009956067038998553,0.004744772491883592,0.010960232716016044,0.02039497078069396,0.04188892613542228,0.0023720836580564705
0.1438269,0.028564614272499206,0.001037405318800447,0.010033827297630337,0.004737029358523555,0.010951694023030938,0.020271181171284187,0.04217106501645419,0.002364032833592589
0.1443462,0.028522058031736717,0.0010255859848341204,0.010112745393982414,0.004729138242543066,0.010943118399810253,0.020148894528284313,0.042452635433966594,0.0023559845722428657
0.1448654,0.02847770115080677,0.0010140267726122631,0.010192826609449293,0.00472110147813225,0.010934505207018394,0.020028123127095617,0.04273359819041351,0.002347940542779783
0.1453846,0.028431551819595415,0.0010027266592128568,0.010274076089172976,0.004712921432095976,0.010925853851885612,0.019908878843385283,0.04301391391095912,0.0023399024132519787
0.1459038,0.028383618527357303,0.0009916845659793767,0.01035649884123006,0.004704600503429456,0.010917163790612187,0.01979117315597994,0.04329354305139207,0.002331871850723467
0.1464231,0.02833391006046102,0.000980899359436899,0.010440099735814038,0.004696141122882161,0.010908434530747952,0.019675017149800102,0.0435724459061233,0.0023238505210033153
0.1469423,0.02828243550006418,0.0009703698522157172,0.010524883504411723,0.004687545752510459,0.010899665633546392,0.01956042151883136,0.04385058261626749,0.00231584008836597
0.1474615,0.02822920421971948,0.0009600948039821073,0.010610854738972848,0.004678816885219333,0.010890856716292608,0.01944739656912835,0.04412791317780827,0.0023078422152624472
0.1479808,0.028174225882912716,0.0009500729223758938,0.010698017891071979,0.0046699570442935955,0.010882007454604395,0.019335952221847655,0.04440439744984757,0.002299858562022616
0.1485,0.028117510440534125,0.0009403028639544769,0.010786377271061836,0.004660968782919011,0.010873117584705735,0.019226098016305974,0.04467999516293876,0.002291890786548809
0.1490192,0.028059068128284362,0.0009307832351430016,0.01087593704721722,0.004651854683693772,0.010864186905672021,0.019117843113059942,0.044954665927503655,0.002283940544001016
0.1495385,0.027998909464016494,0.0009215125931903526,0.010966701244868777,0.004642617358130791,0.01085521528164637,0.019011196297004113,0.0452283692423327,0.0022760094864739244
0.1500577,0.02793704524501556,0.000912489447130676,0.011058673745525948,0.004633259446151269,0.010846202644026411,0.018906165980483683,0.045501064503168265,0.0022680992626660755
0.1505769,0.027873486545217055,0.0009037122587501319,0.011151858285988579,0.004623783615570055,0.010837148993620913,0.018802760206418603,0.04577271101137032,0.0022602115175414258
0.1510962,0.02780824471236573,0.0008951794435585945,0.011246258457446758,0.004614192561573258,0.010828054402775554,0.01870098665143598,0.04604326798266432,0.0022523478919836016
0.1516154,0.027741331365115796,0.000886889371766016,0.011341877704568614,0.00460448900618868,0.010818919017467074,0.01860085262900791,0.04631269455597074,0.0022445100224431497
0.1521346,0.027672758390073517,0.0008788403692631771,0.011438719324575897,0.004594675697749568,0.010809743059365004,0.01850236509259236,0.046580949802315946,0.002236699540578081
0.1526538,0.027602537938782958,0.0008710307186065526,0.011536786466307134,0.004584755410352252,0.010800526827860172,0.018405530638775314,0.04684799273382347,0.002228918072887985
0.1531731,0.027530682424655496,0.0008634586600070113,0.011636082129268149,0.004574730943308236,0.010791270702059149,0.01831035551041259,0.04711378231278495,0.002221167240341993
0.1536923,0.027457204519843605,0.0008561223923220818,0.011736609162669701,0.004564605120591278,0.010781975142743693,0.018216845599770142,0.047378277460809186,0.0022134486580008394
0.1542115,0.027382117152059515,0.0008490200740515105,0.011838370264451855,0.004554380790280039,0.010772640694294336,0.018125006451661665,0.04764143706804794,0.002205763934633276
0.1547308,0.027305433501339488,0.0008421498243358356,0.011941367980294736,0.0045440608239968395,0.010763267986577126,0.01803484326658232,0.04790322000249676,0.002198114672327073
0.15525,0.027227166996754752,0.000835509723957697,0.01204560470261517,0.004533648116343075,0.010753857736792516,0.017946360903837187,0.04816358511936886,0.002190502466094854
0.1557692,0.027147331313070323,0.0008290978163455999,0.012151082669548776,0.004523145584331853,0.010744410751285323,0.017859563884663275,0.04842249127053969,0.0021829289034750047
0.1562885,0.027065940367353093,0.0008229121085798456,0.01225780396391699,0.004512556166818386,0.010734927927314675,0.017774456395343717,0.04867989731406038,0.002175395564127884
0.1568077,0.02698300831553067,0.0008169505724003357,0.012365770512178532,0.004501882823928709,0.010725410254782856,0.017691042290312868,0.04893576212373716,0.0021679040194275746
0.1573269,0.026898549548902386,0.0008112111452159569,0.012474984083364818,0.004491128536487269,0.010715858817921958,0.017609325095251035,0.049190044598774366,0.0021604558320493863
0.1578462,0.026812578690603692,0.0008056917311152515,0.012585446287998894,0.0044802963054439765,0.010706274796937202,0.01752930801016757,0.04944270367347787,0.002153052555553319
0.1583654,0.0267251105920253,0.000800390201878076,0.01269715857699755,0.004469389151301249,0.010696659469605803,0.01745099391247102,0.049693698327015694,0.002145695733963675
0.1588846,0.02663616032918827,0.00079530439798795,0.012810122240556419,0.0044584101135416235,0.010687014212830172,0.017374385360025186,0.04994298759323189,0.0021383869013450025
0.1594038,0.026545743199076436,0.0007904321296447994,0.012924338407017925,0.004447362250056456,0.010677340504144343,0.01729948459418996,0.05019053057050967,0.002131127581374543
0.1599231,0.026453874715927573,0.0007857711777778032,0.013039808041722074,0.004436248636576233,0.010667639923172456,0.017226293542845963,0.0504362864316797,0.002123919286911361
0.1604423,0.026360570607484705,0.0007813192950580566,0.013156531945840039,0.004425072366102968,0.010657914153038264,0.017154813823402167,0.05068021443396917,0.0021167635195623456
0.1609615,0.026265846811208964,0.0007770742069107635,0.01327451075519062,0.0044138365483451705,0.01064816498172467,0.017085046745785804,0.050922273928987453,0.002109661769245302
0.1614808,0.026169719470455332,0.0007730336125266748,0.013393744939039576,0.004402544309155806,0.01063839430338232,0.017016993315413863,0.05116242437274464,0.002102615513749371
0.162,0.02607220493061231,0.0007691951858724889,0.013514234798881872,0.004391198789973693,0.010628604119586287,0.01695065423614542,0.05140062533569906,0.002095626218293037
0.1625192,0.025973319735206557,0.0007655565766999311,0.013635980467206937,0.0043798031472687335,0.010618796540539942,0.01688602991321402,0.05163683651283077,0.0020886953350800065
0.1630385,0.025873080621973348,0.0007621154115532346,0.013758981906247069,0.004368360551991383,0.01060897378622505,0.016823120456139144,0.05187101773373819,0.00208182430285323
0.1635577,0.025771504518893876,0.0007588692947747506,0.013883238906709151,0.004356874189026735,0.010599138187497234,0.01676192568161581,0.05210312897275565,0.0020750145464473475
0.1640769,0.025668608540200456,0.0007558158095084173,0.014008751086489822,0.004345347256653583,0.010589292187126053,0.01670244511638119,0.05233313035908969,0.0020682674763398395
0.1645962,0.02556440998235101,0.0007529525187008138,0.014135517889374291,0.004333782966008787,0.010579438340779068,0.016644678000057176,0.05256098218697181,0.002061584488201162
0.1651154,0.025458926319974404,0.0007502769660995309,0.014263538583718992,0.00432218454055725,0.01056957931794961,0.016588623287967726,0.052786644925825986,0.0020549669624441488
0.1656346,0.02535217520178842,0.00074778667724859,0.014392812261118255,0.0043105552155677795,0.010559717902828041,0.016534279653929805,0.05301007923044857,0.0020484162637729553
0.1661538,0.02524417444649211,0.0007454791604806492,0.01452333783505522,0.0042988982375950936,0.0105498569951164,0.016481645493016794,0.053231245951198825,0.0020419337407318397
0.1666731,0.025134942038634304,0.0007433519079057488,0.014655114039537183,0.004287216863968197,0.010539999610786364,0.01643071892429317,0.05345010614419785,0.0020355207252540745
0.1671923,0.025024496124459783,0.0007414023963963517,0.014788139427715445,0.00427551436228537,0.010530148882780425,0.016381497793519356,0.05366662108153381,0.002029178532211293
0.1677115,0.024912855007734495,0.0007396280885684503,0.01492241237048975,0.004263794009915989,0.0105203080616562,0.016333979675825505,0.05388075226147101,0.002022908458963566
0.1682308,0.02480003714555123,0.0007380264337585123,0.015057931055097326,0.004252059093509395,0.010510480516173724,0.016288161878353,0.05409246141866005,0.0020167117849105238
0.16875,0.02468606114411688,0.0007365948689960506,0.015194693483686576,0.004240312908511024,0.010500669733825727,0.01624404144286239,0.05430171053434649,0.0020105897710438166
0.1692692,0.02457094575452251,0.000735330819971604,0.015332697471875448,0.004228558758685965,0.010490879321310818,0.01620161514830649,0.054508461846575026,0.0020045436595012263
0.1697885,0.024454709868497473,0.0007342317019999222,0.015471940647294657,0.004216799955650157,0.0104811130049497,0.016160879513367494,0.05471267786038677,0.001998574673122741
0.1703077,0.024337372514148668,0.0007332949209781542,0.015612420448115906,0.0042050398184093575,0.010471374631044484,0.016121830798957175,0.054914321358007515,0.0019926840150089114
0.1708269,0.02421895285168614,0.0007325178743388487,0.015754134121565316,0.004193281672906014,0.010461668166181215,0.016084465010679554,0.05511335540902562,0.0019868728680818145
0.1713462,0.02409947016913607,0.0007318979519975743,0.015897078722422353,0.004181528851574164,0.010451997697475688,0.016048777901255674,0.05530974338055841,0.0019811423946489424
0.1718654,0.023978943878041968,0.0007314325372949751,0.016041251111504506,0.004169784692902435,0.010442367432762563,0.01601476497291059,0.05550344894740635,0.001975493735970329
0.1723846,0.023857393509154903,0.0007311190079330728,0.0161866479541381,0.004158052541005211,0.010432781700727749,0.015982421479722855,0.055694436102194364,0.001969928011829217
0.1729038,0.023734838708113496,0.0007309547369056276,0.016333265718615774,0.004146335745202023,0.010423244950984028,0.015951742429937094,0.05588266916549931,0.001964446320106562
0.1734231,0.023611299231114106,0.0007309370934223697,0.01648110067464124,0.004134637659605212,0.010413761754089902,0.015922722588240144,0.05606811279596241,0.0019590497363596517
0.1739423,0.02348679494057179,0.0007310634438269181,0.016630148891762092,0.0041229616427158845,0.010404336801511682,0.015895356478001436,0.05625073200038504,0.00195373931340512
0.1744615,0.023361345800772385,0.0007313311525082076,0.01678040623779143,0.0041113110570281716,0.010394974905528868,0.015869638383478102,0.056430492143805924,0.0019485160809066195
0.1749808,0.023234971873516072,0.0007317375828052472,0.016931868377219116,0.004099689268641772,0.010385680999082983,0.015845562351985407,0.056607358959557284,0.001943381044967422
0.1755,0.023107693313752783,0.0007322800979050337,0.017084530769613422,0.00408809964688277,0.01037646013557001,0.01582312219603317,0.05678129855929695,0.0019383351877281959
0.1760192,0.02297953036520994,0.00073295606173344,0.01723838866801377,0.004076545563932666,0.010367317488576703,0.015802311495429055,0.056952277443013385,0.0019333794669702175
0.1765385,0.022850503356013074,0.0007337628398389036,0.017393437117315332,0.004065030394465549,0.010358258351560875,0.015783123599349875,0.05712026250899985,0.001928514815724269
0.1770577,0.02272063269430001,0.0007346978002687429,0.01754967095264634,0.004053557515293299,0.010349288137475885,0.015765551628382227,0.0572852210637935,0.0019237421418854602
0.1775769,0.022589938863829487,0.0007357583144379394,0.017707084797739046,0.004042130305018717,0.01034041237833934,0.0157495884765339,0.05744712083207515,0.0019190623278342199
0.1780962,0.02245844241958514,0.0007369417579902316,0.017865673063295496,0.004030752143696397,0.010331636724746036,0.0157352268132175,0.057605929966525,0.001914476230063688
0.1786154,0.022326163983375863,0.0007382455116513727,0.01802542994534925,0.004019426412501169,0.010322966945325078,0.01572245908520767,0.057761617057629444,0.0019099846788137266
0.1791346,0.022193124239433606,0.0007396669620744113,0.01818634942362442,0.0040081564934039155,0.010314408926141033,0.015711277518573378,0.057914151143433706,0.001905588477711758
0.1796538,0.02205934393000958,0.0007412035026768588,0.018348425259893286,0.003996945768854499,0.010305968670038978,0.015701674120586442,0.05806350171923504,0.0019012884034206284
0.1801731,0.021924843850969825,0.0007428525344696145,0.018511650996333787,0.003985797621471551,0.010297652295933277,0.015693640681607605,0.05820963874721114,0.0018970852052936848
0.1806923,0.021789644847390998,0.0007446114668775251,0.01867601995388833,0.0039747154337388185,0.010289466038039876,0.015687168776951286,0.058352532665978424,0.0018929796050372553
0.1812115,0.021653767809157096,0.0007464777185514567,0.018841525230625426,0.003963702587707762,0.010281416245051907,0.015682249768730172,0.05849215440007448,0.0018889722963807286
0.1817308,0.021517233666557868,0.0007484487181717591,0.01900815970010607,0.003952762464706077,0.01027350937925838,0.015678874807680793,0.058628475369358814,0.0018850639447544396
0.18225,0.021380063385889304,0.000750521905243004,0.019175916009757037,0.0039418984450517594,0.010265752015605723,0.015677034834971303,0.05876146749832588,0.0018812551869755699
0.1827692,0.02124227796505664,0.000752694730879882,0.019344786579253637,0.003931113907772347,0.010258150840701917,0.01567672058399278,0.05889110322532383,0.0018775466309422775
0.1832885,0.02110389842918006,0.0007549646585841458,0.01951476359891471,0.003920412230328911,0.010250712651762858,0.015677922582135396,0.059017355511672615,0.0018739388553362585
0.1838077,0.020964945826203174,0.0007573291650124935,0.019685839028112828,0.003909796788344354,0.010243444355500595,0.015680631152550896,0.05914019785067473,0.0018704324093339402
0.1843269,0.020825441222504234,0.0007597857407352886,0.01985800459370271,0.0038992709553355254,0.01023635296695297,0.015684836415902733,0.059259604276512,0.0018670278123265108
0.1848462,0.020685405698509893,0.0007623318909860148,0.020031251788470848,0.0038888381024486593,0.010229445608254152,0.015690528292105203,0.05937554937302211,0.0018637255536489864
0.1853654,0.020544860344311452,0.0007649651364013682,0.020205571869609234,0.003878501598197599,0.010222729507345514,0.015697696502052865,0.0594880082823485,0.0018605260923185158
0.1858846,0.02040382625528335,0.0007676830137518821,0.020380955857216047,0.003868264808204247,0.01021621199662627,0.015706330569341457,0.05959695671345729,0.0018574298567821121
0.1864038,0.020262324527703966,0.0007704830766629908,0.020557394532826043,0.003858131094940687,0.010209900511543264,0.015716419821981513,0.059702370950515005,0.001854437244673995
0.1869231,0.02012037625437894,0.0007733628963264289,0.02073487843797343,0.00384810381747241,0.010203802589119248,0.015727953394105713,0.059804227861120406,0.0018515486225827143
0.1874423,0.019978002520267324,0.0007763200622018699,0.020913397872789966,0.00383818633120211,0.010197925866419013,0.01574092022767091,0.05990250490438386,0.0018487643258282157
0.1879615,0.01983522439811116,0.000779352182708706,0.021092942894641004,0.003828381987613544,0.010192278078952578,0.0157553090741557,0.059997180138847174,0.0018460846582490046
0.1884808,0.019692062944069128,0.0007824568859078711,0.021273503316802257,0.0038186941340149824,0.010186867059014693,0.01577110849625435,0.06008823223023684,0.0018435098919995585
0.189,0.019548539193354787,0.0007856318201736207,0.021455068707179965,0.003809126113281824,0.010181700733959832,0.015788306869567854,0.06017564045904353,0.001841040267358125
0.1895192,0.01940467415588013,0.0007888746548551885,0.021637628387077043,0.003799681263597965,0.010176787124411849,0.0158068923842931,0.06025938472792123,0.0018386759925450382
0.1900385,0.019260488811904918,0.0007921830809282527,0.021821171430007766,0.00379036291819554,0.010172134342407366,0.015826853046911064,0.06033944556889979,0.0018364172435516811
0.1905577,0.019116004107692375,0.0007955548116361457,0.022005686660563396,0.0037811744050926257,0.010167750589472014,0.015848176681875104,0.06041580415040545,0.0018342641639802189
0.1910769,0.018971240951171642,0.0007989875831207452,0.02219116265333137,0.003772119046828516,0.010163644154628563,0.015870850933300425,0.06048844228408489,0.001832216864894228
0.1915962,0.018826220207607505,0.0008024791550429832,0.022377587731870374,0.003763200160196146,0.010159823412336044,0.015894863266655762,0.060557342431428525,0.001830275424680336
0.1921154,0.018680962695277945,0.0008060273111929123,0.02256494996774392,0.0037544210559712398,0.010156296820359002,0.015920200970458206,0.060622487710189264,0.0018284398889209835
0.1926346,0.018535489181160155,0.0008096298600892799,0.022753237179614846,0.003745785038637721,0.01015307291756608,0.015946851157972106,0.06068386190059327,0.0018267102702784195
0.1931538,0.01838982037662584,0.0008132846355685699,0.022942436932403238,0.0037372954061089137,0.010150160321657218,0.01597480076891289,0.06074144945133908,0.001825086548390028
0.1936731,0.018243976933146812,0.0008169894973634901,0.023132536536510002,0.0037289554494440392,0.010147567726818903,0.01600403657115655,0.06079523548538191,0.0018235686697750872
0.1941923,0.018097979438012054,0.0008207423316708914,0.02332352304710832,0.0037207684525595,0.010145303901307115,0.016034545162455588,0.06084520580550031,0.0018221565477530407
0.1947115,0.01795184841005768,0.0008245410517091074,0.023515383263505146,0.0037127376919344375,0.010143377684957789,0.016066312972162166,0.06089134689964205,0.0018208500623733534
0.1952308,0.017805604295411438,0.0008283835982647028,0.02370810372857482,0.0037048664363100317,0.010141797986624712,0.016099326262959176,0.06093364594604629,0.001819649060357015
0.19575,0.017659267463253504,0.0008322679402286232,0.023901670728266763,0.0036971579463820096,0.010140573781544884,0.016133571132599916,0.06097209081813872,0.0018185533550497417
0.1962692,0.01751285820159559,0.000836192075121736,0.024096070291189237,0.0036896154744858337,0.010139714108631487,0.016169033515657034,0.06100667008919623,0.0018175627263869144
0.1967885,0.017366396713080243,0.0008401540296097595,0.02429128818827119,0.0036822422642740628,0.010139228067694706,0.016205699185281374,0.06103737303677736,0.0018166769208702832
0.1973077,0.017219903110802254,0.000844151860007583,0.024487309932504125,0.00367504155038542,0.010139124816590895,0.016243553754971447,0.061064189646914346,0.0018158956515564562
0.1978269,0.017073397414154,0.0008481836527729858,0.02468412077876603,0.0036680165581051737,0.010139413568300719,0.01628258268035415,0.061087110618063184,0.0018152185980571866
0.1983462,0.016926899544696547,0.000852247524989775,0.02488170572372942,0.003661170503016507,0.010140103587937235,0.016322771260977455,0.06110612736480795,0.0018146454065514652
0.1988654,0.016780429322058317,0.0008563416248403648,0.025080049505855462,0.003654506590642631,0.01014120418968499,0.016364104642115705,0.06112123202131684,0.001814175689809426
0.1993846,0.01663400645986302,0.0008604641320678304,0.025279136605476437,0.003648028016079459,0.010142724733671421,0.016406567816588016,0.06113241744454813,0.0018138090272280683
0.1999038,0.0164876505616887,0.0008646132584274661,0.025478951244968653,0.0036417379636187225,0.010144674622771953,0.016450145626590317,0.061139677217205306,0.001813544964878794
0.2004231,0.0163413811170597,0.0008687872481278762,0.02567947738901811,0.0036356396063614107,0.010147063299350383,0.01649482276554132,0.06114300565044133,0.001813383015566764
0.2009423,0.01619521749747344,0.0008729843782616236,0.025880698744981116,0.003629736105821482,0.010149900241936167,0.016540583779942667,0.06114239778631226,0.00181332265890206
0.2014615,0.0160491789524639,0.000877202959225458,0.026082598763342145,0.0036240306115198056,0.010153194961840327,0.016587413071253408,0.06113784939998082,0.0018133633413826432
0.2019808,0.01590328460570385,0.0008814413351301446,0.026285160638270973,0.0036185262605683073,0.010156956999711616,0.01663529489777891,0.0611293570016705,0.0018135044764890846
0.2025,0.015757553451147707,0.0008856978841999137,0.02648836730828098,0.0036132261772442984,0.010161195922034625,0.016684213376574244,0.06111691783837082,0.0018137454447910517
0.2030192,0.015612004349217105,0.0008899710191615509,0.026692201456990423,0.0036081334725549677,0.010165921317571483,0.016734152485362183,0.06110052989529466,0.00181408559406551
0.2035385,0.015466656023031109,0.000894259187623154,0.026896645513988165,0.003603251243791983,0.010171142793748814,0.016785096064465786,0.06108019189708873,0.0018145242394265947
0.2040577,0.015321527054683023,0.000898560872442585,0.027101681655805364,0.0035985825740761338,0.010176869972991694,0.01683702781875566,0.06105590330879855,0.0018150606634671049
0.2045769,0.01517663588156575,0.0009028745920856522,0.02730729180699449,0.003594130531891945,0.010183112489006397,0.016889931319611803,0.061027664336589474,0.0018156941164115497
0.2050962,0.01503200079274754,0.0009071989009740601,0.027513457641317088,0.003589898170612155,0.010189879983013789,0.01694379000689997,0.060995475928225566,0.0018164238162806808
0.2056154,0.014887639925399938,0.000911532389823174,0.027720160583041605,0.0035858885280119525,0.010197182099935219,0.016998587190962488,0.06095933977330819,0.0018172489490674273
0.2061346,0.014743571261279608,0.0009158736859696525,0.027927381808352678,0.003582104625772856,0.010205028484532802,0.017054306054623304,0.060919258303275825,0.0018181686689241459
0.2066538,0.01459981262326565,0.0009202214536890166,0.028135102246873087,0.003578549468976084,0.010213428777505914,0.017110929655207215,0.06087523469116641,0.0018191820983610896
0.2071731,0.014456381671953919,0.000924574394503235,0.02834330258329981,0.003575226045585283,0.010222392611545665,0.017168440926573176,0.06082727285114318,0.001820288328455992
0.2076923,0.014313295902309706,0.0009289312474784113,0.028551963259155346,0.003572137325918449,0.010231929607349154,0.017226822681161585,0.060775377437784564,0.0018214864190746682
0.2082115,0.014170572640380071,0.0009332907895126553,0.028761064474655495,0.003569286262108905,0.010242049369595193,0.01728605761205535,0.060719553845138705,0.0018227753991025227
0.2087308,0.014028229040067028,0.0009376518356142251,0.02897058619069464,0.003566675787555193,0.010252761482883238,0.01734612829505451,0.060659808205542745,0.0018241542666868557
0.20925,0.013886282079962675,0.0009420132391700157,0.02918050813094953,0.003564308816359745,0.010264075507637156,0.017407017190763922,0.06059614738820701,0.001825621989489856
0.2097692,0.013744748560247278,0.0009463738922044696,0.02939080978410254,0.0035621882427562075,0.01027600097597549,0.01746870664669356,0.06052857899756405,0.0018271775049521727
0.2102885,0.013603645099651247,0.0009507327256289801,0.029601470406185184,0.0035603169405252805,0.010288547387549828,0.01753117889937078,0.060457111371382974,0.0018288197205669587
0.2108077,0.013462988132481844,0.0009550887094818594,0.029812469023042614,0.0035586977623989287,0.010301724205352872,0.017594416076463754,0.06038175357864986,0.0018305475141643006
0.2113269,0.013322793905715438,0.0009594408531589429,0.03002378443291956,0.003557333539452799,0.010315540851497837,0.01765840019891554,0.06030251541721557,0.0018323597342059562
0.2118462,0.013183078476155897,0.0009637882056349118,0.030235395209168042,0.003556227080486682,0.010330006702970776,0.017723113183088175,0.06021940741121295,0.0018342552000903361
0.2123654,0.013043857707659742,0.0009681298556754149,0.030447279703076868,0.0035553811713928685,0.01034513108735752,0.017788536842916366,0.06013244080824583,0.001836232702467679
0.2128846,0.012905147268428483,0.0009724649320400756,0.030659416046822742,0.0035547985745122863,0.010360923278546872,0.017854652892070562,0.060041627576352286,0.001838291003565353
0.2134038,0.012766962628368515,0.0009767926036764738,0.03087178215654262,0.0035544820279783795,0.01037739249241177,0.017921442946129212,0.05994698040074509,0.0018404288375232273
0.2139231,0.012629319056518802,0.0009811120799051967,0.03108435573552673,0.0035544342450487773,0.010394547882470077,0.01798888852476025,0.0598485126803319,0.0018426449107390363
0.2144423,0.012492231618546557,0.0009854226105960534,0.0312971142775314,0.0035546579134249213,0.010412398535526833,0.01805697105391201,0.05974623852401832,0.0018449379022236593
0.2149615,0.012355715174310966,0.0009897234863355546,0.031510035070210586,0.0035551556945599217,0.010430953467299818,0.018125671868014018,0.05964017274679656,0.0018473064639662254
0.2154808,0.012219784375494983,0.000994014038585757,0.03172309519866476,0.0035559302229550213,0.010450221618030376,0.018194972212188232,0.05953033086562378,0.0018497492213089591
0.216,0.012084453663305201,0.0009982936398345726,0.03193627154910561,0.003556984105445158,0.010470211848081425,0.018264853244471427,0.05941672909509464,0.0018522647733316797
0.2165192,0.011949737266239753,0.0010025617037376325,0.03214954081263483,0.0035583199204741738,0.010490932933524592,0.018335296038049693,0.05929938434291391,0.0018548516932458683
0.2170385,0.01181564919792429,0.001006817685251798,0.03236287948913502,0.0035599402173602987,0.010512393561718363,0.01840628158350625,0.05917831420517573,0.0018575085287982124
0.2175577,0.011682203255016102,0.0010110610807604014,0.032576263891270885,0.003561847515552568,0.010534602326879064,0.018477790791083915,0.05905353696145671,0.0018602338026835249
0.2180769,0.011549413015176448,0.0010152914281902998,0.0327896701485988,0.0035640443038788532,0.010557567725646514,0.01854980449296371,0.058925071569729856,0.0018630260129669305
0.2185962,0.011417291835111225,0.0010195083071208137,0.0330030742117829,0.0035665330397862097,0.010581298152646055,0.0186223034455611,0.05879293766110658,0.0018658836335151937
0.2191154,0.011285852848680012,0.0010237113388846257,0.033216451856915984,0.003569316148574254,0.010605801896048716,0.01869526833184121,0.05865715553441317,0.0018688051144370571
0.2196346,0.01115510896507357,0.001027900186660706,0.033429778689943436,0.003572396022622324,0.010631087133131151,0.01876867976365436,0.05851774615060805,0.0018717888825324509
0.2201538,0.011025072867059707,0.001032074555559326,0.03364303015118826,0.003575775020611196,0.010657161925837037,0.01884251828409298,0.05837473112704571,0.0018748333417504157
0.2206731,0.010895757009297428,0.0010362341926992266,0.033856181519975194,0.003579455466740163,0.010684034216341617,0.018916764369870876,0.05822813273159281,0.0018779368736555851
0.2211923,0.01076717361671922,0.001040378887277006,0.034069207919351654,0.0035834396499402872,0.010711711822621029,0.018991398433725836,0.05807797387660125,0.0018810978379030557
0.2217115,0.010639334682981283,0.0010445084706287987,0.03428208432090294,0.0035877298230846365,0.01074020243402827,0.01906640082684641,0.05792427811274317,0.001884314572721467
0.2222308,0.010512251968981576,0.0010486228162843332,0.034494785549658964,0.00359232820219631,0.010769513606877586,0.0191417518413238,0.0577670696227122,0.0018875853954041003
0.22275,0.010385937001445541,0.001052721840013463,0.03470728628908964,0.0035972369656550375,0.010799652760039156,0.019217431712629785,0.05760637321479491,0.0018909086028078075
0.2232692,0.010260401071579443,0.001056805499865286,0.03491956108618594,0.003602458253403148,0.010830627170545915,0.0192934206221217,0.05744221431631658,0.0018942824718595893
0.2237885,0.010135655233791332,0.0010608737961999594,0.035131584356623655,0.003607994166151694,0.010862443969214347,0.019369698699575427,0.05727461896696463,0.0018977052600706406
0.2243077,0.010011710304479674,0.001064926771713335,0.03534333039000677,0.003613846764587526,0.010895110136281111,0.01944624602574738,0.057103613811993595,0.0019011752060577006
0.2248269,0.009888576860889724,0.0010689645114545308,0.03555477335518736,0.0036200180685821482,0.01092863249705732,0.01952304263496643,0.056929226095314776,0.0019046905300715334
0.2253462,0.00976626524003774,0.0010729871428365647,0.03576588730565871,0.0036265100564031663,0.010963017717602296,0.0196000685177567,0.05675148365247402,0.0019082494345323555
0.2258654,0.009644785537703114,0.0010769948356401681,0.03597664618501814,0.0036333246639291615,0.010998272300418617,0.019677303623492126,0.056570414903520765,0.0019118501045720213
0.2263846,0.009524147607488525,0.0010809878020108944,0.036187023832495634,0.0036404637838687985,0.011034402580170312,0.01975472786308366,0.056386048845771634,0.0019154907085827675
0.2269038,0.009404361059948166,0.001084966296449633,0.036396993988544256,0.0036479292649849813,0.011071414719425956,0.019832321111699896,0.05619841504647146,0.0019191693987723004
0.2274231,0.009285435261784138,0.001088930615796638,0.0366065303004881,0.0036557229113248326,0.011109314704428483,0.01991006321152187,0.05600754363535473,0.0019228843117250133
0.2279423,0.009167379335111116,0.0010928810992091701,0.036815606328223165,0.0036638464814562704,0.011148108340893565,0.019987933974532735,0.05581346529711026,0.0019266335689691204
0.2284615,0.009050202156789332,0.0010968181281328518,0.03702419554996666,0.003672301687711927,0.011187801249838456,0.020065913185343037,0.0556162112637517,0.0019304152775494847
0.2289808,0.00893391235782589,0.0011007421262668267,0.03723227136804994,0.0036810901954411326,0.011228398863443236,0.020143980604052335,0.05541581330689661,0.0019342275306059164
0.2295,0.008818518322844407,0.001104653559522816,0.037439807114750256,0.0036902136222706572,0.011269906420946565,0.020222115969147973,0.055212303729956315,0.0019380684079567073
0.2300192,0.008704028189622839,0.0011085529359781564,0.03764677605815612,0.0036996735373748873,0.011312328964578042,0.02030029900044178,0.05500571536023898,0.0019419359766871713
0.2305385,0.008590449848699338,0.0011124408058229022,0.0378531514080611,0.003709471460756095,0.011355671335529357,0.020378509402045428,0.054796081540967864,0.0019458282917429709
0.2310577,0.008477790943045856,0.0011163177613010818,0.038058906321880664,0.0037196088625354373,0.011399938169966439,0.020456726865385074,0.054583436123216915,0.0019497433965280399
0.2315769,0.00836605886780921,0.00112018443664619,0.03826401391058656,0.003730087162255296,0.011445133895084822,0.020534931072255878,0.05436781345776573,0.0019536793235069455
0.2320962,0.00825526077011925,0.0011240415080110051,0.038468447244653224,0.003740907728193556,0.011491262725210451,0.020613101697916712,0.05414924838687572,0.0019576340948115585
0.2326154,0.008145403548963728,0.0011278896933918086,0.038672179360010675,0.003752071876690398,0.011538328657948236,0.020691218414225408,0.05392777623598919,0.001961605722851919
0.2331346,0.008036493855129515,0.0011317297525470903,0.03887518326399828,0.0037635808714881606,0.011586335470380585,0.020769260892814674,0.053703432805352495,0.0019655922109311865
0.2336538,0.00792853809120972,0.0011355624869108076,0.03907743194131419,0.0037754359230848054,0.011635286715318162,0.02084720880830882,0.053476254361564675,0.0019695915538645707
0.2341731,0.00782154241167627,0.0011393887395002656,0.039278898359955114,0.0037876381881014865,0.01168518571760511,0.02092504184158132,0.05324627762905251,0.001973601738602115
0.2346923,0.0077155127230174895,0.001143209394818679,0.039479555477141874,0.003800188768664721,0.011736035570480896,0.02100273968305329,0.053013539781473495,0.0019776207448552042
0.2352115,0.007610454683940152,0.0011470253787524635,0.039679376245226335,0.0038130887118036404,0.011787839132001009,0.02108028203603285,0.05277807843304805,0.0019816465457266528
0.2357308,0.007506373705635545,0.0011508376584633076,0.03987833361757599,0.0038263390088627705,0.011840599021518683,0.02115764862009526,0.052539931629822706,0.001985677108344226
0.23625,0.007403274952109067,0.001154647242275059,0.040076400554432914,0.0038399405949307974,0.01189431761622987,0.021234819174503674,0.05229913784086587,0.00198971039449745
0.2367692,0.007301163340572923,0.0011584551795554689,0.04027355002874396,0.003853894348285719,0.01194899704778375,0.021311773461670173,0.052055735949397754,0.001993744361277556
0.2372885,0.007200043541901531,0.0011622625605928344,0.04046975503195964,0.0038682010898567704,0.012004639198961164,0.021388491270656732,0.05180976524385565,0.001997776961720407
0.2378077,0.007099919981149254,0.0011660705164675718,0.04066498857979903,0.0038828615827034745,0.01206124570042334,0.021464952420715645,0.05156126540889607,0.0020018061454522406
0.2383269,0.007000796838130055,0.0011698802189187662,0.040859223717978344,0.0038978765315121422,0.01211881792753335,0.021541136764868768,0.05131027651633507,0.002005829859338055
0.2388462,0.006902678048058658,0.0011736928802057356,0.04105243352790146,0.0039132465821101236,0.012177356997252805,0.021617024193524858,0.051056839016028345,0.0020098460481324516
0.2393654,0.006805567302252737,0.0011775097529646533,0.04124459113231106,0.003928972320998093,0.012236863765116273,0.02169259463813419,0.05080099372669303,0.002013852655132738
0.2398846,0.006709468048895609,0.0011813321300602685,0.04143566970089974,0.0039450542749006464,0.012297338822285852,0.021767828074879415,0.050542781826672836,0.0020178476228340904
0.2404038,0.006614383493858875,0.00118516134443277,0.04162564245588101,0.00396149291033548,0.012358782492688375,0.0218427045284015,0.05028224484464859,0.0020218288935865782
0.2409231,0.006520316601584391,0.0011889987689398308,0.041814482677520616,0.003978288633201425,0.012421194830237585,0.02191720407555943,0.05001942465029557,0.0020257944102538457
0.2414423,0.006427270096024956,0.0011928458161938724,0.04200216370962908,0.003995441788385602,0.012484575616143584,0.021991306849222167,0.04975436344488914,0.0020297421168732578
0.2419615,0.006335246461643109,0.0011967039383945846,0.04218865896501664,0.004012952659389971,0.012548924356311714,0.022064993042091214,0.049487103751859975,0.002033669959317308
0.2424808,0.00624424794446738,0.0012005746271567322,0.04237394193091239,0.004030821467977549,0.012614240278833084,0.02213824291055189,0.049217688407299766,0.002037575885956083
0.243,0.0061542765532053255,0.0012044594133332686,0.04255798617434948,0.004049048373838568,0.012680522331568734,0.022211036778551328,0.04894616055041811,0.002041457848320565
0.2435192,0.006065334060412693,0.001208359866833778,0.04274076534751874,0.004067633474276836,0.012747769179829485,0.022283355041501078,0.0486725636139511,0.002045313801766563
0.2440385,0.005977422003717975,0.0012122775964382567,0.04292225319309276,0.004086576803916564,0.012815979204153524,0.022355178170202012,0.04839694131452165,0.002049141706139055
0.2445577,0.005890541687101589,0.0012162142496062406,0.04310242354952244,0.00410587833442993,0.012885150498183671,0.022426486714789258,0.048119337642951385,0.0020529395264367303
0.2450769,0.005804694182228934,0.0012201715122812766,0.04328125035630808,0.004125537974285632,0.012955280866646357,0.022497261308694703,0.04783979685452375,0.002056705233476515
0.2455962,0.005719880329836477,0.0012241511086907352,0.04345870765924624,0.004145555568518716,0.013026367823434346,0.022567482672624626,0.047558363459197645,0.0020604368045578744
0.2461154,0.005636100741170097,0.0012281548011409565,0.043634769615654066,0.004165930898521952,0.013098408589795229,0.022637131618550015,0.0472750822117708,0.0020641322241266727
0.2466346,0.005553355799474878,0.0012321843898077196,0.043809410499572106,0.004186663681859027,0.013171400092627674,0.022706189053706995,0.046989998101991566,0.0020677894844383597
0.2471538,0.005471645661535585,0.0012362417125220118,0.043982604706946794,0.004207753572099823,0.013245338962887345,0.022774635984604923,0.04670315634461814,0.002071406586220267
0.2476731,0.005390970259267068,0.0012403286445510759,0.044154326760793214,0.0042292001586780375,0.013320221534104325,0.02284245352103956,0.04641460236942385,0.0020749815393327872
0.2481923,0.005311329301353874,0.0012444470983747039,0.04432455131633887,0.0042510029667713976,0.013396043841013807,0.02290962288010885,0.0461243818111476,0.0020785123634292383
0.2487115,0.005232722274938371,0.001248599023456741,0.044493253166148786,0.004273161457204704,0.013472801618301795,0.02297612539022884,0.04583254049938879,0.0020819970886142352
0.2492308,0.00515514844735669,0.0012527864060117603,0.04466040724523225,0.004295675026375938,0.013550490299467447,0.023041942495147245,0.045539124448446336,0.002085433756100426
0.24975,0.005078606867921812,0.001257011268766861,0.04482598863613128,0.004318543006205668,0.013629105015803571,0.023107055757952313,0.04524417984710156,0.0020888204188634525
0.2502692,0.005003096369753118,0.001261275670718551,0.04498997257399076,0.004341764664109974,0.013708640595496792,0.023171446865074538,0.044947753048345154,0.002092155142295021
0.2507885,0.004928615571651711,0.0012655817068846715,0.04515233445161009,0.004365339202997146,0.01378909156284871,0.023235097630279103,0.044649890559048486,0.0020954360048539714
0.2513077,0.004855162880020823,0.001269931508051323,0.045313049824475704,0.004389265761288371,0.013870452137619307,0.023297989998646875,0.04435063902957954,0.0020986610987152525
0.2518269,0.004782736490830616,0.0012743272405147728,0.04547209441577385,0.004413543412962629,0.013952716234493711,0.023360106050541885,0.044050045243363846,0.0021018285304167357
0.2523462,0.004711334391626701,0.0012787711058183182,0.04562944412138279,0.004438171167626018,0.014035877462673358,0.023421428005563134,0.04374815610639087,0.002104936421503819
0.2528654,0.0046409543635817525,0.0012832653404841051,0.04578507501484328,0.0044631479706056815,0.014119929125592416,0.02348193822647869,0.04344501863666615,0.002107982909171788
0.2533846,0.004571593983589606,0.001287812215739899,0.04593896335230657,0.004488472703068539,0.01420486422076032,0.02354161922314001,0.043140679953609484,0.002110966146905932
0.2539038,0.004503250626401243,0.001292414037240813,0.04609108557745898,0.004514144182164963,0.014290675439731048,0.023600453656374594,0.04283518726739995,0.0021138843051193893
0.2544231,0.004435921466802106,0.001297073144785995,0.04624141832642243,0.0045401611611975805,0.0143773551681997,0.023658424341855062,0.042528587868268804,0.0021167355717887247
0.2549423,0.004369603481830175,0.0013017919120302686,0.04638993843263084,0.00456652232981534,0.014464895486226858,0.02371551425394286,0.04222092911574146,0.002119518153087206
0.2554615,0.004304293453034212,0.0013065727461907257,0.04653662293168201,0.0045932263142330265,0.01455328816859102,0.023771706529504943,0.041912258427830515,0.0021222302740157364
0.2559808,0.0042399879687716035,0.0013114180877482528,0.04668144906616532,0.004620271677476384,0.014642524685269394,0.02382698447170193,0.04160262327018176,0.0021248701790313883
0.2565,0.004176683426545143,0.0013163304101439816,0.04682439429046521,0.004647656919653034,0.014732596202047088,0.02388133155374639,0.041292071145175864,0.002127436132673469
0.2570192,0.004114376035378131,0.0013213122194706522,0.04696543627554042,0.004675380478249398,0.014823493581254803,0.023934731422630105,0.04098064958098831,0.002129926420187034
0.2575385,0.0040530618182271156,0.0013263660541588827,0.047104552913678745,0.004703440728453819,0.014915207382634939,0.023987167902819462,0.040668406120610304,0.0021323393481437647
0.2580577,0.003992736614431581,0.0013314944846583396,0.04724172232322689,0.004731835983506129,0.015007727864336093,0.02403862499991859,0.04035538831083365,0.00213467324506011
0.2585769,0.0039333960821999175,0.0013367001131138125,0.04737692285329486,0.004760564495073897,0.015101044984035934,0.024089086904300214,0.04004164369120252,0.0021369264620125813
0.2590962,0.0038750357011309564,0.0013419855730361942,0.04751013308843403,0.0047896244536555724,0.015195148400192444,0.024138537994704667,0.039727219782935856,0.002139097373250077
0.2596154,0.003817650774770413,0.0013473535289683697,0.04764133185328798,0.004819013989010801,0.01529002747342352,0.02418696284180767,0.03941216407782437,0.0021411843768031043
0.2601346,0.0037612364332015266,0.001352806676146018,0.047770498217214845,0.004848731170618137,0.015385671268014933,0.02423434621175752,0.03909652402710672,0.0021431858950897607
0.2606538,0.0037057876356692042,0.0013583477401533472,0.04789761149887938,0.004878774008160439,0.015482068553556586,0.024280673069682335,0.03878034703032975,0.0021451003755183235
0.2611731,0.003651299173236945,0.0013639794765737785,0.04802265127081309,0.0049091404520382334,0.01557920780670697,0.024325928583167997,0.038463680424197996,0.0021469262910862935
0.2616923,0.0035977656714758144,0.00136970467063561,0.04814559736394015,0.004939828393911387,0.015677077213085693,0.024370098125707403,0.03814657147141763,0.0021486621409757146
0.2622115,0.0035451815931846938,0.0013755261368526852,0.048266429872066835,0.004970835667269437,0.015775664669293987,0.024413167280121603,0.03782906734954011,0.0021503064511445903
0.2627308,0.003493541241141011,0.0013814467186600838,0.04838512915633224,0.005002160048030954,0.01587495778506313,0.024455121841953358,0.037511215139810615,0.0021518577749141984
0.26325,0.0034428387608811282,0.001387469288044849,0.048501675849617815,0.005033799255172314,0.015974943885530828,0.024495947822833736,0.03719306181602618,0.002153314693552092
0.2637692,0.0033930681435095406,0.001393596745171749,0.048616050860913806,0.005065750951386279,0.016075610013645537,0.024535631453821972,0.036874654233408515,0.002154675816850561
0.2642885,0.003344223228536009,0.0013998320180040867,0.04872823537964022,0.005098012743770775,0.016176942932699036,0.024574159188718865,0.03655603911749653,0.002155939783700317
0.2648077,0.003296297706739735,0.001406178061919548,0.04883821087992036,0.005130582184548249,0.016278929128987395,0.024611517707353675,0.03623726305306368,0.0021571052626591604
0.2653269,0.0032492851230596625,0.0014126378593210906,0.04894595912480469,0.0051634567718159856,0.016381554814600713,0.024647693918844377,0.03591837247306543,0.0021581709525153965
0.2658462,0.0032031788795099853,0.0014192144192428748,0.04905146217044321,0.005196633950327749,0.016484805930342007,0.024682674964830908,0.03559941364762233,0.002159135582845766
0.2663654,0.003157972238119929,0.001425910776951241,0.04915470237020411,0.0052301111123070785,0.01658866814877559,0.024716448222680994,0.035280432673044114,0.0021599979145676754
0.2668846,0.0031136583238968716,0.0014327299935407354,0.04925566237873721,0.005263885598292565,0.016693126877405175,0.024749001308668025,0.03496147546090057,0.0021607567404855234
0.2674038,0.003070230127811855,0.0014396751555251755,0.049354325155980386,0.005297954698015416,0.01679816726198198,0.024780322081120396,0.03464258772714443,0.002161410885830914
0.2679231,0.0030276805098065447,0.0014467493744237461,0.04945067397110774,0.005332315651309619,0.016903774189942895,0.0248103986435416,0.03432381498129187,0.002161959208796548
0.2684423,0.0029860022018206927,0.001453955786342104,0.04954469240641778,0.005366965649054994,0.01700993229397874,0.02483921934770034,0.034005202515665856,0.0021624006010635835
0.2689615,0.0029451878108391594,0.0014612975515484637,0.049636364361160194,0.005401901834153443,0.017116625955732555,0.02486677279668984,0.0336867953947075,0.002162733988322243
0.2694808,0.0029052298219575303,0.0014687778540446268,0.049725674055299235,0.005437121302538663,0.01722383930962779,0.024893047847955367,0.03336863844436031,0.0021629583307854285
0.27,0.00286612060146535,0.0014763999011319076,0.049812606033211894,0.005472621104219628,0.01733155624682612,0.024918033616288866,0.033050776241532104,0.0021630726236951258
0.2705192,0.0028278523999459857,0.0014841669229718989,0.04989714516731903,0.0055083982443581035,0.017439760419314675,0.024941719476789637,0.03273325310363926,0.002163075897821349
0.2710385,0.0027904173553921223,0.0014920821721420105,0.049979276661648295,0.0055444496843804454,0.017548435244122283,0.024964095067789745,0.03241611307823778,0.002162967219953377
0.2715577,0.0027538074963358652,0.001500148923185709,0.05005898605532778,0.005580772343123946,0.01765756390766432,0.024985150293742972,0.032099399932745395,0.002162745693383022
0.2720769,0.0027180147449924227,0.0015083704721573804,0.05013625922601022,0.0056173630980179395,0.017767129370215788,0.025004875328076055,0.03178315714425909,0.00216241045837966
0.2725962,0.0026830309204163042,0.001516750136161745,0.05021108239322813,0.005654218786299835,0.017877114370512093,0.02502326061600096,0.03146742788947221,0.002161960692656762
0.2731154,0.0026488477416689647,0.0015252912528877479,0.050283442121680545,0.00569133620626622,0.01798750143047698,0.025040296877287108,0.031152255034695323,0.002161395611829673
0.2736346,0.0026154568309968117,0.0015339971801368662,0.050353325324452226,0.005728712118559156,0.018098272860077144,0.02505597510899223,0.030837681125984864,0.0021607144698644414
0.2741538,0.0025828497170184697,0.0015428712953457614,0.05042071926616563,0.00576634324748773,0.01820941076230291,0.025070286588150612,0.03052374837938347,0.002159916559517523
0.2746731,0.0025510178379201994,0.0015519169951032116,0.05048561156606594,0.005804226282384881,0.01832089703827449,0.025083222874417287,0.030210498671275704,0.0021590012127662346
0.2751923,0.002519952544658372,0.0015611376946612556,0.05054799020103909,0.005842357878999475,0.018432713392473127,0.025094775812666694,0.029897973528862858,0.002157967801229853
0.2757115,0.0024896451041679147,0.0015705368274404948,0.05060784350856201,0.005880734660923556,0.018544841338096436,0.02510493753554424,0.02958621412076029,0.0021568157365812594
0.2762308,0.0024600867025756676,0.0015801178445294993,0.05066516018958432,0.0059193532210546585,0.01865726220253715,0.025113700465969,0.029275261247720955,0.002155544470949027
0.27675,0.002431268448417619,0.0015898842141782905,0.050719929311340346,0.00595821012309302,0.018769957132984297,0.025121057319585822,0.02896515533348855,0.002154153497309857
0.2772692,0.002403181375858999,0.0015998394212858847,0.05077214031009035,0.00599730190307345,0.018882907102145706,0.025127001107165106,0.028655936415784053,0.0021526423498712637
0.2777885,0.002375816447916225,0.0016099869668819032,0.05082178299378995,0.006036625070931607,0.01899609291409065,0.025131525136948267,0.02834764413742919,0.0021510106044444017
0.2783077,0.0023491645596796893,0.0016203303676022693,0.050868847544686575,0.006076176112104377,0.019109495210211176,0.025134623016937082,0.0280403177376105,0.002149257878806952
0.2788269,0.0023232165415363695,0.001630873155159036,0.050913324521841996,0.00611595148916401,0.019223094475300625,0.02513628865712515,0.027733996043287447,0.0021473838330559707
0.2793462,0.0022979631623912325,0.0016416188758044121,0.05095520486357959,0.006155947643485609,0.019336871043747615,0.025136516271669473,0.02742871746074799,0.0021453881699506224
0.2798654,0.002273395132886386,0.0016525710897890677,0.050994479889854796,0.006196160996947554,0.019450805105843672,0.02513530038100056,0.027124519967314915,0.0021432706352447215
0.2803846,0.0022495031086169474,0.0016637333708148148,0.051031141304547126,0.0062365879536644235,0.019564876714202623,0.02513263581386916,0.02682144110320626,0.0021410310180090047
0.2809038,0.002226277693342605,0.0016751093054817629,0.05106518119767167,0.006277224901751888,0.019679065790289694,0.02512851770932789,0.02651951796355314,0.0021386691509430603
0.2814231,0.0022037094421938942,0.001686702492730046,0.05109659204750811,0.006318068215123067,0.019793352131058213,0.02512294151864619,0.026218787190578234,0.0021361849106768297
0.2819423,0.0021817888648722325,0.0016985165432762074,0.051125366722645296,0.006359114255315789,0.019907715415691817,0.025115903007157245,0.02591928496593839,0.0021335782180615876
0.2824615,0.002160506428842812,0.0017105550790443283,0.05115149848393971,0.0064003593733501785,0.020022135212449985,0.02510739825603571,0.025621047003234785,0.002130849038450306
0.2829808,0.002139852562519474,0.0017228217325919765,0.05117498098638641,0.006441799911615943,0.02013659098561462,0.02509742366400542,0.02532410854069434,0.0021279973819672967
0.2835,0.0021198176584407225,0.0017353201465310384,0.05119580828090156,0.006483432205788707,0.020251062102535477,0.025085975948976116,0.025028504334025935,0.0021250233037670104
0.2840192,0.0021003920764360567,0.001748053972943495,0.051213974816016104,0.006525252586774695,0.020365527840771967,0.02507305214960832,0.024734268649455007,0.002121926904281875
0.2845385,0.002081566146781833,0.0017610268727921942,0.051229475439480095,0.006567257382683017,0.02047996739532892,0.025058649626805395,0.024441435256939956,0.002118708329459036
0.2850577,0.0020633301733458827,0.0017742425153266714,0.05124230539977747,0.006609442920824764,0.020594359885983644,0.025042766065131783,0.024150037423573543,0.0021153677709858537
0.2855769,0.002045674436720114,0.0017877045774840796,0.05125246034755085,0.006651805529738055,0.02070868436470151,0.025025399474156287,0.02386010790717236,0.0021119054665040163
0.2860962,0.0020285891973403605,0.001801416743285315,0.05125993633693562,0.006694341541238141,0.02082291982313719,0.025006548189719376,0.023571678950057143,0.0021083216998121226
0.2866154,0.002012064698592723,0.0018153827032264544,0.05126472982680238,0.006737047292491625,0.02093704520021846,0.024986210875123503,0.023284782273026647,0.0021046168010566174
0.2871346,0.0019960911699056735,0.0018296061536656658,0.05126683768190689,0.006779919128113811,0.021051039389809387,0.02496438652224556,0.02299944906952752,0.002100791146910968
0.2876538,0.001980658829827175,0.001844090796205794,0.051266257173946256,0.0068229534022881564,0.021164881248449487,0.02494107445257064,0.022715710000022534,0.0020968451607429966
0.2881731,0.0019657578890861006,0.001858840337072883,0.051262985982520444,0.006866146480906749,0.02127854960316536,0.024916274318146473,0.02243359518655933,0.0020927793127702957
0.2886923,0.0019513785536372256,0.0018738584864909395,0.051257022195998266,0.006909494743730693,0.021392023259351092,0.024889986102457764,0.022153134207541676,0.002088594120203648
0.2892115,0.0019375110276891017,0.0018891489580532888,0.05124836431228766,0.006952994586569229,0.021505281008713666,0.024862210121219867,0.021874356092705095,0.0020842901473783694
0.2897308,0.001924145516714147,0.0019047154680908883,0.051237011239510265,0.00699664242347642,0.021618301637279475,0.024832947023090968,0.021597289318298525,0.0020798680058734913
0.29025,0.0019112722304402937,0.0019205617350379833,0.05122296229658125,0.007040434688964193,0.021731063933458035,0.024802197790301954,0.021321961802473508,0.00207532835461867
0.2907692,0.001898881385823567,0.0019366914787954947,0.05120621721369573,0.007084367840230553,0.02184354669615889,0.024769963739202885,0.021048400900882266,0.0020706718999887173
0.2912885,0.0018869632100009638,0.001953108420092517,0.05118677613272394,0.00712843835940178,0.021955728742957505,0.024736246520725067,0.02077663340248606,0.002065899395885619
0.2918077,0.0018755079432230045,0.0019698162798463055,0.051164639607516986,0.007172642755787462,0.022067588918306,0.02470104812075738,0.020506685525575,0.0020610116438079078
0.2923269,0.0018645058417653324,0.0019868187785211278,0.05113980860412577,0.007216977568147197,0.02217910610178414,0.024664370860435807,0.020238582914000477,0.0020560094929072507
0.2928462,0.001853947180818742,0.0020041196354863376,0.051112284500935086,0.00726143936696782,0.02229025921638609,0.02462621739634479,0.01997235063362142,0.002050893840032106
0.2933654,0.0018438222573570297,0.0020217225683740138,0.051082069088714974,0.007306024756750024,0.022401027236838077,0.024586590720628933,0.01970801316896541,0.0020456656297583044
0.2938846,0.0018341213929820882,0.002039631292436497,0.05104916457059115,0.007350730378303247,0.022511389197941996,0.024545494161013655,0.01944559442010569,0.0020403258544064197
0.2944038,0.0018248349367456823,0.0020578495199041454,0.05101357356193627,0.007395552911047731,0.022621324202939747,0.024502931380733048,0.019185117699754808,0.0020348755540458186
0.2949231,0.0018159532679473608,0.002076380959343614,0.050975299090183404,0.007440489075322693,0.022730811431892966,0.024458906378363503,0.018926605730575696,0.0020293158164852955
0.2954423,0.0018074667989079688,0.0020952293150169497,0.05093434459456298,0.007485535634699527,0.02283983015007259,0.024413423487561516,0.018670080642710616,0.002023647777250229
0.2959615,0.0017993659777182343,0.002114398286241781,0.05089071392576385,0.007530689398298954,0.022948359716352604,0.024366487376704587,0.018415563971528437,0.002017872619546217
0.2964808,0.0017916412909619122,0.002133891566752869,0.05084441134551887,0.007575947223111016,0.023056379591601988,0.02431810304843425,0.018163076655590416,0.0020119915742091497
0.297,0.001784283266412968,0.0021537128440652724,0.050795441526115245,0.007621306016316803,0.023163869347068995,0.0242682758391005,0.017912639034834574,0.002006005919641698
0.2975192,0.001777282475706296,0.002173865798839365,0.05074380954982922,0.00766676273761079,0.0232708086727515,0.02421701141810703,0.01766427084897864,0.0019999169817361763
0.2980385,0.0017706295369814748,0.0021943541042479444,0.05068952090828462,0.007712314401522722,0.023377177385747183,0.024164315787156637,0.017417991236141277,0.001993726133783753
0.2985577,0.0017643151174990802,0.0022151814253456646,0.05063258150173445,0.007757958079738077,0.02348295543857709,0.02411019527939622,0.017173818731681233,0.0019874347963699766
0.2990769,0.0017583299362290803,0.0022363514184410103,0.050572997638264096,0.007803690903416175,0.023588122927476075,0.02405465655846113,0.01693177126725396,0.001981044437256606
0.2995962,0.0017526647664108457,0.002257867730471048,0.050510776032914935,0.007849510065505183,0.023692660100643574,0.02399770661741892,0.016691866170085008,0.001974556571249745
0.3001154,0.001747310438084307,0.0022797339983791705,0.050445923806726356,0.007895412823053338,0.023796547366448213,0.0239393527776132,0.01645412016245942,0.001967972760054317
0.3006346,0.001742257840591798,0.0023019538484960514,0.05037844848569418,0.007941396499515797,0.023899765301579758,0.023879602687408644,0.016218549361426204,0.0019612946121149275
0.3011538,0.0017374979250501163,0.0023245308959240216,0.05030835799964342,0.007987458487056646,0.02400229465914198,0.023818464320838627,0.015985169278716863,0.0019545237824431998
0.3016731,0.001733021706792337,0.0023474687439250684,0.050235660681013206,0.008033596248845646,0.02410411637668005,0.023755945976157176,0.015753994820876815,0.0019476619724316422
0.3021923,0.0017288202677788972,0.002370770983312646,0.050160365263551956,0.008079807321349343,0.02420521158413609,0.023692056274296852,0.015525040289608397,0.0019407109296541295
0.3027115,0.0017248847589774725,0.0023944411918474665,0.05008248088092153,0.008126089316616293,0.024305561611726853,0.023626804157234314,0.015298319382324047,0.0019336724476530503
0.3032308,0.001721206402711156,0.0024184829336374395,0.05000201706520911,0.008172439924556192,0.02440514799773757,0.02356019888626531,0.015073845192908147,0.0019265483657131726
0.30375,0.0017177764949744547,0.0024428997585418948,0.04991898374534634,0.008218856915212744,0.024503952496226344,0.023492250040190725,0.014851630212685903,0.0019193405686222715
0.3042692,0.001714586407716625,0.002467695201580219,0.04983339124543526,0.008265338141030122,0.024601957084633395,0.02342296751341537,0.014631686331597548,0.0019120509864185566
0.3047885,0.0017116275910918758,0.0024928727823450196,0.04974525028298121,0.00831188153911283,0.024699143971289823,0.02335236151396096,0.01441402483957599,0.0019046815941249349
0.3053077,0.0017088915756759868,0.002518436004419919,0.049654571967032435,0.008358485133478769,0.0247954956028202,0.023280442561394717,0.01419865642812592,0.0018972344114701332
0.3058269,0.0017063699746488938,0.002544388354802059,0.04956136779622625,0.008405147037305242,0.024890994671433606,0.023207221484674877,0.013985591192102324,0.0018897115025966965
0.3063462,0.0017040544859428068,0.0025707333033293993,0.04946564965674137,0.00845186545516763,0.024985624122097767,0.023132709419914226,0.013774838631686197,0.001882114975755874
0.3068654,0.0017019368943554253,0.0025974743021128606,0.049367429820155705,0.008498638685270463,0.02507936715959136,0.023056917808062665,0.013566407654555185,0.0018744469829893886
0.3073846,0.0017000090736278128,0.002624614784973347,0.04926672094120876,0.008545465121670556,0.025172207255429797,0.0229798583925096,0.013360306578246741,0.0018667097197980933
0.3079038,0.0016982629884864837,0.0026521581668836687,0.04916353605546776,0.008592343256491955,0.025264128154660313,0.022901543216606878,0.013156543132711291,0.001858905424797491
0.3084231,0.00169669069664925,0.0026801078434153616,0.04905788857689646,0.008639271682132346,0.025355113882522293,0.02282198462111273,0.012955124463052853,0.0018510363793601014
0.3089423,0.001695284350794368,0.0027084671901903873,0.04894979229532561,0.008686249093460613,0.02544514875096914,0.02274119524155719,0.012756057132454354,0.0018431049072446474
0.3094615,0.0016940362004925172,0.00273723956233767,0.04883926137382418,0.008733274290005217,0.025534217365047764,0.022659188005529258,0.012559347125284859,0.001835113374212017
0.3099808,0.0016929385941011476,0.0027664282939544238,0.048726310345970296,0.008780346178132985,0.025622304629132082,0.022575976129886117,0.012364999850385838,0.0018270641876279546
0.3105,0.001691983980620731,0.002796036697572182,0.04861095411302112,0.008827463773217905,0.02570939575300685,0.022491573117884668,0.012173020144533492,0.0018189597960524154
0.3110192,0.0016911649115124723,0.0028260680636274585,0.048493207940981144,0.008874626201799459,0.02579547625779833,0.022405992756235706,0.011983412276074103,0.0018108026888155175
0.3115385,0.0016904740424770527,0.002856525659936919,0.048373087457568985,0.008921832703730027,0.025880531981748108,0.02231924911208095,0.011796179948729267,0.0018025953955800045
0.3120577,0.0016899041351940093,0.0028874127311769443,0.04825060864908301,0.008969082634310862,0.025964549085826554,0.022231356529893394,0.01161132630556785,0.0017943404858901417
0.3125769,0.0016894480590213658,0.0029187324983674435,0.048125787857166945,0.009016375466416161,0.026047514059182035,0.02214232962830141,0.01142885393314138,0.0017860405687069706
0.3130962,0.001689098792655161,0.0029504881583597704,0.04799864177547703,0.00906371079260463,0.026129413724422058,0.02205218329683727,0.011248764865779541,0.0017776982919298558
0.3136154,0.0016888494257485376,0.002982682883328567,0.04786918744625284,0.009111088327218072,0.02621023524272254,0.021960932692610714,0.011071060590042387,0.001769316341904285
0.3141346,0.001688693160490071,0.003015319820267363,0.047737442256794056,0.009158507908466399,0.026289966118761488,0.021868593236908433,0.010895742049325755,0.0017608974429159272
0.3146538,0.001688623313141038,0.0030484020904877375,0.04760342393584551,0.009205969500498574,0.02636859420547387,0.021775180611720305,0.010722809648616407,0.0017524443566709841
0.3151731,0.0016886333155313453,0.003081932789121821,0.047467150549892735,0.009253473195458915,0.0264461077086247,0.02168071075619343,0.010552263259393277,0.0017439598817629172
0.3156923,0.0016887167165138338,0.003115914984627914,0.04732864049937024,0.009301019215528273,0.02652249519119784,0.02158519986301505,0.010384102224671166,0.0017354468531256564
0.3162115,0.0016888671833766935,0.003150351718298945,0.04718791251478474,0.009348607914949578,0.02659774557759813,0.021488664374725516,0.010218325364183139,0.001726908141473413
0.3167308,0.0016890785032137156,0.0031852460037735016,0.047044985652755764,0.009396239782037262,0.02667184815766489,0.02139112097996236,0.01005493097969786,0.0017183466527272346
0.31725,0.001689344584252133,0.003220600826549119,0.04689987929197601,0.009443915441170092,0.026744792590494847,0.021292586609636694,0.00989391686046807,0.0017097653274284466
0.3177692,0.0016896594571378057,0.0032564191434975086,0.04675261312909447,0.009491635654766937,0.026816568908073005,0.021193078433042745,0.009735280288806328,0.0017011671401391216
0.3182885,0.0016900172761775223,0.003292703882381378,0.046603207174525096,0.00953940132524495,0.02688716751870998,0.021092613853901692,0.009579018045784133,0.001692555098829719
0.3188077,0.0016904123205382098,0.003329457941372498,0.046451681748183905,0.00958721349695958,0.02695657921028474,0.020991210506340664,0.009425126417050459,0.0016839322442540273
0.3193269,0.0016908389954028533,0.003366684188570629,0.046298057475157195,0.009635073358125737,0.027024795153291467,0.020888886250807853,0.009273601198765703,0.0016753016493115409
0.3198462,0.0016912918330829582,0.0034043854615229447,0.04614235528130315,0.009682982242719382,0.02709180690368962,0.020785659169924763,0.009124437703647006,0.001666666418397404
0.3203654,0.0016917654940874001,0.0034425645667435583,0.0459845963887888,0.009730941632358766,0.02715760640555614,0.02068154756427661,0.008977630767120796,0.001658029686740055
0.3208846,0.0016922547681475378,0.0034812242792327504,0.04582480231156414,0.009778953158164438,0.027222185993539268,0.020576569948141867,0.0088331747535784,0.00164939461972671
0.3214038,0.0016927545751984903,0.0035203673419954827,0.04566299485077477,0.009827018602597134,0.02728553839511368,0.020470745045162032,0.008691063562730491,0.0016407644122168397
0.3219231,0.001693259966316492,0.0035599964655587623,0.045499196090114394,0.009875139901272582,0.02734765673263764,0.020364091783952556,0.008551290636056034,0.0016321422878437786
0.3224423,0.0016937661246122495,0.0036001143274874076,0.045333428391118015,0.009923319144752252,0.02740853452521314,0.020256629293656077,0.008413848963341379,0.0016235314983046182
0.3229615,0.0016942683660802307,0.0036407235718977473,0.045165714388396734,0.009971558580308982,0.027468165690350824,0.020148376899439265,0.00827873108930507,0.0016149353226385301
0.3234808,0.0016947621404038212,0.0036818268089687783,0.0449960769848146,0.010019860613666417,0.027526544545441727,0.02003935411793487,0.008145929120303938,0.0016063570664936618
0.324,0.0016952430317162862,0.0037234266144503037,0.04482453934660793,0.010068227810711169,0.02758366580903794,0.019929580652630768,0.008015434731116032,0.0015978000613827586
0.3245192,0.0016957067593174864,0.003765525529167554,0.044651124898447345,0.010116662899176634,0.02763952460194445,0.019819076389208014,0.007887239171795962,0.0015892676639276781
0.3250385,0.0016961491783463005,0.0038081260585217983,0.044475857318442294,0.01016516877029739,0.02769411644812399,0.019707861390829893,0.007761333274598324,0.0015807632550929752
0.3255577,0.001696566280408726,0.003851230671986443,0.044298760533087816,0.010213748480433063,0.027747437275416887,0.01959595589338399,0.007637707460964916,0.0015722902394087576
0.3260769,0.0016969541941616476,0.0038948418025981104,0.04411985871215298,0.010262405252660544,0.02779948341607763,0.01948338030067932,0.007516351748571563,0.0015638520441830317
0.3265962,0.0016973091858522693,0.0039389618464422,0.04393917626351043,0.010311142478333386,0.02785025160713014,0.019370155179600588,0.00739725575843045,0.0015554521187037629
0.3271154,0.001697627659813222,0.003983593162132391,0.043756737827906934,0.010359963718607116,0.0278997389905435,0.019256301255221576,0.0072804087220439545,0.0015470939334308999
0.3276346,0.0016979061589133544,0.004028738070283587,0.0435725682736752,0.010408872705929138,0.027947943113230084,0.019141839405879622,0.007165799488606127,0.0015387809791786108
0.3281538,0.001698141364964219,0.004074398852977733,0.043386692691388375,0.01045787334549186,0.027994861926867842,0.01902679065821312,0.007053416532248029,0.001530516766288001
0.3286731,0.0016983300990822707,0.004120577753221975,0.04319913638845908,0.010506969716647633,0.02804049378754848,0.018911176182163862,0.006943247959323279,0.0015223048237905917
0.3291923,0.0016984693220067886,0.0041672769743985585,0.0430099248836855,0.01055616607428398,0.02808483745525316,0.018795017285945872,0.006835281515730251,0.0015141486985628466
0.3297115,0.0016985561343735673,0.004214498679705889,0.04281908390174682,0.010605466850157577,0.028127892093157327,0.01867833541098235,0.006729504594267395,0.001506051954472032
0.3302308,0.0016985877769444247,0.004262244991590121,0.04262663936765095,0.010654876654185306,0.028169657266766585,0.01856115212681209,0.006625904242018222,0.001498018171513709
0.33075,0.001698561630792605,0.004310517991166635,0.04243261740113704,0.010704400275690711,0.02821013294288531,0.018443489125966717,0.006524467167762473,0.001490050944941145
0.3312692,0.0016984752174441734,0.004359319717630733,0.0422370443110353,0.010754042684604045,0.02824931948841987,0.018325368218819863,0.006425179749410017,0.0014821538843869493
0.3317885,0.0016983261989755298,0.004408652167656862,0.04203994658958675,0.010803809032614036,0.028287217669018094,0.01820681132840936,0.006328028041453971,0.0014743306129772434
0.3323077,0.0016981123780672087,0.004458517294785654,0.04184135090672499,0.010853704654269507,0.028323828647546602,0.018087840485233497,0.00623299778243954,0.0014665847664387026
0.3328269,0.0016978316980141685,0.0045089170087980815,0.04164128410432227,0.010903735068028896,0.02835915398240732,0.017968477822022284,0.0061400744024450666,0.001458919992198809
0.3333462,0.0016974822426928289,0.004559853175076059,0.04143977319040146,0.010953905977255754,0.028393195625694364,0.017848745568484543,0.006049243030571804,0.0014513399484796818
0.3338654,0.00169706223648516,0.004611327613948818,0.04123684533331583,0.011004223271158301,0.02842595592119225,0.017728666046031752,0.005960488502438975,0.0014438483033858414
0.3343846,0.001696570044160155,0.004663342100024504,0.04103252785589799,0.011054693025671176,0.028457437602216393,0.017608261662479335,0.005873795367680727,0.001436448733986264
0.3349038,0.0016960041707130432,0.004715898361506457,0.04082684822957964,0.01110532150427752,0.02848764378929665,0.017487554906726127,0.005789147897441681,0.0014291449253910785
0.3354231,0.0016953632611626155,0.004768998079493751,0.04061983406848387,0.011156115158769596,0.028516577987704562,0.01736656834341258,0.00570653009186778,0.0014219405698232472
0.3359423,0.0016946461003070473,0.004822642887265637,0.04041151312349194,0.011207080629946072,0.028544244084824928,0.017245324607558257,0.005625925687589233,0.0014148393656855615
0.3364615,0.001693851612438625,0.0048768343695496106,0.04020191327628682,0.011258224748244158,0.02857064634737228,0.017123846399178962,0.005547318165192378,0.0014078450166232807
0.3369808,0.001692978861017811,0.004931574061772909,0.0399910625333762,0.011309554534304635,0.028595789418452842,0.017002156477883792,0.005470690756677354,0.0014009612305827229
0.3375,0.0016920270483070966,0.004986863449297313,0.03977898902009798,0.011361077199467814,0.02861967831447258,0.016880277657452394,0.005396026452898528,0.0013941917188661148
0.3380192,0.0016909955149651125,0.0050427039666371834,0.03956572097461157,0.011412800146198419,0.028642318421892233,0.01675823280039271,0.0053233080109846625,0.001387540195182991
0.3385385,0.001689883739601484,0.005099096996660743,0.039351286741878495,0.011464730968437278,0.028663715493830663,0.016636044812479434,0.005252517961735903,0.0013810103746984255
0.3390577,0.001688691338292925,0.0051560438697746385,0.039135714767636,0.01151687745187777,0.028683875646518156,0.016513736637273495,0.005183638616994702,0.0013746059730783717
0.3395769,0.0016874180640610655,0.005213545863091873,0.038919033592367175,0.011569247574164897,0.02870280535560185,0.01639133125062274,0.005116652076987858,0.0013683307055323832
0.3400962,0.001686063806312518,0.005271604199583199,0.038701271845271494,0.011621849505014988,0.02872051145230576,0.016268851655143995,0.005051540237636915,0.0013621882858539935
0.3406154,0.0016846285902416844,0.005330220047212082,0.03848245823823955,0.011674691606253985,0.02873700111944804,0.01614632087468651,0.004988284797834267,0.0013561824254590344
0.3411346,0.0016831125761968212,0.005389394518053297,0.03826262155983601,0.011727782431772483,0.02875228188731817,0.01602376194877672,0.004926867266682417,0.0013503168324221718
0.3416538,0.0016815160590098858,0.005449128667395218,0.038041790669294626,0.011781130727395655,0.028766361629416804,0.015901197927044152,0.0048672689706939385,0.0013445952105119452
0.3421731,0.0016798394672907088,0.005509423492825847,0.03781999449052927,0.011834745430666377,0.02877924855806122,0.015778651863628177,0.004809471060949893,0.0013390212582245985
0.3426923,0.0016780833626860387,0.00557027993330259,0.03759726200616448,0.011888635670539771,0.02879095121985975,0.015656146811565443,0.004753454520214586,0.001333598667816989
0.3432115,0.0016762484391040146,0.005631698868205834,0.037373622251588856,0.011942810766987513,0.028801478491058994,0.015533705817157746,0.004699200170004717,0.0013283311243388594
0.3437308,0.0016743355219046153,0.005693681116376368,0.03714910430903454,0.011997280230510176,0.02881083957276817,0.015411351914320387,0.004646688677611143,0.001323222304664757
0.34425,0.001672345567056634,0.005756227435136724,0.036923737301685536,0.012052053761555841,0.028819043986065565,0.015289108118910997,0.004595900563071614,0.0013182758765258775
0.3447692,0.0016702796602617105,0.005819338519296533,0.03669755038781774,0.012107141249843125,0.02882610156699228,0.015166997423038965,0.004546816206092927,0.0013134954975421098
0.3452885,0.001668139016045949,0.0058830150001420705,0.03647057275497334,0.01216255277358673,0.02883202246143884,0.01504504278935563,0.004499415852921041,0.0013088848142545546
0.3458077,0.0016659249768196439,0.005947257444410172,0.03624283361417217,0.012218298598623594,0.02883681711993021,0.01492326714532543,0.00445367962315771,0.00130444746115879
0.3463269,0.0016636390119056346,0.006012066353246791,0.03601436219416262,0.012274389177437714,0.028840496292314787,0.01480169337747832,0.004409587516522245,0.001300187059739145
0.3468462,0.0016612827165368063,0.006077442161150519,0.03578518773571493,0.012330835148081767,0.028843071022362884,0.014680344325643873,0.004367119419556972,0.0012961072175042365
0.3473654,0.0016588578108232498,0.006143385234901461,0.03555533948595945,0.012387647332993742,0.028844552642280204,0.014559242777167603,0.004326255112274993,0.0012922115270240164
0.3478846,0.0016563661386895818,0.006209895872475936,0.03532484669277271,0.01244483673770695,0.02884495276714184,0.014438411461110369,0.00428697427474887,0.0012885035649685616
0.3484038,0.0016538096667829212,0.006276974301947539,0.03509373859921402,0.012502414549451939,0.02884428328925251,0.014317873042431888,0.004249256493638906,0.001284986891148838
0.3489231,0.001651190483351998,0.006344620680375175,0.03486204443801536,0.012560392135648895,0.02884255637243878,0.014197650116159751,0.004213081268659773,0.0012816650475596537
