Time,Rectus Femoris right,Rectus Femoris left,Hamstrings right,Hamstrings left,TibilaisÂ Anterior right,TibilaisÂ Anterior left,Gastrocnemius right,Gastrocnemius left
0.0,-0.003551956524025774,0.015146733356615674,0.007751455433120104,0.006723302110806851,-0.004554993887390401,-0.02068186699594029,0.00042583122235728124,0.0010382719562876722
0.0004655,-0.003335991375785723,0.015638373960328675,0.00790910907189948,0.006915993647068771,-0.003649391365358963,-0.020103166177842385,0.0005002065231877778,0.001067731830155482
0.000931,-0.003120516930469114,0.016130918851703733,0.008065739221937472,0.007108716699597228,-0.002744084114884118,-0.019525401634448693,0.0005746876180770684,0.0010973535106331592
0.0013966,-0.002905564602214688,0.016624319414218748,0.008221322034883625,0.007301438871494185,-0.0018391982381447134,-0.01894864705956863,0.0006492724406075753,0.001127134423323488
0.0018621,-0.0026911657097710606,0.017118527083339618,0.008375833941350965,0.007494127620723938,-0.0009348599138731747,-0.01837297585332467,0.0007239590607114514,0.0011570719659354696
0.0023276,-0.0024773514668952183,0.01761349336473214,0.008529251659084656,0.007686750269308264,-3.11953602632058e-05,-0.017798461100191634,0.0007987456872983405,0.001187163509081258
0.0027931,-0.0022641529727983694,0.01810916985236693,0.008681552200994822,0.007879274012623724,0.0008716692020950753,-0.017225175547249838,0.0008736306708044191,0.0012174063970746363
0.0032586,-0.0020516012026450306,0.01860550824649442,0.0088327128830476,0.008071665928797172,0.0017736075872257229,-0.016653191582667,0.0009486125056579904,0.0012477979487295805
0.0037241,-0.0018397269981111372,0.019102460371468715,0.008982711332008435,0.008263892988195541,0.002674493680697885,-0.016082581214422763,0.0010236898326571025,0.001278335458157531
0.0041897,-0.0016285610580068467,0.019599978193400806,0.009131525493031633,0.008455922063005992,0.0035742014764530814,-0.015513416049288985,0.0010988614412550074,0.0013090161955620677
0.0046552,-0.0014181339289695933,0.02009801383762322,0.00927913363709013,0.008647719936902623,0.0044726051135062376,-0.014945767272078263,0.001174126271749756,0.0013398374080297723
0.0051207,-0.0012084759962328199,0.02059651960594929,0.009425514368239473,0.008839253314796043,0.0053695789124992175,-0.01437970562517276,0.0012494834173747964,0.0013707963203161324
0.0055862,-0.0009996174744756863,0.021095447993711266,0.009570646630709868,0.009030488832662265,0.006264997412086992,-0.013815301388344947,0.001324932126288007,0.0014018901356254072
0.0060517,-0.0007915883987589321,0.02159475170656265,0.009714509715820314,0.009221393067447495,0.007158735405137887,-0.013252624358881587,0.0014004718034570697,0.0014331160363834571
0.0065172,-0.0005844186155519144,0.02209438367703162,0.009857083268708744,0.00941193254704555,0.008050667974730653,-0.012691743832021955,0.0014761020124394186,0.0014644711850026494
0.0069828,-0.0003781377738557078,0.022594297080813584,0.009998347294872294,0.00960207376034472,0.008940670529932235,-0.012132728581720872,0.001551822477055225,0.0014959527246381026
0.0074483,-0.00017277531642697928,0.02309444535279213,0.010138282166511862,0.009791783167340978,0.00982861884134113,-0.011575646841746815,0.0016276330829520364,0.0015275577799347044
0.0079138,3.163952889282288e-05,0.023594782202778105,0.01027686862867527,0.00998102720931451,0.010714389076382093,-0.011020566287124785,0.001703533879059838,0.0015592834577644805
0.0083793,0.000235077757738631,0.02409526163095695,0.010414087805193631,0.010169772319066548,0.011597857834338738,-0.010467554015933075,0.0017795250789354468,0.001591126847954004
0.0088448,0.0004375105976691486,0.02459583794303445,0.01054992120440568,0.010357984931213468,0.012478902181111253,-0.009916676531462098,0.0018556070619952605,0.001623085024001607
0.0093103,0.0006389095164965683,0.02509646576507144,0.010684350724665287,0.010545631492535132,0.01335739968368712,-0.009367999724742235,0.0019317803746354805,0.0016551550437842206
0.0097759,0.0008392462304949318,0.025597100057998333,0.010817358659627867,0.010732678472374435,0.014233228444313187,-0.00882158885744634,0.0020080457312389804,0.0016873339502537549
0.0102414,0.0010384927124836595,0.02609769613180131,0.010948927703311944,0.010919092373084993,0.015106267134357837,-0.008277508545171198,0.0020844040150680082,0.0017196187721229973
0.0107069,0.0012366211997829801,0.026598209659372565,0.011079040954932813,0.011104839740523929,0.015976395027852256,-0.007735822741101246,0.0021608562790419346,0.0017520065245410863
0.0111724,0.0014336042020381989,0.02709859669001777,0.01120768192350599,0.011289887174586687,0.01684349203470008,-0.007196594720057174,0.0022374037463992586,0.0017844942097586817
0.0116379,0.001629414508909946,0.027598813662614376,0.011334834532218774,0.011474201339780752,0.01770743873354488,-0.006659887062931584,0.002314047811243113,0.0018170788177829915
0.0121034,0.0018240251976277561,0.028098817418414454,0.011460483122569014,0.011657748975835129,0.01856811640428537,-0.006125761641513677,0.0023907900389695457,0.0018497573270228281
0.012569,0.00201740964040454,0.02859856521348609,0.01158461245827055,0.011840496908342386,0.019425407060228606,-0.005594279603704679,0.002467632166577903,0.0018825267049238869
0.0130345,0.002209541511709713,0.029098014730787613,0.011707207728925306,0.012022412059429916,0.020279193479871817,-0.00506550135912556,0.002544576102862712,0.0019153839085944387
0.0135,0.0024003947953989526,0.029597124091869514,0.011828254553462259,0.012203461458457049,0.021129359238303957,-0.004539486565118331,0.0026216239284865468,0.0019483258854216313
0.0139655,0.002589943791698762,0.030095851868199526,0.011947738983343675,0.012383612252734655,0.021975788738218573,-0.0040162941131419065,0.002698777895933466,0.001981349573678594
0.014431,0.0027781631240442095,0.030594157092106982,0.01206564750553932,0.012562831718263728,0.022818367240530116,-0.0034959821155632373,0.002776040429342736,0.00201445190312254
0.0148966,0.0029650277457683805,0.031091999267343334,0.01218196704526952,0.01274108727048955,0.02365698089458663,-0.0029786078928441743,0.00285341412422268,0.002047629795584054
0.0153621,0.003150512946642235,0.03158933837925573,0.012296684968518276,0.012918346475068015,0.024491516767972465,-0.0024642279611242868,0.0029309017470446432,0.0020808801655477507
0.0158276,0.003334594359263671,0.03208613490457093,0.012409789084317639,0.013094577058640687,0.025321862875895437,-0.0019528980201996345,0.0030085062347171934,0.002114199920724469
0.0162931,0.0035172479652946856,0.032582349820786644,0.012521267646804609,0.013269746919615192,0.026147908210153545,-0.0014446729418972047,0.003086230693940857,0.0021475859626151773
0.0167586,0.003698450101545582,0.033077944615167554,0.012631109357051954,0.013443824138947565,0.02696954276767697,-0.0009396067588444071,0.0031640784004438286,0.0021810351870667484
0.0172241,0.003878177465905215,0.033572881293343154,0.012739303364674342,0.013616776990923164,0.02778665757864145,-0.0004377526536327069,0.0032420527980992495,0.0022145444848197674
0.0176897,0.004056407123116286,0.034067122387505054,0.012845839269211434,0.013788573953932728,0.028599144734149422,6.0837051625791594e-05,0.0033201574979248244,0.0022481107420485097
0.0181552,0.0042331165103947225,0.03456063096420159,0.012950707121289835,0.013959183721240182,0.029406897413475398,0.0005561109053501957,0.003398396276965665,0.0022817308408932145
0.0186207,0.00440828344289217,0.03505337063172781,0.013053897423566089,0.014128575211738712,0.0302098099108724,0.0010480183361526597,0.00347677307706142,0.00231540165998478
0.0190862,0.004581886119000596,0.03554530554710929,0.013155401131453215,0.014296717580691646,0.03100777766193637,0.0015365096621119398,0.003555292003498873,0.002349120074961978
0.0195517,0.00475390312549802,0.03603640042267817,0.013255209653633538,0.014463580230454567,0.0318006972695261,0.0020215360996606387,0.003633957323551321,0.0023828829589812904
0.0200172,0.004924313442534309,0.03652662053224039,0.013353314852360743,0.014629132821175084,0.03258846652923668,0.0025030497720883818,0.003712773464906195,0.0024166871832194377
0.0204828,0.0050930964484559955,0.0370159317168332,0.013449709043554187,0.014793345281466525,0.033370984454425386,0.0029810037176634515,0.0037917450139824827,0.0024505296173686743
0.0209483,0.005260231924469057,0.037504300390072916,0.013544384996688606,0.014956187819051834,0.03414815130078946,0.0034553518973756605,0.003870876714139632,0.0024844071301249023
0.0214138,0.005425700059138576,0.03799169354309354,0.0136373359344824,0.015117630931373914,0.03491986859049649,0.003926049202303459,0.003950173463779709,0.0025183165896686473
0.0218793,0.005589481452724202,0.03847807874907768,0.013728555532387821,0.01527764541616848,0.03568603913586881,0.004393051460608408,0.004029640314344636,0.0025522548641389183
0.0223448,0.005751557121350318,0.038963424167381945,0.013818037917886357,0.015436202381995476,0.03644656706262377,0.004856315444160229,0.004109282468210425,0.002586218822099969
0.0228103,0.005911908501009845,0.03944769854725952,0.01390577766959263,0.01559327325872501,0.03720135783267245,0.005315798874795689,0.004189105276480313,0.0026202053330009784
0.0232759,0.006070517451400632,0.039930871231182864,0.013991769816170103,0.015748829807973607,0.037950318266479044,0.005771460430214624,0.004269114236678766,0.0026542112676286546
0.0237414,0.006227366259593343,0.040412912157769744,0.014076009835061867,0.01590284413348656,0.03869335656498344,0.006223259749516453,0.004349314990348299,0.002688233498552782
0.0242069,0.006382437643529837,0.04089379186431548,0.0141584936510397,0.016055288691461986,0.03943038233108892,0.006671157438380626,0.00442971332055107,0.0027222689005647273
0.0246724,0.00653571475535103,0.04137348148893438,0.014239217634574456,0.0162061363008122,0.040161306590717046,0.007115115073894561,0.004510315149277166,0.002756314351108942
0.0251379,0.006687181184553288,0.04185195277231318,0.014318178600030812,0.016355360153358048,0.040886041813431515,0.007555095209032726,0.004591126534761487,0.002790366730707514
0.0256034,0.006836820960972525,0.042329178059079216,0.014395373803689293,0.016502933823951783,0.041604501932632654,0.00799106137679064,0.004672153668711124,0.002824422923377857
0.026069,0.006984618557595267,0.04280513029878637,0.014470800941598356,0.016648831280524266,0.042316602365324085,0.008422978093977712,0.004753402873445079,0.0028584798170436356
0.0265345,0.007130558893196141,0.04327978304652156,0.014544458147259385,0.01679302689405222,0.04302226003145306,0.008850810864673049,0.004834880598948187,0.002892534303939039
0.027,0.007274627334801362,0.04375311046313494,0.014616343989147329,0.016935495448441366,0.04372139337282569,0.009274526183348437,0.004916593419841084,0.002926583281006514
0.0274655,0.0074168096999780615,0.04422508731509696,0.014686457468069743,0.017076212150321263,0.044413922371598254,0.009694091537662815,0.00499854803226806,0.0029606236502880776
0.027931,0.007557092258949485,0.04469568897398567,0.014754798014367009,0.017215152638747636,0.04509976856834571,0.010109475410932543,0.0050807512507046486,0.0029946523193103043
0.0283966,0.007695461736536326,0.04516489141560825,0.01482136548495662,0.017352292994807898,0.045778855079708664,0.010520647284281787,0.005163210004686806,0.0030286662014631116
0.0288621,0.007831905313924695,0.04563267121876129,0.014886160160224371,0.01748760975112552,0.046451106615620484,0.010927577638477372,0.005245931335463534,0.003062662216372443
0.0293276,0.007966410630261453,0.046099005563635276,0.014949182740765501,0.01762107990125871,0.0471164494961163,0.011330237955452564,0.005328922392574835,0.0030966372902669643
0.0297931,0.008098965784077792,0.04656387222986955,0.01501043434397882,0.017752680908988714,0.047774811667726194,0.011728600719524283,0.005412190430356886,0.003130588356338897
0.0302586,0.008229559334542133,0.04702724959426477,0.015069916500517032,0.01788239071749299,0.04842612271945485,0.01212263941830837,0.005495742804376312,0.003164512355099087
0.0307241,0.008358180302543395,0.04748911662816043,0.015127631150596472,0.01801018775839831,0.04907031389835006,0.012512328543337566,0.005579586967795446,0.0031984062347264436
0.0311897,0.008484818171605837,0.047949452894485926,0.015183580640169702,0.01813605096070865,0.04970731812466235,0.012897643590386853,0.00566373046767045,0.0032322669514118396
0.0316552,0.008609462888636654,0.04840823854449337,0.015237767716964421,0.01825995975960274,0.050337070006597755,0.013278561059510828,0.005748180941184145,0.00326609146969659
0.0321207,0.008732104864507675,0.048865454314181274,0.015290195526392315,0.01838189410509597,0.0509595058546653,0.013655058454797735,0.005832946111815441,0.0032998767628056236
0.0325862,0.008852734974472674,0.049321081520418066,0.015340867607331578,0.01850183447056121,0.05157456369562069,0.014027114283844825,0.005918033785447225,0.0033336198129754577
0.0330517,0.008971344558421954,0.04977510205677512,0.015389787887786948,0.018619761861103323,0.05218218328600719,0.014394708056959736,0.0060034518464145824,0.0033673176117770963
0.0335172,0.009087925420976098,0.05022749838907849,0.015436960680431192,0.018735657821781854,0.05278230612529441,0.014757820286092606,0.006089208253495212,0.003400967160433991
0.0339828,0.00920246983142095,0.05067825355068885,0.015482390678032133,0.01884950444567663,0.0533748754686153,0.015116432483503512,0.006175311035843913,0.003434565470135169
0.0344483,0.009314970523485943,0.05112735113751941,0.015526082948769336,0.01896128438179087,0.05395983633910138,0.015470527160169889,0.006261768288872973,0.003468109562343636
0.0349138,0.009425420694967938,0.05157477530280111,0.015568042931444677,0.019070980842786387,0.054537135539815595,0.015820087823938424,0.006348588170080335,0.0035015964691001407
0.0353793,0.009533814007202787,0.05202051075160492,0.01560827643059113,0.019178577612545464,0.05510672166528243,0.01616509897742589,0.006435778894827359,0.0035350232333223653
0.0358448,0.009640144584386726,0.05246454273513116,0.015646789611484097,0.01928405905355392,0.05566854511261422,0.01650554611567326,0.006523348732068065,0.003568386909099583
0.0363103,0.00974440701274979,0.05290685704477517,0.01568358899505975,0.01938741011409977,0.056222558092232526,0.01684141572355746,0.006611306000031639,0.0036016845619827975
0.0367759,0.00984659633958343,0.053347440005979026,0.015718681452744816,0.01948861633528177,0.056768714638182845,0.017172695272964965,0.006699659061860043,0.003634913269270352
0.0372414,0.009946708072124569,0.05378627847187857,0.01575207420120223,0.019587663857822287,0.05730697061804059,0.017499373219731326,0.0067884163212025145,0.0036680701202890017
0.0377069,0.01004473817629832,0.05422335981675508,0.0157837747969972,0.019684539428678684,0.05783728374240582,0.017821439000350756,0.006877586217768716,0.003701152216670383
0.0381724,0.010140683075321741,0.05465867192930085,0.01581379113118802,0.01977923040744792,0.058359613573983796,0.01813888302845971,0.0069671772228422696,0.003734156672622825
0.0386379,0.010234539648170983,0.05509220320570794,0.015842131423846068,0.019871724772558882,0.058873921536248076,0.018451696691098363,0.007057197834756338,0.0037670806151984047
0.0391034,0.010326305227914348,0.055523942542589265,0.01586880421850933,0.01996201112724746,0.059380170921682476,0.018759872344753802,0.007147656574332916,0.0037999211845551463
0.039569,0.010415977599913721,0.05595387932974102,0.015893818376573627,0.020050078705309365,0.05987832689959758,0.01906340331118867,0.007238561980287408,0.0038326755342142044
0.0400345,0.01050355499989699,0.056382003442755346,0.015917183071625766,0.020135917376625765,0.06036835652351757,0.019362283873058838,0.007329922604600037,0.003865340831311875
0.0405,0.010589036111904076,0.05680830523549175,0.015938907783722554,0.020219517652456817,0.06085022873813239,0.019656509269323625,0.007421747007855563,0.003897914256846233
0.0409655,0.010672420066109222,0.05723277553241534,0.015959002293619677,0.020300870690497984,0.06132391438581003,0.019946075690452026,0.007514043754552762,0.003930393005918169
0.041431,0.010753706436522183,0.05765540562080996,0.015977476676954174,0.020379968299693962,0.0617893862126631,0.020230980273428227,0.007606821408385075,0.00396277428796659
0.0418966,0.010832895238571002,0.05807618724287345,0.01599434129838422,0.020456802944804887,0.062246618874163724,0.02051122109655967,0.007700088527493801,0.003995055326997542
0.0423621,0.010909986926569028,0.05849511258770261,0.01600960680568976,0.020531367750719245,0.06269558894030042,0.02078679717409077,0.007793853659695225,0.004027233361806999
0.0428276,0.010984982391068886,0.05891217428317464,0.016023284123837418,0.0206036565065079,0.06313627490027018,0.02105770845062533,0.007888125337683025,0.004059305646197144
0.0432931,0.011057882956106093,0.059327365387732194,0.01603538444901294,0.02067366366921348,0.06356865716669882,0.02132395579536063,0.007982912074207336,0.004091269449185917
0.0437586,0.011128690376334962,0.05974067938207882,0.016045919242624367,0.020741384367369317,0.06399271807938209,0.021585540996135986,0.008078222357231865,0.00412312205520969
0.0442241,0.011197406834059436,0.06015211016079182,0.016054900225278952,0.020806814404242004,0.06440844190853992,0.021842466753298664,0.008174064645070455,0.0041548607643188545
0.0446897,0.011264034936161465,0.060561652023859686,0.016062339370736763,0.020869950260791817,0.0648158148575754,0.022094736673389802,0.008270447361504512,0.004186482892366134
0.0451552,0.011328577710929454,0.06096929966815144,0.01606824889984376,0.020930789098345164,0.06521482506533012,0.02234235526265292,0.00836737889088273,0.004217985771187435
0.0456207,0.011391038604789306,0.061375048178825664,0.016072641274447054,0.020989328760973574,0.06560546260782686,0.022585327920367576,0.008464867573204513,0.0042493667487750264
0.0460862,0.011451421478940522,0.06177889302068725,0.01607552919129497,0.02104556777757395,0.06598771949949002,0.022823660932010548,0.008562921699188498,0.004280623189442871
0.0465517,0.011509730605899765,0.06218083002950039,0.01607692557592439,0.021099505363645164,0.06636158969383403,0.023057361462246694,0.008661549505327576,0.004311752473983939
0.0470172,0.011565970665954278,0.0625808554032657,0.016076843576537814,0.021151141422756415,0.06672706908360934,0.023286437547751632,0.008760759168931749,0.004342751999819343
0.0474828,0.01162014674352737,0.06297896569346988,0.01607529655787249,0.021200476547703333,0.06708415550039519,0.023510898089868136,0.008860558803160182,0.004373619181139156
0.0479483,0.011672264323458246,0.06337515779631528,0.01607229809506388,0.021247512021347958,0.06743284871362795,0.023730752847098056,0.008960956452043735,0.004404351449034789
0.0484138,0.011722329287198279,0.06376942894393732,0.016067861967505738,0.021292249817139064,0.06777315042905338,0.0239460124274313,0.009061960085499284,0.004434946251622855
0.0488793,0.011770347908925822,0.06416177669561639,0.01606200215270908,0.021334692599309327,0.06810506428659092,0.024156688280513493,0.009163577594337165,0.004465401054160455
0.0493448,0.011816326851581677,0.06455219892899129,0.016054732820162194,0.02137484372274583,0.06842859585759778,0.024362792689653797,0.00926581678526307,0.004495713339151848
0.0498103,0.011860273162827199,0.06494069383128098,0.016046068325193896,0.021412707232530453,0.06874375264152023,0.02456433876367466,0.009368685375875813,0.0045258806064464715
0.0502759,0.01190219427092709,0.06532725989052113,0.01603602320284219,0.021448287863146707,0.06905054406191956,0.02476134042860518,0.009472190989662479,0.004555900373328314
0.0507414,0.011942097980558883,0.06571189588682232,0.016024612161730345,0.021481591037349767,0.06934898146185973,0.02495381241922003,0.009576341150992523,0.004585770174596718
0.0512069,0.01197999246855109,0.06609460088365693,0.016011850077952472,0.021512622864696768,0.06963907809864425,0.025141770270426026,0.00968114328011255,0.004615487562638737
0.0516724,0.012015886279551968,0.06647537421918141,0.015997751988970698,0.02154139013973488,0.06992084913788903,0.02532523030849849,0.00978660468814362,0.00464505010749329
0.0521379,0.012049788321630915,0.06685421549760089,0.015982333087526102,0.021567900339845483,0.0701943116469184,0.02550420964216965,0.009892732572082955,0.004674455396907359
0.0526034,0.012081707861814414,0.06723112458058265,0.01596560871556568,0.021592161622744015,0.07045948458747085,0.02567872615357145,0.00999953400981196,0.004703701036384581
0.053069,0.012111654521558424,0.06760610157872528,0.0159475943581877,0.02161418282363664,0.07071638880770066,0.025848798489035194,0.010107015955112422,0.004732784649226547
0.0535345,0.012139638272159097,0.06797914684308946,0.015928305637607974,0.021633973452036243,0.0709650470334612,0.026014446049750315,0.010215185232692763,0.004761703876567115
0.054,0.012165669430103585,0.0683502609567969,0.01590775830714959,0.021651543688241622,0.07120548385885582,0.02617568898228448,0.010324048533226054,0.004790456377400066
0.0544655,0.0121897586523627,0.06871944472670298,0.015885968245258807,0.02166690437948422,0.07143772573604153,0.026332548168967088,0.010433612408401512,0.004819039828600392
0.054931,0.012211916931627079,0.06908669917514901,0.01586295144954972,0.02168006703574717,0.07166180096427113,0.026485045218138232,0.010543883265991068,0.0048474519249395364
0.0553966,0.012232155591488537,0.06945202553179904,0.01583872403088046,0.021691043825261543,0.07187773967815973,0.026633202454265033,0.01065486736493253,0.004875690379094897
0.0558621,0.012250486281568307,0.06981542522556577,0.015813302207463402,0.021699847569684596,0.072085573835163,0.026777042907927436,0.010766570810430752,0.00490375292165389
0.0563276,0.012266920972593773,0.07017689987663014,0.015786702299012037,0.021706491738964922,0.07228533720225638,0.02691659030567547,0.010878999549078179,0.0049316373011128655
0.0567931,0.012281471951425382,0.07053645128855841,0.015758940720926828,0.021710990445899372,0.07247706534180699,0.02705186905976007,0.01099215936399606,0.0049593412838711435
0.0572586,0.01229415181603532,0.07089408144052091,0.015730033978522354,0.021713358440386823,0.07266079559663237,0.02718290425773932,0.011106055869997529,0.0049868626542204164
0.0577241,0.012304973470439592,0.07124979247961614,0.01569999866129797,0.02171361110338379,0.07283656707424278,0.02730972165196216,0.011220694508773815,0.0050141992143297705
0.0581897,0.012313950119584987,0.071603586713304,0.015668851437254043,0.02171176444056711,0.07300442063026506,0.027432347648931443,0.011336080544104857,0.0050413487842265355
0.0586552,0.012321095264192389,0.07195546660195197,0.015636609047255827,0.021707835075708934,0.07316439885104681,0.02755080929854836,0.01145221905709574,0.005068309201773163
0.0591207,0.01232642269555787,0.07230543475149788,0.015603288299446906,0.021701840243769244,0.07331654603544081,0.027665134283240432,0.011569114941440542,0.00509507832264032
0.0595862,0.012329946490312998,0.07265349390623235,0.015568906063714092,0.021693797783711118,0.07346090817577051,0.027775350906975457,0.011686772898715416,0.005121654020276349
0.0600517,0.012331681005145805,0.07299964694170426,0.015533479266205635,0.021683726131044155,0.07359753293797879,0.027881488084163717,0.011805197433702947,0.005148034185873268
0.0605172,0.012331640871483945,0.07334389685775176,0.015497024883904599,0.02167164431010131,0.07372646964096394,0.027983575328450933,0.011924392849750044,0.005174216728329459
0.0609828,0.012329840990141788,0.07368624677166136,0.015459559939259062,0.021657571926054543,0.07384776923510934,0.028081642741404247,0.012044363244161665,0.005200199574209193
0.0614483,0.012326296525933212,0.0740266999114566,0.015421101494870887,0.02164152915667463,0.0739614842800151,0.02817572100109363,0.012165112503632872,0.005225980667699135
0.0619138,0.012321022902252069,0.0743652596093178,0.015381666648244674,0.021623536743840543,0.07406766892144347,0.028265841350570985,0.01228664429972184,0.00525155797056195
0.0623793,0.01231403579562226,0.07470192929513307,0.015341272526598568,0.02160361598480376,0.07416637886749307,0.028352035586249463,0.012408962084366757,0.005276929462087131
0.0628448,0.012305351130219392,0.07503671249018141,0.015299936281738452,0.021581788723212855,0.0742576713640201,0.028434336046185494,0.012532069085449715,0.005302093139039198
0.0633103,0.012294985072365943,0.07536961280094653,0.015257675084997141,0.02155807733990377,0.07434160516932685,0.028512775598266146,0.012655968302410973,0.005327047015603378
0.0637759,0.012282954025001801,0.07570063391306088,0.015214506122240104,0.0215325047434613,0.07441824052813979,0.02858738762830447,0.012780662501917204,0.005351789123328923
0.0642414,0.012269274622132028,0.07602977958537806,0.015170446588939174,0.021505094360557513,0.07448763914490031,0.02865820602804546,0.01290615421358738,0.005376317511070163
0.0647069,0.012253963723253682,0.07635705364417143,0.015125513685315707,0.021475870126072775,0.07454986415639124,0.028725265183085408,0.013032445725780125,0.005400630244925417
0.0651724,0.012237038407763547,0.07668245997745674,0.015079724611554601,0.021444856473005366,0.07460498010372262,0.02878859996070754,0.013159539081446353,0.005424725408173871
0.0656379,0.012218515969348552,0.07700600252943597,0.015033096563090473,0.02141207832217556,0.07465305290370014,0.02884824569763686,0.01328743607405101,0.005448601101210532
0.0661034,0.012198413910360731,0.07732768529506012,0.014985646725967227,0.021377561071730323,0.07469414981960024,0.028904238187717278,0.013416138243567832,0.005472255441479374
0.066569,0.012176749936178566,0.07764751231470819,0.014937392272272169,0.021341330586454932,0.0747283394313754,0.02895661366951429,0.013545646872550898,0.005495686563404783
0.0670345,0.012153541949556559,0.07796548766898002,0.014888350355645672,0.02130341318689806,0.07475569160531399,0.029005408813846688,0.013675962982286844,0.005518892618321441
0.0675,0.012128808044964837,0.07828161547360073,0.014838538106867324,0.021263835638317064,0.07477627746317868,0.02905066071125114,0.013807087329031508,0.005541871774402785
0.0679655,0.012102566502920624,0.07859589987443416,0.014787972629519343,0.021222625139450373,0.07479016935084812,0.0290924068593837,0.013939020400334819,0.005564622216588194
0.068431,0.012074835784313443,0.07890834504260284,0.014736670995727955,0.021179809311124,0.07479744080648668,0.02913068515036266,0.014071762411457632,0.00558714214650904
0.0688966,0.012045634524725865,0.07921895516971136,0.01468465024198334,0.021135416184699215,0.07479816652826707,0.02916553385805714,0.014205313301884208,0.005609429782413768
0.0693621,0.012014981528751599,0.07952773446317017,0.014631927365038645,0.021089474190368582,0.07479242234167112,0.029196991625325866,0.014339672731933968,0.005631483359092185
0.0698276,0.01198289576431279,0.07983468714161665,0.014578519317888549,0.021042012145307407,0.07478028516639396,0.029225097451210526,0.014474840079476097,0.0056533011277991796
0.0702931,0.011949396356978267,0.08013981743043076,0.014524443005827814,0.020993059241687744,0.074761832982877,0.029249890678088333,0.014610814436750537,0.005674881356178193
0.0707586,0.011914502584284541,0.08044312955734302,0.014469715282590181,0.02094264503456212,0.07473714479849536,0.029271410978788322,0.014747594607298815,0.0056962223281848265
0.0712241,0.01187823387006126,0.08074462774813322,0.014414352946568013,0.02089079942962409,0.07470630061342488,0.02928969834367628,0.014885179103008102,0.005717322344011057
0.0716897,0.01184060977876287,0.08104431622241909,0.014358372737112967,0.0208375526708528,0.07466938138621457,0.029304793067713213,0.015023566141271797,0.005738179720010552
0.0721552,0.011801650009808151,0.0813421991895349,0.014301791330917996,0.020782935328048712,0.07462646899908949,0.029316735737492373,0.015162753642269862,0.005758792788625575
0.0726207,0.011761374391929261,0.08163828084450046,0.014244625338480787,0.020726978284267655,0.07457764622300964,0.029325567218259893,0.01530273922637205,0.005779159898315994
0.0730862,0.011719802877531962,0.08193256536408136,0.014186891300648773,0.020669712723160233,0.07452299668250953,0.029331328640924005,0.015443520211667039,0.0057992794134909395
0.0735517,0.011676955537068564,0.08222505690294148,0.014128605685245692,0.020611170116223577,0.07446260482034373,0.029334061389057628,0.015585093611620348,0.005819149714443596
0.0740172,0.011632852553425114,0.08251575958988819,0.014069784883779643,0.02055138220997223,0.07439655586196264,0.029333807085899,0.0157274561328639,0.0058387691972897095
0.0744828,0.011587514216324282,0.082804677524211,0.014010445208232466,0.02049038101303479,0.07432493577984314,0.029330607581355046,0.015870604173119866,0.0058581362739103405
0.0749483,0.01154096091674539,0.08309181477211416,0.013950602887930248,0.020428198783182853,0.07424783125769766,0.029324504939011894,0.016014533819261347,0.005877249371899438
0.0754138,0.01149321314136292,0.08337717536324397,0.013890274066494752,0.02036486801429865,0.0741653296545858,0.029315541423157124,0.01615924084551234,0.005896106934516764
0.0758793,0.011444291467004776,0.08366076328731178,0.013829474798875445,0.020300421423287644,0.07407751896895179,0.029303759485818388,0.01630472071178923,0.005914707420646726
0.0763448,0.011394216555131516,0.08394258249081399,0.013768221048461796,0.020234891936942147,0.0739844878026106,0.029289201753823046,0.01645096856218602,0.005933049304763572
0.0768103,0.011343009146337716,0.08422263687385081,0.013706528684275444,0.020168312678761964,0.07388632532470586,0.029271911015883514,0.016597979223605237,0.0059511310769034655
0.0772759,0.01129069005487657,0.0845009302870463,0.013644413478241788,0.02010071695573783,0.07378312123566158,0.029251930209713017,0.016745747204536414,0.005968951242643874
0.0777414,0.011237280163208801,0.08477746652857247,0.013581891102540527,0.020032138245103463,0.07367496573114986,0.029229302409176476,0.016894266693983837,0.0059865083230907536
0.0782069,0.011182800416576998,0.08505224934128129,0.013518977127034653,0.01996261018106193,0.07356194946609594,0.029204070811481277,0.01704353156054519,0.00600380085487398
0.0786724,0.011127271817606482,0.08532528240994888,0.013455687016777355,0.019892166541492205,0.07344416351874176,0.02917627872441286,0.01719353535164246,0.006020827390151507
0.0791379,0.011070715420933895,0.08559656935863598,0.013392036129596344,0.019820841234641767,0.07332169935478851,0.02914596955361993,0.01734427129290643,0.0060375864966227405
0.0796034,0.011013152327864767,0.08586611374816915,0.013328039713755076,0.01974866828581114,0.07319464879163834,0.029113186789954115,0.017495732287715882,0.00605407675755157
0.080069,0.010954603681061279,0.08613391907374657,0.013263712905690355,0.01967568182403623,0.07306310396275505,0.02907797399686875,0.017647910916892568,0.006070296771799488
0.0805345,0.010895090659261673,0.08639998876267192,0.013199070727825817,0.01960191606877445,0.07292715728216263,0.02904037479788128,0.017800799438552763,0.0060862451538692035
0.081,0.010834634472032586,0.08666432617221925,0.013134128086460764,0.019527405316600452,0.0727869014091007,0.029000432864103642,0.0179543897881162,0.00610192053395913
0.0814655,0.010773256354555755,0.08692693458763195,0.01306889976973381,0.019452183927917435,0.07264242921285477,0.028958191901844833,0.018108673578472997,0.006117321558029091
0.081931,0.010710977562450407,0.08718781722025877,0.013003400445660859,0.019376286313689994,0.07249383373777932,0.028913695640289668,0.018263642100309067,0.006132446887877568
0.0823966,0.010647819366632687,0.08744697720582972,0.01293764466024697,0.019299746922204583,0.07234120816853068,0.028866987819257613,0.018419286322590357,0.006147295201230745
0.0828621,0.010583803048213358,0.08770441760287455,0.012871646835671715,0.019222600225863643,0.07218464579552655,0.02881811217704551,0.018575596893206224,0.0061618651918436095
0.0833276,0.010518949893434954,0.08796014139128593,0.012805421268547628,0.019144880708019344,0.07202423998064779,0.028767112438358104,0.018732564139772024,0.006176155569613309
0.0837931,0.01045328118864946,0.08821415147102933,0.012738982128251445,0.019066622849852943,0.07186008412319811,0.02871403230233012,0.018890178070590832,0.006190165060704967
0.0842586,0.010386818215337577,0.08846645066100113,0.012672343455327716,0.0189878611173056,0.07169227162613628,0.028658915430643764,0.019048428375774182,0.006203892407690158
0.0847241,0.01031958224517048,0.08871704169803568,0.012605519159964367,0.018908629948066472,0.0715208958625952,0.02860180543574547,0.019207304428521397,0.006217336369698172
0.0851897,0.01025159453511499,0.08896592723606248,0.012538523020539696,0.018828963738623753,0.07134605014270132,0.028542745869165706,0.019366795286557166,0.006230495722580248
0.0856552,0.010182876322582983,0.08921310984541353,0.012471368682240157,0.018748896831384303,0.07116782768070753,0.0284817802099456,0.019526889693726655,0.006243369259086899
0.0861207,0.01011344882062587,0.08945859201228139,0.012404069655748282,0.018668463501867395,0.07098632156245199,0.02841895185317382,0.019687576081747454,0.0062559557890584224
0.0865862,0.010043333213174972,0.08970237613832803,0.012336639315999912,0.018587697945977966,0.07080162471315458,0.028354304098637303,0.019848842572117418,0.006268254139628702
0.0870517,0.009972550650328631,0.08994446454044412,0.012269090901009813,0.018506634267364694,0.07061382986556257,0.028287880139589137,0.020010676978177377,0.006280263155442374
0.0875172,0.00990112224368686,0.09018485945065749,0.012201437510764723,0.018425306464868,0.07042302952845614,0.02821972305163693,0.020173066807327566,0.00629198169888546
0.0879828,0.009829069061734414,0.09042356301618981,0.012133692106182729,0.018343748420063016,0.0702293159555241,0.028149875781754943,0.02033599926339638,0.006303408650329516
0.0884483,0.009756412125273081,0.09066057729965986,0.012065867508137798,0.01826199388490235,0.07003278111461964,0.028078381137423197,0.020499461249160106,0.006314542908389388
0.0889138,0.00968317240290404,0.09089590427943205,0.011997976396548227,0.018180076469463406,0.06983351665740546,0.028005281775896677,0.020663439369011927,0.006325383390194613
0.0893793,0.009609370806561122,0.09112954585010856,0.01193003130952768,0.01809802962980486,0.06963161388939815,0.02793062019360756,0.02082791993177865,0.00633592903167449
0.0898448,0.009535028187095755,0.09136150382316366,0.011862044642597424,0.018015886655936716,0.0694271637404205,0.02785443871570339,0.020992888953683213,0.006346178787856822
0.0903103,0.009460165329914332,0.09159177992771851,0.011794028647958305,0.017933680659908267,0.06922025673547133,0.027776779485723855,0.02115833216145108,0.0063561316331803295
0.0907759,0.009384802950668708,0.09182037581145479,0.01172599543382101,0.017851444564018073,0.0690109829660219,0.027697684455418797,0.021324234995558477,0.006365786561820663
0.0912414,0.009308961691000421,0.09204729304166483,0.011657956963793162,0.017769211089149955,0.06879943206174816,0.027617195374709948,0.021490582613620263,0.006375142588029982
0.0917069,0.009232662114339202,0.09227253310643639,0.011589925056321766,0.017687012743238858,0.06858569316270785,0.02753535378179881,0.021657359893915026,0.00638419874648995
0.0921724,0.009155924701756264,0.09249609741597031,0.01152191138418956,0.017604881809870257,0.0683698548919712,0.027452200993422958,0.021824551439044874,0.0063929540926780225
0.0926379,0.009078769847872818,0.09271798730402897,0.011453927474063805,0.017522850337016702,0.06815200532871352,0.027367778095263074,0.02199214157972731,0.00640140770324681
0.0931034,0.009001217856824215,0.09293820402951479,0.011385984706096074,0.017440950125914897,0.0679322319817784,0.027282125932503037,0.022160114378716393,0.006409558676416302
0.093569,0.008923288938280084,0.09315674877817846,0.01131809431357158,0.017359212720086652,0.06771062176371963,0.027195285100545058,0.022328453634850264,0.006417406132378696
0.0940345,0.008845003203520814,0.09337362266445647,0.011250267382606548,0.017277669394506912,0.06748726096532968,0.02710729593588206,0.02249714288722202,0.006424949213715557
0.0945,0.008766380661570731,0.09358882673343774,0.011182514851892197,0.01719635114492189,0.06726223523066298,0.02701819850712913,0.022666165419470682,0.00643218708582701
0.0949655,0.008687441215388354,0.0938023619629591,0.011114847512483773,0.017115288677320366,0.06703562953256136,0.026928032606215797,0.022835504264188938,0.006439118937372646
0.095431,0.008608204658114163,0.09401422926582782,0.011047276007633113,0.01703451239756106,0.06680752814869008,0.026836837739740826,0.023005142207444176,0.00644574398072382
0.0958966,0.008528690669376317,0.09422442949216989,0.010979810832663061,0.016954052401159,0.06657801463809249,0.026744653120491166,0.02317506179340942,0.006452061452427052
0.0963621,0.008448918811654741,0.09443296343190184,0.010912462334882099,0.01687393846323366,0.06634717181827203,0.026651517659126427,0.023345245329100577,0.00645807061367825
0.0968276,0.00836890852670407,0.09463983181732351,0.010845240713537438,0.016794200028621708,0.06611508174281032,0.026557469956030456,0.0235156748892167,0.00646377075080748
0.0972931,0.008288679132035891,0.09484503532582982,0.010778156019804856,0.016714866202156942,0.06588182567953026,0.026462548293331285,0.023686332321079983,0.006469161175773972
0.0977586,0.008208249817460732,0.0950485745827396,0.010711218156813581,0.016635965739120174,0.06564748408921266,0.026366790627090696,0.023857199249672643,0.006474241226671064
0.0982241,0.008127639641690188,0.09525045016423925,0.010644436879704493,0.016557527035861424,0.0654121366048748,0.026270234579664663,0.024028257082768185,0.006479010268240689
0.0986897,0.008046867528999588,0.09545066260043929,0.010577821795719995,0.016479578120596968,0.06517586201161875,0.026172917432235664,0.024199487016155163,0.006483467692396974
0.0991552,0.007965952265951516,0.09564921237854197,0.010511382364323793,0.01640214664438351,0.0649387382270568,0.026074876117517853,0.02437087003895173,0.006487612918758524
0.0996207,0.007884912498180472,0.09584609994611731,0.010445127897348909,0.016325259872271722,0.0647008422823209,0.025976147212635994,0.024542386939009744,0.006491445395188834
0.1000862,0.007803766727238889,0.09604132571448509,0.010379067559172117,0.016248944674641313,0.0644622503036624,0.025876766932179118,0.024714018308407134,0.006494964598344305
0.1005517,0.007722533307504664,0.0962348900622,0.010313210366912988,0.016173227518719836,0.06422303749464796,0.025776771121429745,0.02488574454902732,0.006498170034229309
0.1010172,0.007641230443150348,0.09642679333863635,0.010247565190655743,0.016098134460287256,0.06398327811895697,0.02567619524976968,0.025057545878224396,0.006501061238757639
0.1014828,0.007559876185174026,0.0966170358676686,0.01018214075369218,0.016023691135568334,0.06374304548378548,0.02557507440426349,0.02522940233457263,0.0065036377783197355
0.1019483,0.007478488428491951,0.09680561795144324,0.010116945632784152,0.015949922753314773,0.0635024119238611,0.025473443283420966,0.025401293783698913,0.0065058992503549745
0.1024138,0.007397084909092873,0.09699253987423766,0.010051988258444352,0.015876854087079024,0.06326144878607301,0.025371336191139633,0.0255731999241963,0.006507845283928373
0.1028793,0.007315683201254013,0.0971778019064005,0.009987276915234582,0.01580450946768153,0.06302022641472091,0.025268787030828643,0.025745100293617006,0.006509475540311002
0.1033448,0.007234300714818591,0.09736140430836851,0.009922819742080938,0.01573291277587318,0.0627788141373858,0.02516582929971499,0.025916974274542832,0.0065107897135634404
0.1038103,0.0071529546925347695,0.09754334733475398,0.009858624732605657,0.0156620874351945,0.0625372802514256,0.025062496083333087,0.02608880110073083,0.006511787531121544
0.1042759,0.007071662207455909,0.09772363123849774,0.00979469973547561,0.015592056405033156,0.062295692011098,0.02495882005019863,0.026260559863332002,0.006512468754383832
0.1047414,0.006990440160402025,0.09790225627508174,0.009731052454767545,0.015522842173881094,0.062054115615312266,0.024854833446667748,0.026432229517180474,0.00651283317929975
0.1052069,0.006909305277482359,0.098079222706795,0.009667690450350304,0.015454466752792575,0.06181261619601172,0.024750568091982325,0.02660378888715055,0.006512880636958101
0.1056724,0.0068282741076789695,0.09825453080704695,0.009604621138284314,0.0153869516690442,0.06157125780718814,0.024646055373502573,0.026775216674579057,0.0065126109941749215
0.1061379,0.006747363020491286,0.09842818086472128,0.009541851791238723,0.015320317959997932,0.06133010341452934,0.02454132624212795,0.026946491463750177,0.006512024154080161
0.1066034,0.006666588203641611,0.09860017318856411,0.009479389538926533,0.01525458616716792,0.06108921488570092,0.024436411207907474,0.02711759172844008,0.006511120056702565
0.107069,0.006585965660841577,0.09877050811159942,0.009417241368558163,0.015189776330491908,0.06084865298126317,0.02433134033584049,0.027288495838518518,0.006509898679552257
0.1075345,0.006505511209619674,0.09893918599556514,0.009355414125313807,0.015125907982807862,0.06060847734622397,0.024226143241868975,0.02745918206660464,0.006508360038200594
0.108,0.006425240479210037,0.09910620723536329,0.009293914512834983,0.015063000144536437,0.06036874650222793,0.024120849089062438,0.0276296285947739,0.006506504186856944
0.1084655,0.006345168908502747,0.09927157226351774,0.009232749093735603,0.015001071318569908,0.060129517840381806,0.024015486583996427,0.027799813521313103,0.006504331218942076
0.108931,0.006265311744056008,0.0994352815546338,0.00917192429013285,0.014940139485368162,0.05989084761471572,0.02391008397332555,0.02796971486752036,0.006501841267657903
0.1093966,0.006185684038170495,0.0995973356298542,0.009111446384198096,0.014880222098262385,0.05965279093627925,0.023804669040551812,0.02813931058454671,0.006499034506553308
0.1098621,0.006106300647026247,0.09975773506130657,0.009051321518728006,0.014821336078967073,0.05941540176787096,0.023699269102989064,0.028308578560276104,0.006495911150085836
0.1103276,0.006027176228882385,0.09991648047653803,0.008991555697735945,0.014763497813300898,0.059178732919399644,0.02359391100892418,0.02847749662624053,0.006492471454179045
0.1107931,0.005948325242339919,0.10007357256293385,0.008932154787063731,0.01470672314711695,0.05894283604387502,0.023488621134975532,0.02864604256456696,0.0064887157167752485
0.1112586,0.005869761944667858,0.10022901207211733,0.008873124515013701,0.014651027382442824,0.05870776163402547,0.02338342538364916,0.028814194114953104,0.006484644278383406
0.1117241,0.005791500390192823,0.1003827998243298,0.008814470473001062,0.014596425273830772,0.0584735590195399,0.0232783491810929,0.028981928981668917,0.006480257522621857
0.1121897,0.005713554428752344,0.10053493671279005,0.008756198116226356,0.01454293102491826,0.058240276364930656,0.023173417475048596,0.029149224840581026,0.0064755558767556325
0.1126552,0.005635937704211978,0.10068542370803406,0.00869831276436787,0.014490558285199101,0.058007960668014176,0.023068654733002267,0.029316059346197357,0.006470539812228037
0.1131207,0.005558663653046358,0.10083426186223579,0.008640819602293683,0.014439320147005264,0.05777665775900551,0.022964084940532058,0.029482410138729202,0.006465209845186239
0.1135862,0.005481745502984252,0.10098145231351109,0.008583723680793052,0.014389229142699564,0.057546412300222505,0.0228597315998536,0.029648254851168156,0.006459566537000554
0.1140517,0.005405196271717666,0.10112699629020616,0.008527029917326763,0.014340297242079334,0.057317267786395246,0.022755617728562345,0.029813571116375472,0.006453610494777102
0.1145172,0.005329028765674982,0.10127089511517287,0.00847074309679604,0.01429253584999127,0.05708926654557592,0.022651765858572544,0.029978336574181797,0.006447342371863467
0.1149828,0.005253255578858097,0.10141315021003243,0.008414867872329585,0.01424595580415765,0.056862449740643896,0.022548198035252428,0.03014252887849541,0.006440762868346957
0.1154483,0.00517788909174344,0.10155376309942904,0.008359408766088346,0.014200567373214087,0.05663685737140091,0.022444935816755433,0.03030612570441758,0.006433872731545046
0.1159138,0.005102941470246767,0.10169273541527452,0.008304370170087583,0.014156380254958967,0.056412528277250476,0.022342000273547154,0.03046910475536366,0.0064266727564875215
0.1163793,0.005028424664751525,0.10183006890098424,0.008249756347035831,0.014113403574814751,0.05618950014045589,0.02223941198812787,0.030631443770188487,0.0064191637863898745
0.1168448,0.004954350409200577,0.10196576541570439,0.008195571431190325,0.014071645884501383,0.055967809489970495,0.022137191054950323,0.030793120530314553,0.006411346713117397
0.1173103,0.004880730220251019,0.1020998269385298,0.008141819429228498,0.01403111516092203,0.055747491705833714,0.022035357080532586,0.03095411286686135,0.006403222477639471
0.1177759,0.004807575396491778,0.10223225557271125,0.008088504221135148,0.013991818805261505,0.05552858102412613,0.0219339291837656,0.031114398667773904,0.0063947920704734785
0.1182414,0.004734897017723644,0.10236305354985079,0.008035629561104929,0.01395376364229762,0.0553111105424763,0.02183292599641515,0.031273955884948475,0.006386056532117733
0.1187069,0.0046627059443013355,0.10249222323408347,0.007983199078459792,0.013916955919925696,0.055095112226111645,0.021732365663817726,0.031432762541353215,0.006377016953472835
0.1191724,0.004591012816537214,0.10261976712624352,0.007931216278581099,0.013881401308896353,0.054880616914445464,0.02163226584576971,0.03159079673814154,0.0063676744762508645
0.1196379,0.0045198280541661725,0.1027456878680125,0.007879684543856116,0.013847104902766626,0.054667654328191435,0.021532643717609105,0.031748036661755887,0.006358030293371816
0.1201034,0.004449161855871249,0.1028699882460471,0.007828607134638685,0.013814071218064349,0.054456253076997016,0.0214335159714889,0.031904460591019757,0.0063480856493466666
0.120569,0.004379024198869459,0.10299267119608399,0.007777987190223869,0.013782304194665678,0.054246440667586666,0.021334898817840873,0.03206004690421578,0.0063378418406464555
0.1210345,0.004309424838557339,0.10311373980701978,0.007727827729836432,0.013751807196385529,0.05403824351240567,0.02123680798702869,0.032214774086147945,0.006327300216056768
0.1215,0.00424037330821567,0.10323319732496367,0.00767813165363307,0.013722583011780573,0.05383168693875522,0.021139258731188857,0.03236862073518631,0.006316462177016994
0.1219655,0.004171878918772822,0.10335104715726073,0.00762890174371833,0.013694633855164425,0.05362679519840932,0.021042265826257834,0.032521565570292926,0.006305329177943745
0.122431,0.0041039507586261344,0.10346729287648392,0.007580140665174223,0.013667961367834545,0.053423591477703945,0.020945843574183713,0.03267358743802808,0.006293902726537819
0.1228966,0.004036597693520757,0.1035819382243933,0.0075318509671035505,0.013642566619510282,0.053222097908088385,0.020850005805320444,0.03282466531953604,0.0062821843840741845
0.1233621,0.003969828366485328,0.1036949871158611,0.007484035083687018,0.013618450109981375,0.053022335577128675,0.020754765881002665,0.03297477833750949,0.006270175765674568
0.1238276,0.0039036511978238434,0.1038064436427607,0.0074366953352542125,0.01359561177096616,0.05282432453995269,0.020660136696299018,0.03312390576313202,0.0062578785405623
0.1242931,0.003838074385163035,0.10391631207781829,0.007389833929368575,0.01357405096817859,0.052628083831126195,0.020566130682941646,0.03327202702299766,0.006245294432299126
0.1247586,0.003773105903554588,0.10402459687842577,0.0073434529619265,0.013553766503603158,0.05243363147694908,0.02047275981242944,0.033419121706006694,0.006232425219003773
0.1252241,0.003708753505631482,0.10413130269041364,0.0072975544182707335,0.013534756617976648,0.05224098450816085,0.020380035599302536,0.03356516957023656,0.00621927273355205
0.1256897,0.003645024721817714,0.10423643435178277,0.007252140174318273,0.0135170189934757,0.052050158973044054,0.020287969104585354,0.03371015054978685,0.00620583886375829
0.1261552,0.0035819268605906574,0.10433999689639448,0.007207211997702944,0.013500550756609036,0.05186116995091412,0.020196570939395336,0.033854044761596945,0.006192125552537925
0.1266207,0.003519467008795269,0.10444199555761867,0.007162771548932874,0.013485348481313277,0.05167403156598365,0.020105851268714458,0.033996832512234766,0.0061781347980509865
0.1270862,0.0034576520320093516,0.10454243577194026,0.0071188203825630555,0.013471408192251141,0.05148875700158906,0.02001581981532041,0.03413849430465488,0.006163868653826293
0.1275517,0.0033964885749590504,0.1046413231825247,0.007075359948383212,0.0134587253683109,0.05130535851476694,0.01992648586387431,0.03427901084492403,0.006149329228866136
0.1280172,0.003335983061983754,0.104738663642744,0.007032391592621114,0.013447294946305845,0.051123847451167395,0.019837858265161705,0.03441836304891196,0.006134518687731242
0.1284828,0.0032761416975495613,0.10483446321966472,0.006989916559161518,0.013437111324872474,0.050944234260291286,0.019749945440483436,0.03455653204894514,0.006119439250605808
0.1289483,0.0032169704668104458,0.10492872819749911,0.006947935990780845,0.013428168368566097,0.050766528511038266,0.019662755386192936,0.0346934992004209,0.006104093193342466
0.1294138,0.0031584751362162436,0.10502146508102134,0.006906450930397697,0.013420459412152337,0.050590738907551856,0.01957629567837649,0.034829246088379166,0.006088482847486991
0.1298793,0.0031006612541666033,0.10511268059894896,0.006865462322339232,0.013413977265093021,0.05041687330534782,0.019490573477672975,0.03496375453402896,0.00607261060028264
0.1303448,0.003043534151710025,0.10520238170728993,0.006824971013623392,0.013408714216224759,0.05024493872771176,0.019405595534229707,0.03509700660122637,0.006056478894653984
0.1308103,0.0029870989432871408,0.10529057559265419,0.006784977755256943,0.013404662038628466,0.05007494138235138,0.019321368192790987,0.03522898460290082,0.0060400902291700845
0.1312759,0.002931360527517411,0.10537726967552843,0.006745483203549234,0.013401811994687977,0.0499068866782885,0.019237897397915964,0.03535967110742606,0.0060234471579868705
0.1317414,0.0028763235880284225,0.10546247161351151,0.006706487921441543,0.013400154841335827,0.04974077924297614,0.01915518869932239,0.03548904894493218,0.006006552290768508
0.1322069,0.0028219925943270066,0.10554618930450703,0.006667992379851869,0.013399680835484243,0.04957662293962512,0.01907324725735281,0.03561710121355486,0.005989408292587534
0.1326724,0.0027683718027113912,0.10562843088986945,0.00662999695903496,0.013400379739639316,0.0494144208847253,0.018992077848559906,0.0357438112856179,0.005972017883803465
0.1331379,0.0027154652572236562,0.10570920475749902,0.0065925019499573885,0.013402240827696293,0.049254175465745904,0.01891168487140753,0.03586916281374498,0.005954383839919557
0.1336034,0.0026632767906417743,0.10578851954488107,0.006555507555687378,0.013405252890913943,0.04909588835899992,0.018832072352084252,0.03599313973689621,0.005936508991417395
0.134069,0.002611810025510569,0.10586638414206465,0.0065190138927990965,0.013409404244065806,0.04893956054765749,0.01875324395042602,0.036115726286325235,0.005918396223568961
0.1345345,0.0025610683752109523,0.10594280769457577,0.006483020992791089,0.013414682731766187,0.0487851923398937,0.018675202965944566,0.03623690699145214,0.005900048476225865
0.135,0.002511055045066841,0.10601779960626011,0.006447528803518489,0.013421075734968686,0.048632783387156014,0.018597952343958158,0.0363566666856476,0.005881468743585402
0.1354655,0.002461773033489183,0.10609136954204981,0.006412537190638578,0.013428570177634961,0.04848233270253668,0.0185214946818212,0.03647499051192332,0.005862660073933114
0.135931,0.002413225133156523,0.10616352743064923,0.006378045939069257,0.013437152533571332,0.0483338386792357,0.018445832235249208,0.03659186392852387,0.005843625569361537
0.1363966,0.002365413932231534,0.10623428346713328,0.0063440547544599225,0.013446808833430846,0.048187299109099684,0.018370966924735516,0.0367072727144145,0.005824368385464877
0.1368621,0.0023183418156129377,0.10630364811545204,0.00631056326467417,0.013457524671878267,0.0480427112012225,0.018296900342056093,0.0368212029746595,0.005804891731009372
0.1373276,0.0022720109662222065,0.10637163211083438,0.006277571021283734,0.01346928521491537,0.047900071600593626,0.018223633756858645,0.03693364114568524,0.005785198867579129
0.1377931,0.0022264233663244395,0.10643824646208211,0.006245077501072999,0.013482075207363874,0.04775937640677994,0.018151168123332163,0.03704457400042162,0.005765293109197264
0.1382586,0.0021815807988827787,0.10650350245374617,0.006213082107553345,0.01349587898050323,0.047620621192626826,0.01807950408695285,0.037153988653315775,0.005745177821922217
0.1387241,0.002137484848945724,0.10656741164817553,0.0061815841724866,0.013510680459860376,0.047483801022964,0.018008641991302275,0.03726187256521098,0.005724856423419081
0.1391897,0.0020941369050666964,0.10662998588742949,0.00615058295741678,0.013526463173148536,0.0473489104733014,0.017938581884953467,0.03736821354808382,0.005704332382505858
0.1396552,0.0020515381607551842,0.1066912372950447,0.00612007765520927,0.013543210258351982,0.047215943648500035,0.01786932352842052,0.0374729997696324,0.00568360921867461
0.1401207,0.002009689615958802,0.10675117827764846,0.006090067391596594,0.013560904471953607,0.04708489420140243,0.0178008664011671,0.03757621975770781,0.005662690501587569
0.1405862,0.0019685920785755887,0.10680982152641084,0.006060551226729874,0.013579528197302057,0.04695575535140721,0.017733209708669314,0.03767786240458113,0.005641579850548428
0.1410517,0.001928246165995877,0.10686718001833001,0.006031528156735042,0.013599063453115083,0.046828519902972494,0.01766635238952804,0.03777791697103792,0.005620280933949102
0.1415172,0.0018886523066730745,0.1069232670173452,0.006002997115272827,0.013619491902115635,0.046703180264032945,0.017600293122626013,0.0378763730902916,0.00559879746869231
0.1419828,0.0018498107417226934,0.10697809607527325,0.005974956975101531,0.013640794859797146,0.046579728464315476,0.017535030334324606,0.037973220771707256,0.0055771332195903795
0.1424483,0.0018117215265489753,0.10703168103256405,0.005947406549641514,0.013662953303314374,0.04645815617353889,0.01747056220569547,0.038068450404326826,0.005555291998740703
0.1429138,0.0017743845324984635,0.10708403601887109,0.005920344594540346,0.013685947880496055,0.04633845471948284,0.017406886679781918,0.03816205276018645,0.005533277664878304
0.1433793,0.0017377994485398677,0.10713517545343237,0.005893769809237482,0.013709758918975563,0.04622061510591136,0.01734400146888512,0.038254018997416844,0.005511094122705998
0.1438448,0.0017019657829695836,0.10718511404525619,0.005867680838527377,0.013734366435435613,0.04610462803033638,0.017281904061869847,0.038344340663117565,0.005488745322202709
0.1443103,0.001666882865142224,0.10723386679310654,0.005842076274119888,0.013759750144963036,0.04599048390160655,0.017220591731484533,0.03843300969599681,0.005466235257910424
0.1447759,0.0016325498472255335,0.1072814489852823,0.005816954656196845,0.013785889470509526,0.04587817285730691,0.017160061541690325,0.0385200184287692,0.005443567968200353
0.1452414,0.0015989657059790588,0.10732787619918423,0.005792314474963694,0.01381276355245409,0.04576768478095514,0.01710031035499373,0.038605359590305054,0.005420747534518779
0.1457069,0.001566129244555958,0.10737316430066363,0.0057681541721951455,0.013840351258262872,0.045659009318980655,0.017041334839777406,0.038689026307525985,0.005397778080613126
0.1461724,0.0015340390943273305,0.10741732944314665,0.005744472142773837,0.013868631192241907,0.04555213589747337,0.016983131477623918,0.03877101210704219,0.005374663771738721
0.1466379,0.0015026937167284475,0.10746038806652841,0.005721266736221097,0.013897581705378236,0.045447053738689326,0.016925696570627327,0.038851310916527854,0.005351408813846716
0.1471034,0.001472091405126251,0.10750235689583075,0.005698536258218932,0.013927180905264673,0.04534375187730083,0.016869026248687698,0.03892991706583236,0.00532801745275366
0.147569,0.0014422302867074905,0.10754325293961832,0.005676278972122444,0.013957406666103468,0.045242219176378974,0.01681311647678359,0.03900682528782639,0.005304493973293172
0.1480345,0.0014131083243868615,0.10758309348816751,0.005654493100461918,0.013988236638783933,0.04514244434309701,0.016757963062217773,0.03908203071898373,0.005280842698450208
0.1485,0.0013847233187345047,0.10762189611138322,0.005633176826433794,0.014019648261029222,0.04504441594414341,0.016703561661831137,0.039155528899701135,0.005257067988478346
0.1489655,0.0013570729099222367,0.10765967865645869,0.0056123282953797525,0.0140516187676074,0.044948122420834374,0.01664990778917987,0.03922731577435913,0.005233174240000516
0.149431,0.0013301545796878826,0.10769645924527349,0.00559194561625316,0.014084125200602093,0.04485355210391594,0.01659699682167071,0.039297387691127304,0.005209165885093583
0.1498966,0.0013039656533170984,0.10773225627152472,0.005572026863072091,0.014117144419738105,0.04476069322804626,0.016544824007649152,0.03936574140151747,0.005185047390357135
0.1503621,0.0012785033016420664,0.10776708839758722,0.005552570076358178,0.01415065311275747,0.044669533945949455,0.01649338447343548,0.039432374059688184,0.005160823255966837
0.1508276,0.0012537645430564625,0.10780097455109729,0.005533573264560524,0.014184627805841456,0.044580062342232725,0.016442673230303767,0.039497283221503934,0.005136498014712658
0.1512931,0.0012297462455460911,0.1078339339212542,0.005515034405463938,0.014219044874074023,0.044492266446859205,0.01639268518139916,0.03956046684335241,0.005112076231022282
0.1517586,0.001206445128734586,0.10786598595483377,0.005496951447580731,0.014253880551942164,0.044406134248269835,0.016343415128589195,0.039621923280723316,0.0050875624999700084
0.1522241,0.001183857765943569,0.10789715035190678,0.005479322311525302,0.014289110943868649,0.04432165370614816,0.016294857779245147,0.039681651286552225,0.0050629614462714325
0.1526897,0.0011619805862666595,0.10792744706125668,0.005462144891370732,0.014324712034772579,0.04423881276382269,0.016247007752949842,0.039739650009333286,0.005038277723264223
0.1531552,0.0011408098766567197,0.10795689627548957,0.00544541705598658,0.014360659700653203,0.0441575993603018,0.016199859588128574,0.039795918991004584,0.005013516011875283
0.1536207,0.0011203417840257167,0.1079855184258306,0.005429136650357054,0.014396929719192512,0.04407800144193678,0.016153407748599972,0.039850458164610095,0.004988681019574658
0.1540862,0.0011005723173565846,0.10801333417660033,0.005413301496878713,0.014433497780372104,0.04400000697370818,0.01610764663004376,0.03990326785174242,0.004963777479316552
0.1545517,0.0010814973498264597,0.10804036441936488,0.005397909396636859,0.014470339497099903,0.04392360395013132,0.01606257056638247,0.039954348759770476,0.004938810148467895
0.1550172,0.0010631126209406851,0.10806663026675294,0.005382958130659799,0.014507430415842331,0.04384878040577612,0.016018173836074307,0.04000370197885633,0.004913783807724959
0.1554828,0.0010454137386769803,0.10809215304593327,0.005368445461150202,0.014544746027257641,0.04377552442539678,0.015974450668314693,0.0400513289787653,0.004888703260018509
0.1559483,0.0010283961816391976,0.1081169542917459,0.005354369132692834,0.014582261776826172,0.04370382415366656,0.015931395249144345,0.040097231605473016,0.004863573329408028
0.1564138,0.0010120553012201005,0.1081410557394812,0.00534072687343799,0.014619953075473254,0.04363366780451296,0.01588900172746202,0.04014141207757307,0.004838398859965509
0.1568793,0.0009963863237726137,0.1081644793173008,0.00532751639626004,0.014657795310180476,0.04356504367004883,0.015847264220940398,0.04018387298248845,0.004813184714649319
0.1573448,0.0009813843527890027,0.10818724713829574,0.0053147353998905245,0.01469576385458092,0.04349794012909466,0.01580617682184358,0.040224617272489806,0.004787935774168661
0.1578103,0.0009670443710874373,0.10820938149217608,0.005302381570025252,0.01473383407953392,0.04343234565528765,0.01576573360274494,0.04026364826052315,0.00476265693583917
0.1582759,0.0009533612430053986,0.10823090483658783,0.005290452580404871,0.014771981363674845,0.043368248824772984,0.015725928622144135,0.040300969615849655,0.004737353112430216
0.1587414,0.0009403297165993845,0.10825183978805188,0.005278946093868356,0.014810181103935264,0.04330563832347295,0.0156867559299824,0.04033658535949992,0.004712029231004533
0.1592069,0.0009279444258503619,0.10827220911252051,0.005267859763378827,0.01484840872602882,0.04324450295392984,0.015648209573055672,0.04037049985954531,0.004686690231750845
0.1596724,0.000916199892874417,0.10829203571554778,0.005257191233021093,0.01488663969489814,0.04318483164171884,0.015610283600325325,0.04040271782618915,0.004661341066810201
0.1601379,0.0009050905301380553,0.10831134263207126,0.005246938138970277,0.014924849525118033,0.04312661344142775,0.015572972068126543,0.04043324430668071,0.004635986699096744
0.1606034,0.0008946106426776037,0.10833015301580479,0.005237098110430841,0.014963013791250356,0.04306983754220118,0.015536269045274425,0.040462084680055126,0.004610632101113687
0.161069,0.0008847544303221676,0.10834849012824345,0.005227668770545354,0.01500110813814582,0.04301449327284747,0.015500168618067935,0.04048924465170268,0.004585282253765212
0.1615345,0.000875515989919603,0.10836637732728396,0.005218647737272308,0.015039108291188222,0.04296057010650753,0.015464664895191686,0.040514730247770754,0.004559942145165044
0.162,0.0008668893175649773,0.10838383805546525,0.0052100326242323055,0.015076990066476578,0.04290805766488541,0.01542975201251543,0.040538547809402456,0.004534616769442379
0.1624655,0.0008588683108310119,0.10840089582783484,0.00520182104152197,0.015114729380940717,0.042856945722040414,0.015395424137791016,0.040560703986815834,0.004509311125545874
0.162931,0.000851446771000025,0.10841757421944814,0.005194010596494987,0.01515230226238588,0.04280722420774087,0.0153616754752465,0.04058120573322835,0.004484030216046332
0.1633966,0.0008446184052969177,0.10843389685250761,0.00518659889450975,0.015189684859461934,0.04275888321037923,0.015328500270076982,0.040600060298631835,0.0044587790459387
0.1638621,0.0008383768291227743,0.1084498873831496,0.0051795835396431,0.015226853451552702,0.04271191297944842,0.015295892812831578,0.040617275223423614,0.00443356262144399
0.1643276,0.0008327155682886669,0.10846556948788683,0.005172962135369699,0.015263784458580832,0.0426663039275795,0.015263847443695909,0.04063285833190002,0.0044083859488116516
0.1647931,0.0008276280612492655,0.1084809668497137,0.005166732285206541,0.015300454450723594,0.04262204663214114,0.01523235855666929,0.04064681772561892,0.004383254033122944
0.1652586,0.0008231076613358602,0.10849610314388312,0.00516089159332212,0.015336840158034902,0.042579131836402107,0.015201420603635865,0.04065916177663816,0.004358171877095788
0.1657241,0.0008191476389884044,0.10851100202336275,0.005155437665109739,0.01537291847996893,0.04253755045025881,0.015171028098328794,0.040669899120637176,0.004333144479891559
0.1661897,0.0008157411839861896,0.10852568710398056,0.005150368107724485,0.015408666494800716,0.04249729355053063,0.015141175620186815,0.040679038649929014,0.00430817683592428
0.1666552,0.0008128814076767615,0.10854018194927127,0.0051456805305834345,0.01544406146893931,0.04245835238082607,0.015111857818102658,0.040686589506370115,0.004283273933672581
0.1671207,0.000810561345202684,0.10855451005503854,0.005141372545828686,0.01547908086612919,0.04242071835098365,0.015083069414063028,0.040692561074175106,0.004258440754494859
0.1675862,0.0008087739577257494,0.10856869483365043,0.005137441768752928,0.015513702356535788,0.042384383036092245,0.01505480520668005,0.04069696297264401,0.0042336822714479465
0.1680517,0.0008075121346482301,0.10858275959808866,0.005133885818187266,0.015547903825711015,0.042349338175096264,0.015027060074614143,0.04069980504880924,0.004209003448109668
0.1685172,0.0008067686958307617,0.10859672754577411,0.005130702316851079,0.015581663383434875,0.0423155756689921,0.01499982897988831,0.040701097370009855,0.004184409237405599
0.1689828,0.000806536393806442,0.1086106217421933,0.005127888891663706,0.015614959372429236,0.042283087578622945,0.014973106971093846,0.040700850216400256,0.004159904580440393
0.1694483,0.000806807915990726,0.10862446510435132,0.005125443174017727,0.015647770376939967,0.04225186612207952,0.014946889186487422,0.04069907407340049,0.004135494405334019
0.1699138,0.0008075758868866981,0.10863828038407707,0.005123362800013663,0.01568007523118362,0.0422219036717146,0.014921170856979677,0.040695779624095,0.004111183626063284
0.1703793,0.0008088328702853087,0.10865209015120626,0.0051216454106559305,0.015711853027654887,0.04219319275077972,0.014895947309015384,0.04069097774158656,0.004086977141308982
0.1708448,0.000810571371460157,0.10866591677666722,0.005120288652009944,0.015743083125290876,0.042165726029692596,0.014871213967345372,0.040684679481311936,0.0040628798333090296
0.1713103,0.0008127838393564133,0.10867978241549402,0.005119290175320384,0.015773745157488236,0.04213949632194382,0.014846966357690379,0.04067689607332587,0.004038896566717896
0.1717759,0.0008154626687734765,0.10869370898979094,0.005118647637090729,0.015803819039969007,0.04211449657965162,0.014823200109296974,0.04066763891455985,0.00401503218747265
0.1722414,0.0008186002025409672,0.10870771817167156,0.005118358699124217,0.01583328497849103,0.042090719888773824,0.014799910957385675,0.0406569195610621,0.003991291521665903
0.1727069,0.0008221887336876687,0.10872183136619559,0.005118421028526471,0.015862123476398694,0.04206815946398639,0.014777094745491515,0.040644749720225165,0.003967679374425919
0.1731724,0.0008262205076030312,0.10873606969432571,0.005118832297670067,0.015890315342009766,0.042046808643238696,0.014754747427697432,0.04063114124300737,0.003944200528804167
0.1736379,0.0008306877241908711,0.10875045397592613,0.005119590184121447,0.015917841695834083,0.04202666088199587,0.014732865070761074,0.04061610611615418,0.0039208597446705575
0.1741034,0.0008355825400149099,0.10876500471282384,0.0051206923705307055,0.01594468397761988,0.04200770974717914,0.014711443856135788,0.040599656454425585,0.0038976617576165786
0.174569,0.0008408970704358215,0.1087797420719527,0.005122136544484945,0.01597082395322345,0.041989948910815166,0.014690480081886727,0.040581804492835286,0.003874611277866534
0.1750345,0.0008466233917394883,0.1087946858685994,0.005123920398326053,0.015996243721297845,0.04197337214340553,0.014669970164502976,0.040562562578907606,0.003851712989197047
0.1755,0.0008527535432561925,0.1088098555497697,0.005126041628933913,0.01602092571979622,0.041957973307027475,0.014649910640606618,0.040541943164957434,0.003828971547864979
0.1759655,0.0008592795294704986,0.10882527017769272,0.005128497937476186,0.016044852732285397,0.04194374634817678,0.014630298168559572,0.040519958800398416,0.003806391581543913
0.176431,0.0008661933221216078,0.10884094841348062,0.005131287029125893,0.016068007894065164,0.04193068529036389,0.014611129529969027,0.040496622124084294,0.0037839776882693035
0.1768966,0.0008734868622939857,0.10885690850096037,0.005134406612748092,0.016090374698088918,0.041918784226474166,0.014592401631092149,0.040471945856687834,0.0037617344353924166
0.1773621,0.0008811520624980854,0.10887316825069415,0.005137854400556993,0.016111937000681243,0.04190803731090384,0.014574111504140796,0.04044594279312156,0.003739666358543187
0.1778276,0.0008891808087410091,0.1088897450242044,0.00514162810774484,0.01613267902704819,0.04189843875148296,0.014556256308486797,0.04041862579500421,0.0037177779606021324
0.1782931,0.0008975649625869625,0.10890665571841981,0.005145725452083881,0.01615258537657612,0.04188998280119763,0.014538833331768308,0.04039000778317637,0.0036960737106814688
0.1787586,0.0009062963632073795,0.10892391675035835,0.005150144153502725,0.016171641027915132,0.04188266374972365,0.01452183999089774,0.04036010173026868,0.003674558043115574
0.1792241,0.0009153668294206038,0.10894154404206303,0.005154881933638327,0.01618983134384317,0.04187647591478442,0.014505273832971606,0.04032892065332566,0.003653235356460928
0.1796897,0.0009247681617210258,0.10895955300580631,0.00515993651536485,0.01620714207590701,0.04187141363334562,0.014489132536082562,0.04029647760648837,0.0036321100125056285
0.1801552,0.0009344921442975815,0.10897795852957873,0.005165305622300587,0.016223559368836384,0.04186747125265979,0.014473413910033895,0.04026278567373923,0.0036111863352885584
0.1806207,0.0009445305470415244,0.1089967749628769,0.005170986978294124,0.016239069764727637,0.04186464312117313,0.014458115896956548,0.04022785796171247,0.0035904686101282594
0.1810862,0.0009548751275433714,0.10901601610280534,0.0051769783068908925,0.016253660206993467,0.041862923579307314,0.014443236571828779,0.04019170759257373,0.003569961082661538
0.1815517,0.0009655176330789294,0.10903569518050635,0.005183277330781278,0.01626731804407554,0.041862306950128506,0.014428774142898462,0.04015434769697271,0.003549667957891802
0.1820172,0.0009764498025843045,0.10905582484793064,0.005189881771231445,0.016280031032917218,0.04186278752991559,0.014414726952007965,0.04011579140707294,0.0035295933992471203
0.1824828,0.0009876633686197926,0.10907641716496144,0.005196789347498037,0.016291787342193977,0.04186435957863976,0.014401093474821504,0.04007605184966322,0.0035097415276479573
0.1829483,0.000999150059322551,0.1090974835869035,0.005203997776227942,0.016302575555299723,0.04186701731036764,0.014387872320954837,0.04003514213935517,0.003490116420584507
0.1834138,0.0010109016003479417,0.10911903495234825,0.00521150477084434,0.016312384673087654,0.041870754883600377,0.014375062234007113,0.03999307537187164,0.0034707221112035384
0.1838793,0.0010229097167994317,0.10914108147142626,0.005219308040920212,0.01632120411636475,0.04187556639156135,0.014362662091494723,0.039949864617430504,0.003451562587404615
0.1843448,0.0010351661351469285,0.10916363271445728,0.00522740529154054,0.01632902372813942,0.04188144585244544,0.014350670904687163,0.03990552291422817,0.0034326417909455445
0.1848103,0.0010476625851334204,0.10918669760100891,0.005235794222654393,0.01633583377562231,0.04188838719964238,0.01433908781834503,0.0398600632620271,0.0034139636165568883
0.1852759,0.0010603908016697818,0.10921028438937445,0.005244472528418096,0.01634162495198087,0.041896384271946904,0.014327912110360433,0.039813498615851206,0.0033955319110653315
0.1857414,0.0010733425267176082,0.10923440066648017,0.005253437896530636,0.016346388377848957,0.0419054308037678,0.014317143191300244,0.039765841879792936,0.0033773504725256986
0.1862069,0.0010865095111599397,0.10925905333823203,0.005262688007562471,0.016350115602593297,0.041915520415347754,0.014306780603852572,0.03971710590093571,0.0033594230493613946
0.1866724,0.0010998835166597383,0.10928424862031169,0.00527222053427884,0.016352798605339027,0.04192664660300578,0.014296824022176871,0.03966730346339498,0.003341753339513034
0.1871379,0.0011134563175059977,0.10930999202943104,0.005282033140958663,0.016354429795756693,0.04193880272941373,0.014287273251158033,0.039616447282481156,0.003324344989595067
0.1876034,0.0011272197024473725,0.10933628837505444,0.005292123482710099,0.016355002014613127,0.041951982013918275,0.014278128225564719,0.039564549998987286,0.003307201594060241
0.188069,0.001141165476513215,0.1093631417515975,0.005302489204783792,0.016354508534088968,0.04196617752291995,0.014269389009112243,0.03951162417360435,0.0032903266943717963
0.1885345,0.0011552854628219108,0.1093905555311105,0.005313127941884858,0.01635294305786587,0.04198138216032033,0.014261055793430316,0.03945768228146666,0.003273723778183344
0.189,0.0011695715043764042,0.10941853235645438,0.005324037317484598,0.01635029972098682,0.041997588658048604,0.014253128896936215,0.03940273670682977,0.0032573962785264203
0.1894655,0.0011840154658467955,0.10944707413497658,0.0053352149431329515,0.016346573089493204,0.04201478956667825,0.014245608763614068,0.039346799737882944,0.003241347573005717
0.189931,0.0011986092353398973,0.10947618203269417,0.005346658417772652,0.016341758159842266,0.04203297724614447,0.014238495961701186,0.03928988356169818,0.0032255809830020335
0.1903966,0.0012133447261556208,0.10950585646899082,0.005358365327055999,0.016335850358108767,0.04205214385657248,0.014231791182282544,0.03923200025931731,0.0032100997728830346
0.1908621,0.0012282138785300642,0.10953609711183442,0.0053703332426651654,0.016328845538974606,0.042072281349226616,0.014225495237794494,0.03917316180097875,0.003194907149221921
0.1913276,0.0012432086613651718,0.1095669028735218,0.005382559721636915,0.016320739984510113,0.04209338145758991,0.014219609060438891,0.03911338004148535,0.0031800062600241537
0.1917931,0.0012583210739448287,0.10959827190695604,0.0053950423056925816,0.016311530402750754,0.04211543568858324,0.014214133700508691,0.03905266671571448,0.003165400193962395
0.1922586,0.001273543147637255,0.10963020160246134,0.005407778520574172,0.01630121392607293,0.04213843531393302,0.01420907032462604,0.03899103343427164,0.0031510919796198245
0.1927241,0.0012888669475835564,0.10966268858514036,0.005420765875387404,0.0162897881093727,0.04216237136169618,0.014204420213893837,0.03892849167928877,0.0031370845847419914
0.1931897,0.001304284574372283,0.10969572871277733,0.005434001861952539,0.01627725092805121,0.042187234607950985,0.014200184761961675,0.03886505280036826,0.0031233809154973665
0.1936552,0.001319788165699839,0.10972931707429096,0.005447483954163774,0.01626360077581056,0.042213015568662055,0.014196365473007096,0.03880072801067388,0.0031099838157467715
0.1941207,0.0013353698980165716,0.10976344798874042,0.005461209607358068,0.016248836462264153,0.042239704491727925,0.014192963959633128,0.03873552838316946,0.0030968960663218833
0.1945862,0.0013510219881583655,0.10979811500488729,0.0054751762576942175,0.016232957210365422,0.042267291349219326,0.014189981940683155,0.03866946484700682,0.003084120384313023
0.1950517,0.0013667366949635493,0.10983331090131614,0.005489381321543036,0.01621596265365919,0.0422957658298163,0.014187421238974289,0.03860254818406415,0.0030716594223664582
0.1955172,0.001382506320874923,0.10986902768711612,0.0055038221948895075,0.016197852833359824,0.0423251173314521,0.014185283778950385,0.03853478902563647,0.0030595157679914543
0.1959828,0.0013983232135266986,0.10990525660312538,0.005518496252747809,0.01617862819526051,0.042355334954171424,0.0141835715842559,0.038466197849279855,0.0030476919428773248
0.1964483,0.00141417976731614,0.10994198812373858,0.005533400848590084,0.016158289586477956,0.04238640749321044,0.014182286775231853,0.03839678497581117,0.0030361904022207418
0.1969138,0.0014300684249596803,0.10997921195927775,0.005548533313789813,0.01613683825203689,0.04241832343230575,0.014181431566335176,0.03832656056646525,0.003025013534063579
0.1973793,0.0014459816790332862,0.11001691705892548,0.005563890957080656,0.01611427583129877,0.042451070937239065,0.014181008263482871,0.03825553462021157,0.0030141636586415764
0.1978448,0.0014619120734968413,0.11005509161421875,0.0055794710640315395,0.016090604354239212,0.04248463784962395,0.014181019261322564,0.038183716971232726,0.0030036430277441354
0.1983103,0.0014778522052023152,0.11009372306310099,0.00559527089653879,0.016065826237578632,0.04251901168094081,0.014181467040431174,0.038111117286567124,0.002993453824085551
0.1987759,0.0014937947253855102,0.11013279809452949,0.005611287692336026,0.01603994428077073,0.042554179606825865,0.014182354164443549,0.03803774506391819,0.002983598160688019
0.1992414,0.001509732341141177,0.11017230265363445,0.005627518664522564,0.01601296166185333,0.04259012846161956,0.014183683277112887,0.037963609629632224,0.0029740780802767564
0.1997069,0.0015256578168813208,0.1102122219474253,0.005643961001110993,0.015984881933166127,0.042626844733179715,0.014185457099304803,0.037888720136847055,0.0029648955546876053
0.2001724,0.0015415639757765177,0.11025254045103886,0.005660611864594601,0.01595570901693972,0.04266431455796431,0.014187678425926985,0.03781308556381299,0.0029560524842874966
0.2006379,0.0015574437011800653,0.11029324191452337,0.00567746839153527,0.015925447200760362,0.042702523716388545,0.014190350122796513,0.037736714712387584,0.0029475506974082056
0.2011034,0.0015732899380347895,0.11033430937015197,0.005694527692172421,0.015894101132914677,0.04274145762846066,0.014193475123447078,0.037659616206705285,0.0029393919497938416
0.201569,0.0015890956942623182,0.11037572514025873,0.005711786850053565,0.015861675817618624,0.04278110134970076,0.014197056425878688,0.037581798492022984,0.0029315779240625408
0.2020345,0.0016048540421346395,0.11041747084559038,0.005729242921686978,0.015828176610135147,0.042821439567346783,0.014201097089252691,0.037503269833741894,0.002924110229182824
0.2025,0.0016205581196277667,0.11045952741416733,0.005746892936216972,0.015793609211784892,0.042862456596851235,0.014205600230535194,0.037424038316606276,0.0029169903999650775
0.2029655,0.001636201131757359,0.11050187509064806,0.005764733895122188,0.015757979664854652,0.042904136378672235,0.014210569021092197,0.03734411184407924,0.0029102198965685923
0.203431,0.0016517763518961632,0.11054449344619113,0.005782762771937327,0.015721294347408137,0.04294646247536229,0.0142160066832399,0.03726349813789593,0.002903800104024572
0.2038966,0.0016672771230731845,0.11058736138880862,0.005800976511998656,0.0156835599680038,0.04298941806895799,0.01422191648675367,0.03718220473779417,0.0028977323317755277
0.2043621,0.001682696859254513,0.11063045717420494,0.005819372032213612,0.015644783560324428,0.04303298595867361,0.014228301745339164,0.03710023900142284,0.002892017813231447
0.2048276,0.0016980290466057629,0.11067375841709429,0.005837946220854766,0.015604972477723177,0.0430771485589015,0.014235165813069071,0.03701760810442801,0.0028866577053431462
0.2052931,0.0017132672447360878,0.11071724210298879,0.005856695937378412,0.01556413438769056,0.0431218878975218,0.014242512080788867,0.036934319040716826,0.0028816530881931833
0.2057586,0.00172840508792376,0.11076088460044936,0.005875618012267939,0.015522277266247008,0.04316718561452401,0.014250343972494963,0.03685037862289936,0.0028770049646047063
0.2062241,0.0017434362863233115,0.11080466167379002,0.005894709246902179,0.015479409392265334,0.04321302296094296,0.014258664941688573,0.03676579348290842,0.0028727142597686087
0.2066897,0.0017583546271542486,0.11084854849622613,0.005913966413448846,0.01543553934172748,0.0432593807981115,0.014267478467708566,0.0366805700727974,0.0028687818208893126
0.2071552,0.001773153975871373,0.11089251966345541,0.005933386254783133,0.015390675981919795,0.04330623959723253,0.014276788052046513,0.03659471466571605,0.0028652084168495056
0.2076207,0.0017878282773167418,0.11093654920766102,0.005952965484431503,0.015344828465571045,0.043353579439272566,0.014286597214647128,0.03650823335706373,0.0028619947378941226
0.2080862,0.001802371556853302,0.11098061061192492,0.0059727007865406695,0.015298006224937235,0.043401380015178896,0.01429690949019732,0.03642113206581983,0.002859141395333848
0.2085517,0.0018167779214802442,0.11102467682503994,0.00599258881587168,0.015250218965837415,0.04344962062642233,0.014307728424406954,0.03633341653605055,0.0028566489212684064
0.2090172,0.0018310415609301075,0.11106872027670875,0.006012626197819018,0.015201476661644519,0.043498280185867204,0.01431905757028446,0.03624509233859107,0.002854517768329879
0.2094828,0.0018451567487476634,0.11111271289311812,0.006032809528454541,0.015151789547235254,0.043547337218970125,0.014330900484410346,0.036156164872902026,0.002852748309446299
0.2099483,0.0018591178433506014,0.11115662611287723,0.0060531353745960454,0.01510116811290304,0.04359676986530919,0.014343260723211577,0.03606663936909888,0.0028513408376257595
0.2104138,0.0018729192890720283,0.11120043090330861,0.006073600273900225,0.015049623098237892,0.04364655588044503,0.014356141839239762,0.03597652089015261,0.0028502955657612673
0.2108793,0.0018865556171847777,0.11124409777708098,0.006094200734979671,0.014997165485977099,0.04369667263811535,0.014369547377455941,0.035885814334259976,0.0028496126264565672
0.2113448,0.0019000214469075162,0.11128759680917256,0.00611493323754361,0.01494380649583041,0.043747097132764735,0.014383480871524782,0.035794524437381674,0.002849292071873148
0.2118103,0.0019133114863926206,0.11133089765415412,0.006135794232561963,0.014889557578283488,0.04379780598241108,0.01439794584012085,0.035702655775946314,0.00284933387359863
0.2122759,0.0019264205336957845,0.11137396956378032,0.006156780142452281,0.014834430408383292,0.04384877543184996,0.01441294578324963,0.03561021276971812,0.0028497379225367126
0.2127414,0.0019393434777273057,0.11141678140487707,0.006177887361289095,0.01477843687950901,0.043899981356198166,0.014428484178585776,0.035517199684826015,0.0028505040288188486
0.2132069,0.001952075299184991,0.1114593016775125,0.006199112255035129,0.014721589097132153,0.043951399264776946,0.014444564477831191,0.035423620636951536,0.00285163192173778
0.2136724,0.001964611071468619,0.11150149853343815,0.0062204511617938475,0.014663899372569261,0.04400300430533564,0.01446119010309532,0.03532947959467284,0.0028531212497030695
0.2141379,0.001976945961575903,0.11154333979478653,0.006241900392082759,0.014605380216730633,0.04405477126861579,0.014478364443300107,0.03523478038296169,0.0028549715802187268
0.2146034,0.001989075230979898,0.11158479297301126,0.00626345622912694,0.014546044333868325,0.04410667459325596,0.014496090850611907,0.03513952668683,0.0028571823998830245
0.215069,0.0020009942364878075,0.11162582528805494,0.006285114929172239,0.014485904615326521,0.04415868837103718,0.014514372636902613,0.03504372205512245,0.002859753114410573
0.2155345,0.0020126984310811446,0.11166640368773073,0.006306872721817668,0.014424974133297313,0.044210786352468986,0.014533213070242267,0.03494736990445112,0.002862683048676702
0.216,0.0020241833647372067,0.11170649486730368,0.0063287258103665155,0.014363266134584739,0.04426294195271587,0.014552615371425222,0.03485047352326803,0.002865971446784189
0.2164655,0.002035444685231838,0.11174606528925767,0.006350670372195771,0.014300794034379895,0.04431512825786431,0.014572582710531936,0.03475303607607101,0.002869617472152381
0.216931,0.0020464781389234557,0.11178508120323401,0.006372702559143481,0.01423757141004976,0.044367318031530156,0.014593118203528306,0.034655060607738104,0.0028736202076287366
0.2173966,0.0020572795715183283,0.11182350866612749,0.006394818497913668,0.014173611994942364,0.0444194837218061,0.0146142249089044,0.03455655004798551,0.0028779786556228327
0.2178621,0.0020678449288171,0.11186131356232488,0.006417014290498486,0.014108929672210844,0.044471597468548486,0.014635905824354322,0.03445750721594362,0.0028826917382628837
0.2183276,0.002078170257442577,0.11189846162407034,0.006439286014617332,0.014043538468658912,0.044523631111002694,0.014658163883498825,0.03435793482484557,0.0028877582975748188
0.2187931,0.0020882517055487854,0.1119349184519418,0.006461629724172607,0.01397745254861014,0.04457555619576583,0.014681001952652158,0.03425783548682264,0.0028931770956839493
0.2192586,0.002098085523511341,0.11197064953542221,0.006484041449721843,0.013910686207803386,0.04462734398508544,0.014704422827634633,0.03415721171780099,0.0028989468150392647
0.2197241,0.00210766806459917,0.11200562027354855,0.006506517198965883,0.013843253867316618,0.044678965465492416,0.014728429230632249,0.034056065942493885,0.0029050660586603804
0.2201897,0.0021169957856276202,0.11203979599562178,0.006529052957252765,0.013775170067521315,0.044730391356766,0.014753023807104677,0.03395440049948406,0.002911533350407154
0.2206552,0.002126065247593025,0.11207314198195993,0.006551644688096969,0.013706449462069477,0.04478159212122845,0.014778209122742832,0.03385221764639077,0.0029183471352719767
0.2211207,0.0021348731162887592,0.11210562348467634,0.006574288333713611,0.013637106811915326,0.04483253797336689,0.014803987660477136,0.03374951956511613,0.0029255057796947503
0.2215862,0.002143416162902826,0.11213720574846395,0.0065969798155672225,0.013567156979373676,0.044883198889779236,0.014830361817537548,0.03364630836716543,0.00293300757190055
0.2220517,0.0021516912645969982,0.11216785403136607,0.006619715034934706,0.013496614922216973,0.044933544619441323,0.014857333902566295,0.03354258609903609,0.0029408507222599815
0.2225172,0.0021596954050675187,0.11219753362551377,0.006642489873482083,0.013425495687812993,0.044983544694292034,0.01488490613278418,0.033438354747670075,0.002949033363672213
0.2229828,0.0021674256750873603,0.11222620987780935,0.006665300193854657,0.013353814407305221,0.04503316844013312,0.014913080631211263,0.03333361624596451,0.002957553551970652
0.2234483,0.0021748792730300177,0.1122538482105351,0.006688141840280241,0.013281586289837959,0.04508238498784031,0.01494185942394258,0.03322837247833518,0.002966409266351211
0.2239138,0.0021820535053748025,0.1122804141418668,0.006711010639185113,0.013208826616828128,0.045131163284882064,0.014971244437479636,0.03312262528632762,0.002975598409823105
0.2243793,0.002188945787193603,0.11230587330627068,0.006733902399822386,0.013135550736285728,0.04517947210714202,0.015001237496118225,0.03301637647427036,0.002985118809682069
0.2248448,0.002195553642619055,0.11233019147476295,0.006756812914912532,0.013061774057184772,0.04522728007104098,0.015031840319393227,0.03290962781496508,0.0029949682180059017
0.2253103,0.0022018747052940757,0.11235333457501048,0.006779737961295744,0.012987512043886528,0.045274555645954076,0.01506305451958092,0.032802381055408156,0.003005144312172182
0.2257759,0.002207906718802712,0.11237526871125202,0.006802673300595892,0.012912780210616653,0.04532126716691832,0.015094881599259488,0.03269463792253858,0.0030156446953980105
0.2262414,0.0022136475370822515,0.11239596018401925,0.006825614679895829,0.012837594115997884,0.045367382847625655,0.015127322948928303,0.03258640012900734,0.003026466897301607
0.2267069,0.0022190951248165507,0.1124153755096387,0.006848557832423782,0.012761969357639786,0.04541287079369625,0.015160379844686597,0.03247766937896358,0.0030376083744855856
0.2271724,0.0022242475578105217,0.11243348143949622,0.006871498478250687,0.012685921566787012,0.045457699016226455,0.015194053445972164,0.0323684473738528,0.003049066511141701
0.2276379,0.0022291030233457182,0.11245024497904765,0.0068944323249982824,0.012609466403027526,0.045501835445605654,0.015228344793360592,0.032258735818222334,0.0030608386196768565
0.2281034,0.0022336598205169554,0.11246563340656084,0.006917355068557835,0.012532619549062131,0.045545247945595946,0.015263254806425503,0.03214853642552952,0.00307292194136014
0.228569,0.002237916360549879,0.1124796142915747,0.00694026239381938,0.01245539670553665,0.045587904327668176,0.015298784281660201,0.03203785092394731,0.003085313646990651
0.2290345,0.0022418711670993984,0.1124921555130625,0.00696314997541137,0.012377813585938036,0.045629772365587636,0.015334933890460985,0.031926681062162336,0.0030980108375858514
0.2295,0.0022455228765288758,0.11250322527728632,0.006986013478450566,0.012299885911555581,0.045670819810242645,0.015371704177172393,0.031815028615160015,0.0031110105450901765
0.2299655,0.002248870238169957,0.11251279213532989,0.007008848559302015,0.012221629406508425,0.04571101440470876,0.015409095557194545,0.031702895389991194,0.0031243097331036026
0.230431,0.002251912114562919,0.11252082500029732,0.007031650866348896,0.012143059792840439,0.04575032389954116,0.0154471083151527,0.031590283231514776,0.003137905297629875
0.2308966,0.0022546474816774074,0.1125272931641654,0.007054416040771948,0.012064192785683563,0.04578871606828736,0.015485742603129144,0.03147719402811076,0.0031517940678440753
0.2313621,0.002257075429113427,0.11253216631427825,0.0070771397173381755,0.011985044088490682,0.045826158723212496,0.015524998438957487,0.031363629717358246,0.003165972806879214
0.2318276,0.0022591951602824625,0.1125354145494746,0.007099817525198449,0.011905629388339048,0.0458626197312287,0.015564875704579453,0.031249592291673064,0.0031804382126315307
0.2322931,0.0022610059925686128,0.11253700839583933,0.007122445088693626,0.011825964351305208,0.045898067030020084,0.015605374144464142,0.031135083803899635,0.0031951869185841684
0.2327586,0.002262507357469627,0.11253691882207277,0.007145018028168789,0.011746064617912388,0.045932468644354345,0.0156464933640897,0.031020106372852015,0.003210215494648904
0.2332241,0.002263698800717738,0.11253511725447281,0.007167531960795176,0.011665945798651225,0.04596579270257178,0.01568823282848727,0.03090466218879903,0.0032255204480256096
0.2336897,0.0022645799823801886,0.11253157559152589,0.00718998250139932,0.011585623469574702,0.04599800745324212,0.015730591860846917,0.030788753518888573,0.0032410982240791367
0.2341552,0.0022651506769393328,0.11252626621810559,0.007212365263298935,0.011505113167968114,0.04602908128197935,0.015773569641185127,0.03067238271250603,0.003256945207233333
0.2346207,0.0022654107733521963,0.11251916201927814,0.007234675859145029,0.011424430388094825,0.046058982728404224,0.01581716520507347,0.030555552206561958,0.0032730577218819112
0.2350862,0.00226536027508935,0.11251023639371578,0.0072569099017697454,0.011343590577018468,0.04608768050324414,0.01586137744242791,0.030438264530703918,0.0032894320333159014
0.2355517,0.002264999300152957,0.11249946326671884,0.007279063005039443,0.01126260913050226,0.04611514350555931,0.015906205096358268,0.030320522312447386,0.003306064348667413
0.2360172,0.0022643280810738403,0.11248681710284796,0.0073011307847125305,0.011181501388985899,0.04614134084008414,0.015951646762077273,0.030202328282220574,0.0033229508178694127
0.2364828,0.0022633469648874016,0.11247227291816699,0.0073231088593015935,0.011100282633640502,0.046166241834672134,0.01599770088586851,0.03008368527831796,0.0033400875346312007
0.2369483,0.0022620564130882252,0.1124558062920956,0.007344992850939352,0.011018968082501942,0.04618981605783247,0.016044365764112577,0.029964596251757108,0.0033574705374292634
0.2374138,0.0022604570015632135,0.11243739337887113,0.007366778386247988,0.010937572886682881,0.046212033336345965,0.01609163954237056,0.029845064271033346,0.0033750958105131473
0.2378793,0.0022585494205030984,0.11241701091861751,0.007388461097211384,0.010856112126663686,0.04623286377294773,0.016139520214523907,0.02972509252676657,0.003392959284925993
0.2383448,0.0022563344742921846,0.11239463624801967,0.0074100366220498015,0.010774600808662422,0.04625227776406372,0.016188005621969627,0.02960468433623424,0.0034110568395393655
0.2388103,0.002253813081376206,0.11237024731060083,0.007431500606096562,0.010693053861084016,0.046270246017587974,0.01623709345286983,0.029483843147784572,0.003429384302101988
0.2392759,0.002250986274108187,0.11234382266660109,0.007452848702676306,0.010611486131048654,0.046286739570687074,0.016286781241454548,0.029362572545123474,0.003447937450302002
0.2397414,0.0022478551985722255,0.11231534150245545,0.007474076573984437,0.010529912380999491,0.04630172980761831,0.01633706636737696,0.029240876251468782,0.0034667120128423247
0.2402069,0.002244421114385137,0.11228478363987024,0.007495179891967395,0.010448347285389606,0.046315188477547675,0.01638794605512028,0.02911875813356502,0.0034857036705286826
0.2406724,0.002240685394475935,0.1122521295444968,0.007516154339203425,0.010366805427448174,0.04632708771235431,0.016439417373455733,0.02899622220555194,0.003504908057369879
0.2411379,0.0022366495248431406,0.11221736033420192,0.007536995609783508,0.010285301296025673,0.0463374000444077,0.01649147723495129,0.02887327263267993,0.003524320761689869
0.2416034,0.0022323151042899394,0.11218045778693468,0.007557699410192122,0.010203849282517974,0.04634609842430403,0.016544122395531023,0.02874991373486564,0.003543937327251213
0.242069,0.002227683844137226,0.11214140434819002,0.007578261460187461,0.01012246367786904,0.046353156238548146,0.016597349454085086,0.02862614999008112,0.0035637532543895387
0.2425345,0.002222757567914603,0.1121001831380694,0.007598677493680747,0.010041158669651969,0.04635854732716735,0.016651154852130447,0.028501986037570173,0.003583764001158655
0.243,0.0022175382110294064,0.1120567779579393,0.007618943259614276,0.009959948339228019,0.04636224600124307,0.016705534873522603,0.028377426680885647,0.0036039649844860065
0.2434655,0.002212027820413847,0.11201117329668844,0.007639054522837885,0.009878846658983274,0.04636422706034673,0.01676048564421847,0.028252476890741573,0.0036243515813381916
0.243931,0.0022062285541503664,0.11196335433658401,0.007659007064983466,0.00979786748964246,0.04636446580986588,0.016816003132090654,0.02812714180767421,0.0036449191298962664
0.2443966,0.002200142681075288,0.11191330695872752,0.007678796685337186,0.00971702457765946,0.04636293807820677,0.01687208314679315,0.02800142674450634,0.0036656629307405724
0.2448621,0.0021937725803608614,0.11186101774811032,0.007698419201709096,0.009636331552684008,0.04635962023385919,0.01692872133967856,0.027875337188609395,0.003686578248044813
0.2453276,0.002187120741075778,0.11180647399826935,0.007717870451299758,0.009555801925104022,0.046354489202309626,0.0169859132037668,0.02774887880395841,0.0037076603107791214
0.2457931,0.0021801897617242543,0.11174966371554414,0.007737146291563598,0.009475449083662994,0.04634752248278827,0.017043654073765235,0.027622057432975012,0.003728904313921874
0.2462586,0.0021729823497637977,0.11169057562293745,0.007756242601068765,0.00939528629315179,0.046338698164835775,0.017101939126140164,0.027494879098153922,0.003750305419679995
0.2467241,0.002165501321101781,0.1116291991635824,0.007775155280353259,0.009315326692174183,0.046327994944675266,0.017160763379239462,0.027367350003469244,0.00377185875871753
0.2471897,0.0021577495995709814,0.1115655245038197,0.007793880252777181,0.00923558329098538,0.04631539214137544,0.0172201216934663,0.02723947653555752,0.0037935594313922498
0.2476552,0.0021497302163842333,0.1114995425358896,0.007812413465370988,0.009156068969402754,0.04630086971279056,0.017280008771503708,0.02711126526467571,0.0038154025090000473
0.2481207,0.0021414463095683436,0.1114312448802424,0.007830750889679654,0.009076796474787934,0.046284408271262886,0.017340419158589797,0.026982722945432955,0.0038373830350269065
0.2485862,0.0021329011233774285,0.11136062388747155,0.007848888522602649,0.00899777842009942,0.04626598909907327,0.017401347242843396,0.02685385651729577,0.003859496026408245
0.2490517,0.0021240980076857982,0.11128767263987278,0.007866822387229641,0.008919027282014822,0.046245594163625156,0.017462787255639944,0.02672467310486656,0.0038817364747954193
0.2495172,0.002115040417360506,0.11121238495263294,0.00788454853367178,0.008840555399121899,0.04622320613234731,0.017524733272037612,0.02659518001793537,0.0039040993478292015
0.2499828,0.0021057319116136743,0.1111347553746522,0.007902063039888364,0.00876237497017758,0.046198808387300346,0.01758717921125385,0.026465384751304905,0.003926579590420042
0.2504483,0.0020961761533346843,0.11105477918900375,0.007919362012508676,0.008684498052434226,0.04617238503947243,0.017650118837192922,0.026335294984388868,0.003949172126034913
0.2509138,0.0020863769084023213,0.11097245241303486,0.007936441587648684,0.008606936560032393,0.046143920942749724,0.017713545759025204,0.026204918580583655,0.003971871857990497
0.2513793,0.002076338044976949,0.11088777179811372,0.007953297931722295,0.008529702262459438,0.04611340170754766,0.017777453431819242,0.026074263586413498,0.003994673670752492
0.2518448,0.0020660635327727815,0.11080073482902615,0.007969927242246773,0.008452806783073278,0.04608081371408954,0.017841835157227662,0.025943338230449378,0.004017572431240777
0.2523103,0.0020555574423103138,0.11071133972302619,0.007986325748641932,0.00837626159769063,0.04604614412532025,0.017906684084227992,0.025812150922002123,0.004040562990140152
0.2527759,0.002044823944148959,0.1106195854285445,0.008002489713022629,0.008300078033239029,0.04600938089944316,0.017971993209919417,0.0256807102495905,0.004063640183216369
0.2532414,0.0020338673080999427,0.11052547162355789,0.008018415430984078,0.008224267266471904,0.04597051280206958,0.018037755380376358,0.025549024979185476,0.004086798832637123
0.2537069,0.0020226919024194747,0.11042899871362313,0.008034099232379502,0.008148840322745975,0.04592952941797012,0.018103963291559663,0.025417104052232353,0.004110033748297689
0.2541724,0.002011302192982224,0.11033016782957832,0.00804953748208958,0.008073808074860139,0.04588642116241778,0.01817060949028612,0.025284956583453057,0.004133339729150819
0.2546379,0.0019997027424351103,0.11022898082491442,0.008064726580783124,0.007999181241955039,0.04584117929211261,0.01823768637525685,0.025152591858431692,0.0041567115645405675
0.2551034,0.0019878982093314125,0.11012544027282012,0.008079662965668427,0.007924970388472423,0.04579379591567747,0.018305186198145022,0.025020019330987336,0.004180144035539645
0.255569,0.001975893347245199,0.11001954946290271,0.008094343111234812,0.00785118592317342,0.04574426400371465,0.018373101064743252,0.02488724862033849,0.004203631916289927
0.2560345,0.001963693003866095,0.10991131239758851,0.008108763529983961,0.007777838098214849,0.04569257739841349,0.018441422936170807,0.024754289508064128,0.004227169975345696
0.2565,0.0019513021200744042,0.10980073378820615,0.00812292077315084,0.007704937008282691,0.045638730822699244,0.01851014363014072,0.024621151934866553,0.004250752977019232
0.2569655,0.0019387257289966177,0.10968781905075568,0.008136811431414237,0.007632492589781878,0.04558271988891458,0.01857925482228674,0.02448784599714195,0.004274375682728319
0.257431,0.001925968955041359,0.10957257430136699,0.00815043213559711,0.007560514620081612,0.045524541107026,0.01864874804754992,0.024354381943364898,0.004298032852345211
0.2578966,0.0019130370129158423,0.10945500635145032,0.008163779557357123,0.007489012716815433,0.045464191892349085,0.018718614701624548,0.024220770170293535,0.004321719245546616
0.2583621,0.001899935206622926,0.10933512270254238,0.008176850409867802,0.007417996337235344,0.0454016705727879,0.018788846042462934,0.02408702121900235,0.0043454296231641935
0.2588276,0.001886668928438877,0.10921293154085251,0.008189641448490855,0.007347474777619267,0.045336976395585135,0.018859433191838585,0.023953145770749744,0.004369158748535108
0.2592931,0.0018732436578719803,0.10908844173151457,0.008202149471440198,0.00727745717273112,0.045270109533580585,0.01893036713696723,0.023819154642687558,0.004392901388852131
0.2597586,0.0018596649606021423,0.10896166281255161,0.00821437132043826,0.0072079524953328035,0.04520107109097591,0.019001638732184974,0.02368505878342,0.004416652316512812
0.2602241,0.0018459384874016526,0.10883260498856158,0.008226303881365108,0.00713896955574734,0.045129863108604125,0.01907323870068295,0.02355086926841944,0.004440406310467202
0.2606897,0.001832069973037271,0.10870127912413288,0.00823794408490093,0.007070517001472416,0.04505648856870181,0.01914515763629763,0.023416597295306672,0.004464158157563683
0.2611552,0.0018180652351538103,0.10856769673699916,0.008249288907162408,0.007002603316843548,0.0449809513991822,0.01921738600535599,0.0232822541790033,0.0044879026538923745
0.2616207,0.0018039301731393727,0.10843186999094191,0.0082603353703334,0.006935236822746052,0.04490325647740724,0.01928991414857456,0.023147851346763906,0.004511634606125692
0.2620862,0.0017896707669723905,0.10829381168844958,0.008271080543290359,0.006868425676375007,0.04482340963345656,0.019362732283011597,0.02301340033309569,0.004535348832855554
0.2625517,0.0017752930760506194,0.10815353526314096,0.008281521542222812,0.006802177871042376,0.044741417652891365,0.01943583050407154,0.022878912774573226,0.004559040165926817
0.2630172,0.00176080323800222,0.10801105477196014,0.00829165553124918,0.006736501236030454,0.04465728827901194,0.01950919878756105,0.022744400404555862,0.004582703451766453
0.2634828,0.0017462074674790586,0.1078663848871495,0.008301479723028202,0.006671403436490849,0.04457103021460811,0.01958282699179611,0.022609875047815055,0.004606333552708031
0.2639483,0.0017315120549323687,0.1077195408880071,0.008310991379366124,0.006606891973388178,0.044482653123203035,0.019656704859759514,0.022475348615078942,0.004629925348311023
0.2644138,0.0017167233653709191,0.10757053865243497,0.008320187811819837,0.006542974183487686,0.044392167629791736,0.019730822021308075,0.02234083309750123,0.004653473736674492
0.2648793,0.0017018478371018412,0.10741939464828472,0.008329066382296097,0.006479657239385957,0.04429958532107638,0.019805167995428776,0.022206340561061362,0.004676973635744713
0.2653448,0.001686891980454278,0.10726612592450756,0.008337624503646996,0.006416948149583921,0.04420491874520093,0.019879732192542878,0.022071883140902752,0.004700419984616304
0.2658103,0.0016718623764860254,0.10711075010211583,0.008345859640261778,0.006354853758601346,0.044108181410988025,0.019954503916857037,0.021937473035615714,0.004723807744826497
0.2662759,0.001656765675673338,0.10695328536496304,0.00835376930865517,0.006293380747132095,0.044009387786681,0.020029472368760425,0.021803122501471497,0.004747131901642206
0.2667414,0.0016416085965840843,0.10679375045034975,0.008361351078052318,0.006232535632239473,0.043908553298193743,0.020104626647267025,0.021668843846613682,0.004770387465339598
0.2672069,0.0016263979245344268,0.1066321646394622,0.008368602570970416,0.006172324767591102,0.04380569432687131,0.02017995575250257,0.021534649425213045,0.004793569472475887
0.2676724,0.0016111405102292057,0.10646854774765026,0.008375521463797051,0.0061127543437328015,0.043700828206764,0.02025544858823586,0.02140055163159181,0.004816672987153051
0.2681379,0.0015958432683862043,0.10630292011455043,0.008382105487365272,0.00605383038840101,0.04359397322141828,0.0203310939644545,0.021266562894323052,0.004839693102273176
0.2686034,0.0015805131763444759,0.10613530259405973,0.008388352427525295,0.005995558766873223,0.04348514860018798,0.020406880599985286,0.021132695670310987,0.004862624940785128
0.269069,0.0015651572726569137,0.10596571654416495,0.008394260125712753,0.005937945182355998,0.04337437451406986,0.020482797125159716,0.020998962438857783,0.004885463656922274
0.2695345,0.0015497826556672455,0.10579418381663291,0.008399826479513277,0.005880995176409973,0.04326167207106816,0.020558832084525074,0.020865375695722364,0.004908204437430968
0.27,0.0015343964820716367,0.10562072674656674,0.00840504944322321,0.005824714129411355,0.04314706331109256,0.02063497393960154,0.020731947947176692,0.00493084250278955
0.2704655,0.0015190059654650832,0.10544536814183555,0.00840992702840619,0.005769107261049321,0.043030571200394656,0.0207112110716858,0.020598691704064843,0.0049533731084175974
0.270931,0.0015036183748727775,0.10526813127238505,0.008414457304445318,0.005714179630858763,0.042912219625547234,0.02078753178470147,0.020465619475870188,0.004975791545875178
0.2713966,0.0014882410332666225,0.10508903985943743,0.00841863839909066,0.005659936138787795,0.042792033386971066,0.02086392430809668,0.020332743764795765,0.004998093144051839
0.2718621,0.001472881316067068,0.10490811806458991,0.00842246849900183,0.005606381525799442,0.04267003819201333,0.020940376799789107,0.020200077059862924,0.005020273270345099
0.2723276,0.0014575466496304429,0.10472539047882057,0.008425945850285456,0.005553520374506929,0.0425462606475821,0.021016877349158698,0.020067631831033047,0.0050423273318281935
0.2727931,0.0014422445097219353,0.1045408821114103,0.008429068759027316,0.005501357109841965,0.04242072825234098,0.02109341398008839,0.01993542052335715,0.005064250776406879
0.2732586,0.0014269824199743856,0.10435461837878912,0.008431835591818971,0.005449895999755409,0.04229346938846792,0.02116997465405303,0.01980345555115786,0.005086039093965063
0.2737241,0.0014117679503330245,0.10416662509331541,0.008434244776278724,0.005399141155949689,0.04216451331298243,0.021246547273256686,0.019671749292248186,0.005107687817499033
0.2741897,0.0013966087154863036,0.10397692845199626,0.008436294801566756,0.005349096534642304,0.04203389014864526,0.021323119683818493,0.019540314082191437,0.005129192524240049
0.2746552,0.0013815123732829517,0.10378555502515717,0.008437984218894249,0.005299765937359784,0.04190163087443455,0.021399679679007137,0.019409162208606293,0.005150548836765042
0.2751207,0.0013664866231353956,0.10359253174506941,0.008439311642026326,0.005251153011761397,0.0417677673156028,0.02147621500252387,0.01927830590552103,0.005171752424095193
0.2755862,0.0013515392044096768,0.1033978858945427,0.008440275747778583,0.005203261252491952,0.04163233213331894,0.02155271335183388,0.01914775734778068,0.0051927990027821405
0.2760517,0.001336677894801996,0.10320164509549097,0.008440875276506932,0.005156094002062964,0.04149535881389991,0.02162916238154566,0.019017528645510828,0.005213684337981588
0.2765172,0.0013219105087020004,0.10300383729747827,0.008441109032590483,0.005109654451761484,0.04135688165763632,0.021705549706837926,0.018887631838641502,0.005234404244514034
0.2769828,0.0013072448955429405,0.10280449076625142,0.008440975884907125,0.0050639456425858355,0.04121693576721692,0.02178186290693353,0.018758078891494532,0.005254954587912365
0.2774483,0.0012926889381388044,0.10260363407226598,0.00844047476730156,0.005018970466207545,0.04107555703575655,0.02185808952861971,0.01862888168743758,0.0052753312854559855
0.2779138,0.0012782505510085394,0.10240129607921167,0.008439604679045476,0.004974731665958693,0.04093278213443253,0.021934217089814054,0.018500052023607938,0.005295530307191173
0.2783793,0.0012639376786874647,0.10219750593254312,0.008438364685289601,0.004931231837843907,0.04078864849973442,0.02201023308317544,0.018371601605709102,0.005315547676937271
0.2788448,0.0012497582940259734,0.10199229304802165,0.008436753917507436,0.004888473431576196,0.04064319432033245,0.022086124979759147,0.01824354204288293,0.0053353794732783595
0.2793103,0.0012357203964756228,0.10178568710027332,0.008434771573930366,0.004846458751635771,0.040496458523570304,0.02216188023271523,0.018115884842660218,0.005355021830540009
0.2797759,0.0012218320103627076,0.10157771801136814,0.008432416919973899,0.004805189958351003,0.04034848076158838,0.022237486281028996,0.017988641405992326,0.005374470939750709
0.2802414,0.001208101183149419,0.10136841593942492,0.008429689288654727,0.004764669069000595,0.040199301397084344,0.02231293055330236,0.017861823022366465,0.005393723049587607
0.2807069,0.0011945359836826929,0.10115781126724596,0.008426588080998281,0.004724897958936052,0.0400489614887182,0.02238820047157457,0.017735440865007016,0.005412774467306182
0.2811724,0.0011811445004308524,0.1009459345909849,0.008423112766436428,0.004685878362723536,0.03989750277616955,0.022463283455180828,0.017609505986165248,0.005431621559653446
0.2816379,0.0011679348397081548,0.10073281670885059,0.00841926288319495,0.004647611875304171,0.039744967664854795,0.022538166924646958,0.01748402931249962,0.0054502607537642795
0.2821034,0.0011549151238873512,0.10051848860984917,0.008415038038670424,0.004610099953171887,0.03959139921031234,0.022612838305618402,0.017359021640548686,0.005468688538040511
0.282569,0.0011420934896003796,0.10030298146256554,0.008410437909796153,0.00457334391556797,0.03943684110226399,0.022687285032821487,0.01723449363229858,0.005486901463012319
0.2830345,0.0011294780859273125,0.10008632660398491,0.008405462243396843,0.004537344945691474,0.039281337648361385,0.022761494554054906,0.017110455810847077,0.00550489614218163
0.2835,0.0011170770725736946,0.09986855552835452,0.008400110856531837,0.004502104091924775,0.0391249337576269,0.022835454334209346,0.016986918556166106,0.005522669252847172
0.2839655,0.001104898618036414,0.0996496998760855,0.008394383636826831,0.004467622269073553,0.038967674923599,0.022909151859312943,0.01686389210096478,0.005540217536910958
0.284431,0.0010929508977582587,0.09942979142269433,0.008388280542794125,0.004433900259620562,0.0388096072071929,0.022982574640600325,0.01674138652665497,0.0055575378016659216
0.2848966,0.0010812420922713167,0.09920886206778391,0.00838180160414153,0.004400938714992547,0.038650777219288036,0.02305571021860289,0.016619411759421533,0.005574626920564524
0.2853621,0.0010697803853293676,0.09898694382406484,0.008374946922070161,0.004368738156839692,0.038491232103054496,0.023128546167257773,0.016497977566399206,0.0055914818339680775
0.2858276,0.0010585739620294185,0.09876406880641829,0.008367716669561393,0.0043372989783269636,0.03833101951603092,0.023201070098032992,0.016377093551958148,0.005608099549876589
0.2862931,0.001047631006922534,0.09854026922100387,0.008360111091653213,0.004306621445436704,0.03817018761196679,0.023273269664065975,0.016256769154100032,0.005624477144638927
0.2867586,0.0010369597021141028,0.0983155773544167,0.008352130505706235,0.004276705698281816,0.03800878502244184,0.02334513256431264,0.016137013640966424,0.0056406117636431065
0.2872241,0.0010265682253536828,0.0980900255628995,0.008343775301659574,0.004247551752428891,0.03784686083827542,0.02341664654770398,0.0160178361074611,0.00565650062198653
0.2876897,0.0010164647481145594,0.09786364626161483,0.008335045942276704,0.004219159500230629,0.03768446459073851,0.023487799417307116,0.015899245471987844,0.005672141005126017
0.2881552,0.0010066574336631614,0.09763647191398281,0.008325942963381404,0.004191528712166847,0.03752164623258122,0.023558579034487555,0.015781250473305152,0.005687530269507409
0.2886207,0.0009971544351184687,0.09740853502108913,0.008316466974083827,0.004164659038193452,0.03735845611888812,0.023628973323069333,0.01566385966749912,0.005702665843174553
0.2890862,0.0009879638935015498,0.09717986811116718,0.008306618656996695,0.004138550009098669,0.03719494498777387,0.023698970273489613,0.015547081425075732,0.005717545226357464
0.2895517,0.0009790939357753646,0.09695050372915769,0.00829639876844156,0.004113201037865903,0.03703116394093108,0.023768557946944303,0.01543092392817362,0.00573216599203942
0.2900172,0.0009705526728749626,0.09672047442634857,0.008285808138645056,0.004088611421042546,0.036867164424042295,0.023837724479521052,0.01531539516789834,0.005746525786502807
0.2904828,0.0009623481977281993,0.09648981275009666,0.008274847671924993,0.0040647803401140945,0.036702998207067704,0.023906458086316175,0.015200502941779085,0.00576062232985354
0.2909483,0.0009544885832670875,0.09625855123363265,0.008263518346866118,0.004041706862882896,0.03653871736442004,0.023974747065532025,0.015086254851348707,0.005774453416523885
0.2914138,0.0009469818804298944,0.09602672238594999,0.008251821216485317,0.004019389944850923,0.03637437425503827,0.024042579802551516,0.014972658299847856,0.00578801691575352
0.2918793,0.0009398361161540932,0.09579435868177874,0.00823975740838603,0.0039978284306059035,0.03621002150237152,0.024109944773986567,0.014859720490053949,0.00580131077204865
0.2923448,0.0009330592913602746,0.0955614925516457,0.008227328124901614,0.003977021055210168,0.036045711974284946,0.024176830551697184,0.014747448422235689,0.005814333005618932
0.2928103,0.00092665937892713,0.09532815637202213,0.008214534643227349,0.003956966445591564,0.03588149876289908,0.024243225806777943,0.014635848892233827,0.005827081712791952
0.2932759,0.0009206443216576175,0.09509438245556194,0.008201378315540896,0.003937663121935753,0.03571743516437439,0.024309119313508598,0.014524928489668886,0.005839555066404954
0.2937414,0.0009150220302364362,0.09486020304143312,0.008187860569110993,0.003919109499079222,0.03555357465865236,0.024374499953265526,0.014414693596276583,0.005851751316173481
0.2942069,0.0009098003811789439,0.0946256502857466,0.008173982906394234,0.003901303887902271,0.03538997088916463,0.024439356718391068,0.014305150384371627,0.0058636687890365816
0.2946724,0.0009049872147716604,0.094390756252087,0.00815974690511983,0.0038842444967212616,0.03522667764252116,0.024503678716018135,0.014196304815440536,0.005875305889478216
0.2951379,0.0009005903330045079,0.09415555290214984,0.008145154218362241,0.003867929432679379,0.03506374882818841,0.0245674551718479,0.014088162638864091,0.005886661099824437
0.2956034,0.000896617497494952,0.09392007208648989,0.008130206574601562,0.00385235670313515,0.03490123845816818,0.02463067543387867,0.01398072939076997,0.005897732980515923
0.296069,0.0008930764274042202,0.09368434553538477,0.008114905777771514,0.003837524217047963,0.034739200626687256,0.024693328976084165,0.013874010393016023,0.005908520170355401
0.2965345,0.0008899747973457825,0.09344840484981852,0.008099253707294847,0.0038234297863598467,0.034577689489908255,0.024755405402039507,0.013768010752304626,0.005919021386729538
0.297,0.0008873202352862869,0.0932122814925889,0.008083252318105942,0.00381007112737276,0.03441675924567127,0.024816894448493082,0.013662735359428343,0.0059292354258048945
0.2974655,0.0008851203204391563,0.0929760067795419,0.008066903640660374,0.0037974458621206457,0.03425646411327596,0.02487778598888236,0.013558188888647156,0.005939161162697706
0.297931,0.0008833825811510668,0.09273961187093645,0.008050209780931157,0.003785551519735504,0.0340968583133133,0.02493807003679182,0.013454375797197281,0.00594879755161732
0.2983966,0.0008821144927815465,0.09250312776294141,0.008033172920391322,0.0037743855378067574,0.033937996047556096,0.024997736749351043,0.013351300324931623,0.005958143625983252
0.2988621,0.0008813234755759565,0.09226658527926698,0.008015795315982505,0.003763945263733219,0.03377993147891674,0.02505677643057123,0.01324896649409175,0.005967198498515964
0.2993276,0.0008810168925321375,0.09203001506293156,0.007998079300069232,0.0037542279560670274,0.03362271871148087,0.025115179534618545,0.013147378109211199,0.005975961361301485
0.2997931,0.000881202047261031,0.0917934475681655,0.007980027280378547,0.0037452307858489666,0.03346641177062504,0.02517293666902301,0.01304653875714988,0.005984431485830053
0.3002586,0.0008818861818416042,0.0915569130524525,0.007961641739924679,0.003736950837934634,0.03331106458322658,0.02523003859782207,0.012946451807259113,0.005992608223009026
0.3007241,0.0008830764746704255,0.0913204415687096,0.007942925236918377,0.003729385112310938,0.033156730957973626,0.025286476244638065,0.012847120411676856,0.006000491003150355
0.3011897,0.0008847800383062564,0.09108406295760615,0.007923880404660565,0.0037225305254024134,0.03300346456578331,0.025342240695689196,0.012748547505752468,0.006008079335932933
0.3016552,0.0008870039173100394,0.09084780684002204,0.007904509951419907,0.0037163839113668394,0.03285131892033611,0.02539732320273353,0.012650735808600277,0.006015372810340144
0.3021207,0.0008897550860806706,0.0906117026096442,0.007884816660293916,0.003710942023379624,0.03270034735873419,0.025451715185945613,0.012553687823781117,0.006022371094572948
0.3025862,0.0008930404466869702,0.09037577942570128,0.00786480338905325,0.003706201534906413,0.03255060302229158,0.0255054082367251,0.012457405840110918,0.006029073935938803
0.3030517,0.0008968668266962749,0.09014006620583538,0.00784447306996891,0.003702159040963393,0.03240213883746384,0.025558394120436864,0.01236189193259526,0.006035481160716696
0.3035172,0.0009012409770001128,0.08990459161911045,0.007823828709622121,0.0036988110593647637,0.032255007496924754,0.025610664779081922,0.012267147963488748,0.006041592673998578
0.3039828,0.0009061695696374483,0.08966938407915749,0.0078028733886967416,0.003696154031956916,0.032109261440797385,0.02566221233389845,0.012173175583477996,0.006047408459507466
0.3044483,0.0009116591956160144,0.08943447173745715,0.0077816102617541015,0.0036941843258389154,0.03196495283804658,0.025713029087892057,0.01207997623298685,0.006052928579392427
0.3049138,0.0009177163627322809,0.08919988247676157,0.007760042556990178,0.0036928982345690144,0.03182213356803998,0.025763107528294516,0.011987551143602464,0.006058153174000671
0.3053793,0.0009243474933906296,0.08896564390465735,0.007738173575975019,0.0036922919793570194,0.03168085520228427,0.025812440328949967,0.011895901339620698,0.006063082461626918
0.3058448,0.0009315589224223221,0.08873178334727239,0.007716006693374283,0.0036923617102424503,0.03154116898634354,0.025861020352627485,0.011805027639709252,0.006067716738240216
0.3063103,0.0009393568949048524,0.08849832784312968,0.007693545356652721,0.003693103507258507,0.03140312582194616,0.02590884065325886,0.01171493065868686,0.006072056377188291
0.3067759,0.0009477475639822848,0.08826530413715081,0.007670793085759351,0.0036945133815819214,0.03126677624928639,0.02595589447810038,0.011625610809416804,0.006076101828879556
0.3072414,0.0009567369886871724,0.08803273867481187,0.007647753472794053,0.0036965872766687984,0.031132170429527033,0.02600217526981739,0.01153706830481292,0.006079853620442846
0.3077069,0.0009663311317646542,0.08780065759645449,0.007624430181655185,0.003699321069376555,0.030999358127508776,0.026047676668490314,0.011449303159956238,0.006083312355364972
0.3081724,0.0009765358574993221,0.08756908673175415,0.007600826947667823,0.0037027105710720773,0.030868388694672195,0.02609239251354094,0.011362315194320247,0.0060864787131061585
0.3086379,0.0009873569295454525,0.08733805159434763,0.007576947577192173,0.0037067515287261934,0.030739311052197914,0.026136316845577816,0.01127610403410282,0.006089353448693472
0.3091034,0.000998800008761197,0.08710757737662125,0.007552795947211639,0.003711439625994556,0.03061217367437065,0.02617944390815977,0.011190669114662651,0.0060919373922923205
0.309569,0.0010108706510473405,0.08687768894466233,0.0075283760049000585,0.0037167704842850473,0.030487024572172665,0.026221768149476805,0.011106009683058046,0.006094231448756072
0.3100345,0.001023574305191244,0.08664841083337561,0.0075036917671675776,0.0037227396638118393,0.03036391127711216,0.026263284223947487,0.011022124800685738,0.006096236597153855
0.3105,0.0010369163107166195,0.0864197672417665,0.00747874732018467,0.003729342664636287,0.03024288082529203,0.02630398699373197,0.010939013346017424,0.006097953890276598
0.3109655,0.0010509018957398017,0.08619178202839296,0.007453546818883808,0.0037365749276948384,0.03012397974172426,0.026343871530159896,0.010856674017431555,0.0060993844541213545
0.311431,0.0010655361748332082,0.0859644787069875,0.007428094486438336,0.0037444318358142072,0.030007254024895062,0.02638293311507213,0.010775105336137802,0.006100529487353999
0.3118966,0.0010808241468967092,0.08573788044225045,0.00740239461371811,0.0037529087147140064,0.02989274913158554,0.026421167242075192,0.010694305649191627,0.00610139026075043
0.3123621,0.0010967706930376567,0.0855120100458157,0.007376451558721541,0.003762000833997064,0.02978050996195259,0.026458569617707223,0.010614273132596275,0.006101968116616441
0.3128276,0.0011133805744603428,0.08528688997238956,0.007350269745983671,0.003771703408127617,0.029670580844874336,0.026495136162514067,0.010535005794489394,0.006102264468186428
0.3132931,0.0011306584303656874,0.08506254231606354,0.007323853665959939,0.0037820115973975802,0.029563005523564327,0.026530863012034205,0.0104565014784115,0.006102280799001128
0.3137586,0.0011486087758619886,0.08483898880680087,0.007297207874385351,0.003792920508881079,0.0294578271414584,0.026565746517691193,0.010378757866653314,0.0061020186622645365
0.3142241,0.0011672359998875844,0.08461625080709645,0.00727033699160873,0.003804425197377452,0.029355088228377887,0.026599783247592525,0.010301772483679073,0.006101479680180146
0.3146897,0.0011865443631463037,0.08439434930880936,0.007243245701901732,0.003816520666342918,0.029254830686972724,0.026632969987233922,0.010225542699622786,0.006100665543266617
0.3151552,0.0012065379960566,0.08417330493016613,0.007215938752742275,0.0038292018688111024,0.02915709577944774,0.026665303740108216,0.010150065733854397,0.006099578009652958
0.3156207,0.0012272208967152739,0.0839531379129328,0.007188420954072034,0.0038424637083026036,0.029061924114575328,0.02669678172821788,0.01007533865861279,0.006098218904353238
0.3160862,0.0012485969288767037,0.0837338681197529,0.007160697177527587,0.0038563010397237897,0.02896935563499753,0.026727401392490253,0.010001358402702483,0.006096590118520868
0.3165517,0.0012706698199484998,0.08351551503164834,0.007132772355644746,0.003870708670255009,0.02887942960482069,0.02675716039309427,0.009928121755250801,0.006094693608682404
