Time,Rectus Femoris right,Rectus Femoris left,Hamstrings right,Hamstrings left,TibilaisÂ Anterior right,TibilaisÂ Anterior left,Gastrocnemius right,Gastrocnemius left
0.0,0.006239899931810588,0.0647977675458807,0.0016452019871683766,0.022172546935795436,0.09081892214751006,0.05329329311910103,0.012643395710239815,-0.03713662295962241
0.0004655,0.006370729774667912,0.06575882451032432,0.0019008699182675537,0.022584007486428595,0.09196364227890276,0.053804972720704065,0.012818866600271905,-0.0362647917359364
0.000931,0.0065011384947176575,0.06672626761435531,0.0021569102667208734,0.022997013891783706,0.09310888608913018,0.054316287835182726,0.012993311447380019,-0.03539253387285285
0.0013966,0.006631104052784295,0.06769999731047434,0.0024132914763655283,0.02341152173119755,0.09425448461583116,0.05482715908760103,0.013166695464720777,-0.03451994060937135
0.0018621,0.006760604485551272,0.06867991217639656,0.0026699818776241037,0.02382748618465711,0.09540026833034265,0.055337507151210684,0.013338984041766705,-0.033647103002750936
0.0023276,0.006889617913615615,0.0696659089316436,0.0029269496961090657,0.02424486204344225,0.096546067185972,0.055847252777064545,0.013510142757422763,-0.032774111902477296
0.0027931,0.007018122549565731,0.07065788245479213,0.0031841630612640575,0.02466360372089857,0.09769171066656882,0.05635631682362088,0.01368013739316339,-0.03190105792454936
0.0032586,0.007146096706079031,0.0716557258013718,0.0034415900150375333,0.025083665263334692,0.09883702783536538,0.05686462028630516,0.013848933946183719,-0.03102803142610872
0.0037241,0.007273518804036002,0.07265933022240582,0.003699198520584322,0.02550500036103789,0.0999818473840561,0.05737208432699833,0.01401649864255878,-0.030155122480434737
0.0041897,0.00740036738064736,0.07366858518358763,0.003956956470990779,0.025927562359402048,0.10112599768208705,0.05787863030342192,0.014182797950404636,-0.029282420852326872
0.0046552,0.00752662109759087,0.07468337838508832,0.0042148316980192575,0.026351304270161708,0.10226930682612759,0.0583841797983913,0.014347798593035524,-0.028410015973894705
0.0051207,0.00765225874915443,0.07570359578198899,0.004472791980867715,0.026776178782725937,0.10341160268969624,0.05888865464890942,0.014511467562111044,-0.027537996920774598
0.0055862,0.007777259270381931,0.07672912160533207,0.004730805054940295,0.02720213827560553,0.1045527129729127,0.059391976975074624,0.014673772130767605,-0.026666452388790327
0.0060517,0.007901601745218438,0.0777598383837856,0.004988838620624825,0.027629134827926994,0.10569246525234793,0.05989406920877709,0.014834679866728236,-0.02579547067107337
0.0065172,0.008025265414651166,0.07879562696591354,0.005246860352073211,0.02805712023102667,0.10683068703094317,0.060394854122159974,0.014994158645384892,-0.024925139635657127
0.0069828,0.008148229684842712,0.0798363665430451,0.005504837905980807,0.028486046000118136,0.10796720578796867,0.06089425485582297,0.015152176662847431,-0.024055546703557754
0.0074483,0.008270474135252965,0.08088193467273509,0.005762738930360935,0.028915863386026017,0.10910184902899224,0.06139219494674764,0.015308702448953392,-0.02318677882735313
0.0079138,0.008391978526746115,0.08193220730280691,0.006020531073310833,0.029346523386979195,0.11023444433582773,0.06188859835592572,0.015463704880232718,-0.022318922470269884
0.0083793,0.008512722809679178,0.08298705879596918,0.006278181991765481,0.029777976760456293,0.11136481941643345,0.062383389495673174,0.015617153192821557,-0.021452063585787384
0.0088448,0.008632687131968493,0.08404636195499625,0.00653565936023583,0.030210174035076275,0.11249280215472979,0.06287649325661372,0.01576901699531934,-0.020586287597765988
0.0093103,0.00875185184713072,0.08510998804846252,0.006792930879528117,0.030643065522526828,0.11361822066030489,0.06336783503431719,0.01591926628158339,-0.019721679381105528
0.0097759,0.008870197522294917,0.08617780683702006,0.007049964285441068,0.03107660132952309,0.11474090331797689,0.0638573407555791,0.016067871443455357,-0.01885832324293861
0.0102414,0.008987704946182435,0.08724968660020828,0.007306727357437901,0.03151073136978934,0.11586067883718132,0.06434493690432949,0.016214803283414018,-0.017996302904362115
0.0107069,0.009104355137051406,0.08832549416378452,0.007563187927290156,0.03194540537605616,0.11697737630115274,0.06483055054715972,0.016360033027148963,-0.017135701482709643
0.0111724,0.009220129350602764,0.08940509492756335,0.007819313887690468,0.0323805729120662,0.11809082521587073,0.06531410935845683,0.01650353233604994,-0.016276601474367082
0.0116379,0.009335009087844735,0.09048835289375189,0.008075073200831472,0.03281618338458144,0.11920085555874164,0.06579554164513614,0.016645273319606756,-0.015419084738133233
0.0121034,0.009448976102912841,0.0915751306957679,0.008330433906948072,0.033252186055385644,0.1203072978269886,0.06627477637096359,0.016785228547714703,-0.014563232479127096
0.012569,0.009562012410842452,0.09266528962752679,0.008585364132820317,0.03368853005327579,0.12140998308572316,0.06675174318046044,0.01692337106288046,-0.013709125233243104
0.0130345,0.00967410029529093,0.09375868967318254,0.008839832100234158,0.034125164386037105,0.12250874301567295,0.06722637242238344,0.017059674392323445,-0.01285684285215514
0.0135,0.009785222316206335,0.09485518953730782,0.009093806134397298,0.0345620379523965,0.12360340996054028,0.06769859517277386,0.017194112559967518,-0.012006464488869691
0.0139655,0.009895361317439656,0.09595464667549701,0.009347254672307358,0.034999099553950044,0.1246938169739676,0.06816834325756928,0.017326660098317823,-0.011158068583827889
0.014431,0.010004500434297467,0.09705691732537597,0.009600146271069568,0.03543629790706057,0.12577979786608645,0.06863554927477236,0.017457292060217587,-0.010311732851555703
0.0148966,0.01011262310103185,0.09816185653800172,0.009852449616161106,0.035873581654721674,0.1268611872496273,0.06910014661617149,0.017585984030479666,-0.009467534267861078
0.0153621,0.01021971305826445,0.0992693182096352,0.01010413352963922,0.036310899378384706,0.12793782058556796,0.06956206948860784,0.017712712137387676,-0.00862554905757626
0.0158276,0.010325754360341562,0.10037915511387005,0.010355166978290194,0.03674819960974534,0.12900953422830033,0.07002125293478423,0.01783745306406169,-0.007785852682843058
0.0162931,0.01043073138261714,0.10149121893410129,0.010605519081716207,0.03718543084248637,0.1300761654702971,0.07047763285361036,0.017960184059683693,-0.006948519831938269
0.0167586,0.010534628828660828,0.10260536029631771,0.010855159120357056,0.03762254154397327,0.13113755258626306,0.07093114602007937,0.01808088295057824,-0.0061136244086360024
0.0172241,0.01063743173738816,0.10372142880220345,0.011104056543443697,0.03805948016689884,0.13219353487675875,0.07138173010467083,0.018199528151143972,-0.005281239522103353
0.0176897,0.010739125490110265,0.10483927306253449,0.01135218097688048,0.0384961951608735,0.13324395271128708,0.07182932369227557,0.018316098674631895,-0.004451437477325603
0.0181552,0.010839695817500564,0.10595874073085752,0.011599502231052869,0.03893263498395754,0.1342886475708346,0.07227386630063884,0.018430574143766466,-0.003624289766056966
0.0186207,0.010939128806476073,0.10707967853743905,0.011845990308557498,0.03936874811413207,0.1353274620898609,0.07271529839831918,0.018542934801205585,-0.0027998670582926747
0.0190862,0.011037410906991065,0.10820193232347364,0.012091615411851284,0.03980448306070524,0.13636024009772876,0.07315356142216144,0.018653161519835603,-0.0019782391942579874
0.0195517,0.011134528938740855,0.10932534707554081,0.012336347950816432,0.04023978837565074,0.13738682665956814,0.07358859779428299,0.018761235812897483,-0.0011594751769093852
0.0200172,0.011230470097773582,0.11044976696029982,0.012580158550238195,0.040674612664874966,0.13840706811656547,0.07402035093857355,0.018867139843940305,-0.00034364316494286945
0.0204828,0.011325221963007885,0.11157503535941168,0.012823018057192267,0.04110890459940957,0.13942081212567028,0.07444876529670914,0.018970856436598394,0.00046918953369615954
0.0209483,0.011418772502654342,0.11270099490467797,0.013064897548338705,0.04154261292652531,0.14042790769871014,0.07487378634368204,0.019072369084188433,0.001278956467807391
0.0214138,0.0115111100805386,0.1138274875133847,0.013305768337119236,0.041975686480763205,0.14142820524090527,0.07529536060284814,0.019171661959123013,0.0020855920484408115
0.0218793,0.011602223462324106,0.11495435442383933,0.013545601980854808,0.04240807419487849,0.1424215565887735,0.07571343566049372,0.019268719922136985,0.0028890315539192917
0.0223448,0.011692101821632238,0.11608143623108791,0.013784370287740213,0.04283972511069249,0.14340781504741712,0.07612796017992296,0.01936352853132296,0.0036892111343854125
0.0228103,0.011780734746057644,0.11720857292279882,0.014022045323732652,0.043270588389847424,0.14438683542718292,0.0765388839150671,0.01945607405097233,0.004486067815879509
0.0232759,0.011868112243076486,0.11833560391529865,0.014258599419331235,0.043700613324458785,0.14535847407968733,0.07694615772361627,0.019546343460218055,0.00527953950395601
0.0237414,0.01195422474584517,0.11946236808974427,0.014494005176244634,0.04412974934765977,0.14632258893319874,0.07734973357967441,0.01963432446147551,0.006069564986845253
0.0242069,0.01203906311888711,0.1205887038284151,0.014728235473944373,0.04455794604403201,0.14727903952736915,0.07774956458593808,0.01972000548867782,0.006856083938168021
0.0246724,0.012122618663664948,0.12171444905110894,0.014961263476101477,0.04498515315991682,0.14822768704730707,0.07814560498540012,0.019803375715302184,0.0076390369192102054
0.0251379,0.012204883124035535,0.12283944125162444,0.015193062636904378,0.045411320613601,0.14916839435698492,0.07853781017257906,0.019884425062183835,0.008418365380764998
0.0256034,0.012285848691584923,0.12396351753431409,0.0154236067072561,0.045836398505370995,0.1501010260319748,0.0789261367042752,0.01996314420511447,0.009194011664550316
0.026069,0.012365508010840518,0.12508651465069245,0.015652869740848712,0.046260337127429454,0.15102544839150717,0.07931054230985402,0.020039524582222048,0.009965919004209343
0.0265345,0.012443854184357502,0.1262082690360865,0.015880826100113078,0.04668308697366854,0.15194152952984727,0.07969098590105736,0.020113558401129022,0.01073403152590262
0.027,0.012520880777676463,0.1273286168463168,0.016107450462041848,0.04710459874929504,0.15284913934698396,0.08006742758134273,0.020185238645886065,0.011498294248500608
0.0274655,0.01259658182414922,0.1284473939944002,0.0163327178238837,0.04752482338030309,0.15374814957862393,0.08043982865475025,0.020254559083678434,0.012258653083386136
0.027931,0.01267095182962975,0.12956443618726615,0.016556603508706937,0.047943712022791705,0.15463843382548423,0.08080815163429694,0.02032151427130198,0.013015054833876617
0.0283966,0.012743985777027178,0.13067957896247942,0.016779083170830576,0.04836121607212536,0.1555198675818745,0.0811723602498978,0.020386099561405798,0.013767447194276174
0.0288621,0.01281567913071793,0.1317926577249617,0.01700013280112118,0.04877728717193677,0.15639232826355934,0.08153241945581242,0.020448311108498443,0.01451577874856805
0.0293276,0.012886027840814164,0.13290350778370397,0.0172197287321537,0.04919187722297242,0.15725569523489002,0.08188829543761648,0.02050814587471446,0.015259998968757781
0.0297931,0.012955028347285864,0.13401196438846188,0.017437847643234455,0.0496049383917817,0.15810984983519394,0.08223995561869626,0.02056560163533789,0.016000058212877737
0.0302586,0.013022677583933977,0.13511786276642684,0.017654466565284542,0.050016423119251446,0.15895467540440925,0.082587368666265,0.02062067698407939,0.01673590772266368
0.0307241,0.013088972982212253,0.13622103815886544,0.017869562885581867,0.05042628412898755,0.1597900573079515,0.08293050449689916,0.020673371338103427,0.017467499620914186
0.0311897,0.013153912474895417,0.13732132585772136,0.018083114352360076,0.050834474435545285,0.16061588296079846,0.08326933428159332,0.02072368494280212,0.01819478690854376
0.0316552,0.013217494499591467,0.1384185612421735,0.018295099079263022,0.0512409473525101,0.16143204185077992,0.08360383045033191,0.020771618876312268,0.018917723461340668
0.0321207,0.01327971800209595,0.1395125798151441,0.01850549554965358,0.051645656500430556,0.16223842556106063,0.08393396669617836,0.020817175053772292,0.019636264026440427
0.0325862,0.01334058243958617,0.14060321723975064,0.01871428262077645,0.052048555814605116,0.1630349277918051,0.08425971797888263,0.020860356231315793,0.020350364218525853
0.0330517,0.013400087783653408,0.1416903093756963,0.018921439527775478,0.05244959955272499,0.1638214443810149,0.0845810605280104,0.02090116600979864,0.021059980515764617
0.0335172,0.013458234523171273,0.14277369231559311,0.01912694588756721,0.05284874230237611,0.16459787332453035,0.08489797184559872,0.020939608838256456,0.021765070255495178
0.0339828,0.013515023666998447,0.14385320242121277,0.019330781702573446,0.05324593898840339,0.16536411479518742,0.08521043070834387,0.020975690017089387,0.022465591629672103
0.0344483,0.013570456746514057,0.1449286763596591,0.019532927364316267,0.0536411448801414,0.1661200711611217,0.08551841716932815,0.021009415700971062,0.023161503680081703
0.0349138,0.013624535817983955,0.14599995113945616,0.01973336365687936,0.05403431559851579,0.16686564700321105,0.08582191255929214,0.02104079290147871,0.023852766293338847
0.0353793,0.01367726346475606,0.14706686414654577,0.019932071760239485,0.05442540712302023,0.16760074913164852,0.08612089948745877,0.02106982948944164,0.0245393401956758
0.0358448,0.013728642799282861,0.14812925318018674,0.020129033253471852,0.05481437579857311,0.16832528660163817,0.08641536184191521,0.021096534197005547,0.025221186947533683
0.0363103,0.013778677464969146,0.14918695648874877,0.020324230117833037,0.05520117834225862,0.16903917072820612,0.08670528478955868,0.021120916619410377,0.025898268937967102
0.0367759,0.013827371637842941,0.15023981280539309,0.02051764473972495,0.05558577184995603,0.1697423151001206,0.08699065477561155,0.021142987216480082,0.026570549378872346
0.0372414,0.013874730028047778,0.15128766138363178,0.020709259913543294,0.05596811380286096,0.17043463559291527,0.08727145952271179,0.021162757313822816,0.027237992299049402
0.0377069,0.01392075788115442,0.15233034203275672,0.020899058844413947,0.0563481620739021,0.17111605038101196,0.08754768802958358,0.02118023910374075,0.02790056253810782
0.0381724,0.013965460979290386,0.1533676951531285,0.021087025150820674,0.05672587493405671,0.17178647994894028,0.08781933056929284,0.021195445645849173,0.02855822574022643
0.0386379,0.014008845642085812,0.15439956177131603,0.021273142867127684,0.05710121105856779,0.17244584710165284,0.08808637868709206,0.02120839086740505,0.029210948347776593
0.0391034,0.014050918727434393,0.15542578357507555,0.02145739644600061,0.05747412953306629,0.17309407697393495,0.08834882519785879,0.021219089563345724,0.029858697594818545
0.039569,0.014091687632068414,0.15644620294815959,0.021639770760729773,0.05784458985960135,0.17373109703890804,0.08860666418313157,0.021227557396038828,0.030501441500480144
0.0400345,0.014131160291947211,0.15746066300494535,0.021820251107459703,0.058212551962581585,0.17435683711562538,0.08885989098774752,0.021233810894744787,0.03113914886222712
0.0405,0.014169345182458689,0.1584690076248733,0.021998823207329352,0.05857797619463043,0.17497122937575832,0.08910850221608654,0.021237867454793464,0.031771789249033795
0.0409655,0.014206251318433753,0.15947108148668743,0.0221754732085275,0.058940823342358235,0.17557420834937193,0.08935249572792747,0.02123974533647648,0.0323993329944629
0.041431,0.014241888253973926,0.1604667301024698,0.022350187688268214,0.05930105463205386,0.17616571092978764,0.0895918706339226,0.02123946366365688,0.03302175118966304
0.0418966,0.014276266082092577,0.16145579985146147,0.022522953654691587,0.059658631735298374,0.17674567637753122,0.08982662729069861,0.02123704242209758,0.03363901567629215
0.0423621,0.014309395434170407,0.16243813801366225,0.02269375854869506,0.06001351677450384,0.17731404632336661,0.09005676729559214,0.021232502457510138,0.034251099039374996
0.0428276,0.014341287479226117,0.16341359280320086,0.022862590245700684,0.060365672328380166,0.1778707647704168,0.09028229348102858,0.0212258654733254,0.0348579746001026
0.0432931,0.014371953923003142,0.1643820134014657,0.023029437057363822,0.06071506143733334,0.17841577809537895,0.09050320990855203,0.021217154028187656,0.03545961640858126
0.0437586,0.014401407006873552,0.16534324998998554,0.023194287733228573,0.06106164760879798,0.17894903504884455,0.09071952186251436,0.02120639153317417,0.03605599923653848
0.0442241,0.014429659506560144,0.16629715378304888,0.02335713146233511,0.06140539482250708,0.1794704867547403,0.09093123584343019,0.021193602248741932,0.03664709856999285
0.0446897,0.014456724730677783,0.16724357706004886,0.02351795787478415,0.06174626753570142,0.17998008670890833,0.09113835956100483,0.02117881128140358,0.03723289060189473
0.0451552,0.014482616519095009,0.16818237319754129,0.02367675704326352,0.06208423068828066,0.18047779077684484,0.09134090192684116,0.021162044580134407,0.03781335222474432
0.0456207,0.014507349241116836,0.1691133967010031,0.023833519484541744,0.062419249707897535,0.18096355719061713,0.091538873046832,0.02114332893251238,0.038388461023193314
0.0460862,0.014530937793489723,0.1700365032362806,0.023988236160933495,0.06275129051499632,0.18143734654497767,0.09173228421324338,0.02112269196059297,0.038958195266636436
0.0465517,0.014553397598229718,0.17095154966071913,0.024140898481741533,0.06308031952779591,0.18189912179269294,0.09192114789649412,0.021100162116520656,0.03952253390179879
0.0470172,0.0145747446002749,0.17185839405396797,0.024291498304679637,0.06340630366721761,0.18234884823910372,0.09210547773663674,0.021075768677878987,0.04008145654532492
0.0474828,0.014594995264963244,0.17275689574845937,0.024440027937280853,0.06372921036175734,0.18278649353593346,0.09228528853454449,0.021049541742781168,0.04063494347637548
0.0479483,0.014614166575337338,0.17364691535956073,0.0245864801382951,0.06404900755230138,0.18321202767436023,0.092460596242809,0.02102151222470335,0.04118297562923729
0.0484138,0.014632276029277448,0.1745283148154017,0.024730848119080093,0.06436566369688451,0.1836254229773687,0.09263141795635238,0.020991711847062774,0.0417255345859528
0.0488793,0.014649341636464693,0.17540095738637698,0.02487312554498924,0.06467914777538968,0.18402665409139735,0.09279777190275719,0.02096017313754299,0.042262602568975224
0.0493448,0.01466538191517627,0.17626470771432615,0.025013306536760014,0.06498942929418787,0.18441569797729787,0.0929596774323177,0.020926929422168304,0.04279416243385576
0.0498103,0.014680415888914878,0.17711943184139026,0.02515138567190614,0.06529647829071776,0.18479253390062247,0.09311715500781521,0.020892014819129577,0.043320197661969484
0.0502759,0.014694463082874741,0.177964997238544,0.02528735798611667,0.06560026533800428,0.18515714342125494,0.0932702261940208,0.020855464232363306,0.043840692353286685
0.0507414,0.014707543520246738,0.1788012728338012,0.02542121897466491,0.06590076154911607,0.18550951038240118,0.09341891364692892,0.020817313344886044,0.04435563121919627
0.0512069,0.014719677718365385,0.17962812904009187,0.02555296459382987,0.06619793858156157,0.18584962089895488,0.09356324110272578,0.020777598611886137,0.04486499957538783
0.0516724,0.014730886684700597,0.18044543778280714,0.02568259126233291,0.0664917686416237,0.18617746334525312,0.09370323336649582,0.020736357253575054,0.045368783334798816
0.0521379,0.014741191912697267,0.18125307252700917,0.025810095862791902,0.06678222448863269,0.18649302834223833,0.09383891630067005,0.020693627247800613,0.045866969000633195
0.0526034,0.014750615377465809,0.1820509083043021,0.02593547574319522,0.0670692794391765,0.18679630874404102,0.09397031681321927,0.020649447322424633,0.046359543659458026
0.053069,0.014759179531326848,0.18283882173935795,0.02605872871839761,0.06735290737124817,0.1870872996239984,0.09409746284559437,0.02060385694746771,0.046846494974384374
0.0535345,0.014766907299213271,0.18361669107609285,0.02617985307163988,0.06763308272832946,0.18736599826012362,0.09422038336041655,0.02055689632702399,0.04732781117833899
0.054,0.014773822073932782,0.1843843962034859,0.02629884755609428,0.06790978052340997,0.1876324041200396,0.09433910832892027,0.020508606390949,0.04780348106743308
0.0544655,0.014779947711294013,0.18514181868103302,0.026415711396437197,0.06818297634294128,0.18788651884539162,0.09445366871815175,0.0204590287863236,0.048273493994434515
0.054931,0.014785308525099227,0.18588884176382725,0.02653044429045085,0.06845264635072565,0.18812834623575433,0.09456409647792742,0.0204082058686974,0.04873783986234907
0.0553966,0.014789929282006538,0.18662535042725645,0.02664304641065529,0.06871876729173851,0.1883578922320492,0.09467042452755753,0.020356180693115056,0.04919650911811646
0.0558621,0.014793835196264518,0.18735123139130877,0.02675351840597201,0.0689813164958838,0.18857516489948928,0.09477268674234007,0.020302997004928762,0.04964949274642596
0.0563276,0.014797051924322057,0.18806637314447577,0.0268618614034202,0.06924027188168068,0.18878017441006803,0.09487091793983192,0.020248699230400336,0.050096782263656436
0.0567931,0.014799605559316316,0.18877066596724223,0.02696807700984649,0.06949561195988008,0.18897293302460907,0.0949651538659039,0.020193332467096203,0.05053836971194507
0.0572586,0.014801522625441705,0.189464001955152,0.02707216731368885,0.06974731583700816,0.18915345507439277,0.09505543118058739,0.020136942474078354,0.05097424765338866
0.0577241,0.01480283007220273,0.1901462750414386,0.02717413488677514,0.06999536321883414,0.18932175694237605,0.09514178744372065,0.020079575661894326,0.05140440916438078
0.0581897,0.01480355526855366,0.19081738101920984,0.02727398278615668,0.07023973441375873,0.18947785704402065,0.09522426110040368,0.02002127908236905,0.05182884783008803
0.0586552,0.01480372599692779,0.191477217563177,0.027371714555977096,0.07048041033611951,0.18962177580774486,0.09530289146627047,0.01996210041820128,0.05224755773906791
0.0591207,0.014803370447159053,0.19212568425092108,0.027467334229376583,0.07071737250940836,0.18975353565501268,0.09537771871258865,0.019902087972367335,0.052660533478030555
0.0595862,0.01480251721029863,0.19276268258369073,0.027560846330431685,0.07095060306939657,0.18987316098007406,0.09544878385119665,0.019841290657334698,0.05306777012674639
0.0600517,0.014801195272329124,0.19338811600672948,0.027652255876130526,0.07118008476716212,0.1899806781293691,0.09551612871928916,0.019779757984088153,0.05346926325310131
0.0605172,0.014799434007778684,0.19400188992913034,0.027741568378383243,0.07140580097201363,0.1900761153806092,0.09557979596406185,0.019717540050971052,0.05386500890830084
0.0609828,0.014797263173237473,0.1946039117432184,0.02782878984606727,0.07162773567430568,0.1901595029215475,0.09563982902722563,0.01965468753234428,0.05425500362222486
0.0614483,0.014794712900778686,0.1951940908434613,0.027913926787106903,0.07184587348813957,0.1902308728284515,0.09569627212940121,0.019591251667065424,0.05463924439893407
0.0619138,0.01479181369128628,0.19577233864490767,0.02799698621058634,0.07206019965394418,0.1902902590442878,0.09574917025440355,0.019527284246790542,0.055017728712329725
0.0623793,0.014788596407691482,0.1963385686011523,0.028077975628895305,0.07227070004093113,0.19033769735663086,0.09579856913342631,0.01946283760410088,0.055390454501967674
0.0628448,0.014785092268120071,0.19689269622182642,0.02815690305990604,0.07247736114941886,0.19037322537530602,0.09584451522913583,0.01939796460045701,0.0557574201690278
0.0633103,0.014781332838952355,0.1974346390896099,0.02823377702918041,0.07268017011301975,0.1903968825097787,0.09588705571968403,0.019332718613982842,0.05611862457243961
0.0637759,0.014777350027797637,0.1979643168767625,0.028308606572205745,0.07287911470068431,0.19040870994630085,0.0959262384826489,0.019267153527082165,0.05647406702516434
0.0642414,0.014773176076384866,0.1984816513611682,0.028381401236657954,0.07307418331859639,0.19040875062482848,0.09596211207891114,0.01920132371389052,0.05682374729063377
0.0647069,0.014768843553371044,0.19898656644188692,0.02845217108469043,0.07326536501191326,0.19039704921572387,0.09599472573647475,0.019135284027565393,0.057167665579345606
0.0651724,0.01476438534706884,0.19947898815420703,0.028520926695247247,0.07345264946634468,0.19037365209625606,0.09602412933423908,0.019069089787417715,0.057505822545614975
0.0656379,0.014759834658094743,0.1999588446841934,0.028587679166399097,0.07363602700956498,0.19033860732691416,0.09605037338572958,0.019002796765887613,0.05783821928448108
0.0661034,0.014755224991938935,0.20042606638272678,0.028652440117700476,0.07381548861245237,0.19029196462754733,0.09607350902279306,0.01893646117536746,0.05816485732876804
0.066569,0.01475059015145805,0.20088058577903123,0.028715221692566507,0.07399102589014953,0.19023377535334532,0.09609358797926346,0.018870139654875037,0.05848573864629833
0.0670345,0.01474596422929184,0.20132233759368712,0.028776036560667753,0.07416263110293933,0.19016409247067384,0.09611066257460289,0.018803889256579776,0.0588008656372571
0.0675,0.014741381600204759,0.20175125875112776,0.028834897920341204,0.07433029715692899,0.190082970532779,0.09612478569752295,0.018737767432184936,0.05911024113170524
0.0679655,0.014736876913353585,0.20216728839161657,0.028891819501015548,0.07449401760453547,0.18999046565537595,0.09613601078958987,0.018671832019168777,0.05941386838723912
0.068431,0.014732485084482118,0.20257036788270222,0.0289468155656486,0.07465378664476496,0.18988663549213475,0.09614439182881754,0.018606141226887796,0.059711751086794294
0.0688966,0.014728241288044237,0.2029604408301473,0.02899990091317459,0.07480959912327839,0.18977153921007756,0.09614998331325136,0.018540753622545224,0.06000389333659028
0.0693621,0.014724180949256673,0.20333745308832787,0.02905109088095873,0.07496145053223557,0.18964523746489811,0.09615284024454557,0.018475728117028044,0.06029029966421335
0.0698276,0.01472033973608292,0.20370135277010057,0.029100401347256458,0.07510933700991083,0.18950779237621446,0.096153018111536,0.018411123950615668,0.06057097501683397
0.0702931,0.014716753551149805,0.20405209025613535,0.02914784873367444,0.07525325534007361,0.18935926750276438,0.0961505728738099,0.01834700067856337,0.06084592475955498
0.0707586,0.014713458523598347,0.20438961820371152,0.029193450007630423,0.0753932029511286,0.18919972781755257,0.09614556094527424,0.01828341815656346,0.06111515467388682
0.0712241,0.014710491000870476,0.2047138915549769,0.02923722268480872,0.07552917791501094,0.18902923968295662,0.0961380391777232,0.018220436526087007,0.06137867095634591
0.0716897,0.014707887540433402,0.20502486754467175,0.0292791848316082,0.07566117894583331,0.18884787082579974,0.0961280648444058,0.01815811619960882,0.06163648021717194
0.0721552,0.014705684901443278,0.20532250570731989,0.02931935506757943,0.07578920539828274,0.18865569031239643,0.09611569562359353,0.018096517845718203,0.061888589479160386
0.0726207,0.01470392003634986,0.20560676788389223,0.029357752567847697,0.07591325726576682,0.18845276852357803,0.09610098958214795,0.018035702374117956,0.0621350061766061
0.0730862,0.014702630082443857,0.20587761822794562,0.029394397065518506,0.07603333517830993,0.18823917712970492,0.09608400515908756,0.01797573092051383,0.06237573815435382
0.0735517,0.01470185235334859,0.20613502321124005,0.029429308854062277,0.07614944040020215,0.18801498906567213,0.09606480114915253,0.01791666483139667,0.06261079366695135
0.0740172,0.01470162433045748,0.20637895162883726,0.02946250878967483,0.07626157482740498,0.1877802785059154,0.09604343668636678,0.017858565648719345,0.06284018137790076
0.0744828,0.014701983654318834,0.2066093746036816,0.02949401829361036,0.07636974098471867,0.18753512083942492,0.09601997122759633,0.01780149509447056,0.06306391035900283
0.0749483,0.01470296811596926,0.20682626559066322,0.029523859354483397,0.07647394202271734,0.1872795926447741,0.0959944645361031,0.017745515055147577,0.0632819900897895
0.0754138,0.014704615648217052,0.20702960038016394,0.02955205453053629,0.07657418171445778,0.18701377166517127,0.0959669766650933,0.017690687566129945,0.06349443045703915
0.0758793,0.014706964316876762,0.20721935710108438,0.02957862695186866,0.07667046445196805,0.18673773678354166,0.0959375679412588,0.017637074795956345,0.06370124175436918
0.0763448,0.01471005231195621,0.20739551622335126,0.0296036003226252,0.07676279524252219,0.18645156799764628,0.0959062989483104,0.01758473903050675,0.06390243468190102
0.0768103,0.014713917938797096,0.20755806055990203,0.029626998923138036,0.0768511797047069,0.18615534639524509,0.0958732305105013,0.01753374265709207,0.06409802034599177
0.0772759,0.014718599609170432,0.2077069752681457,0.029648847612019944,0.07693562406428665,0.1858491541293109,0.09583842367613903,0.01748414814845358,0.06428801025902753
0.0777414,0.01472413583232798,0.2078422478508979,0.02966917182820452,0.07701613514987327,0.18553307439330116,0.09580193970108443,0.017436018046674252,0.06447241633927298
0.0782069,0.01473056520601096,0.20796386815679196,0.0296879975929293,0.07709272038840612,0.18520719139649372,0.09576384003223527,0.017389414947004203,0.06465125091077235
0.0786724,0.014737926407417345,0.20807182838016813,0.029705351511657676,0.07716538780044895,0.1848715903393951,0.09572418629099223,0.01734440148160241,0.06482452670329733
0.0791379,0.014746258184129205,0.20816612306044624,0.02972126077593526,0.07723414599530885,0.18452635738922812,0.09568304025670475,0.01730104030319687,0.06499225685233728
0.0796034,0.014755599345001612,0.20824674908098761,0.029735753165176165,0.07729900416598316,0.184171579655507,0.0956404638500936,0.017259394068665578,0.06515445489912788
0.080069,0.01476598875101471,0.20831370566745178,0.029748857048374586,0.07735997208393938,0.18380734516570918,0.09559651911664749,0.017219525422540804,0.06531113479071406
0.0805345,0.01477746530609059,0.2083669943856535,0.02976060138573697,0.0774170600937338,0.18343374284105268,0.09555126820999058,0.0171814969804395,0.0654623108800444
0.081,0.014790067947876628,0.20840661913892614,0.029771015730230225,0.07747027910747382,0.18305086247239039,0.09550477337521822,0.017145371312422903,0.06560799792609431
0.0814655,0.014803835638496929,0.20843258616499696,0.029780130229041336,0.07751964059912914,0.18265879469623295,0.0954570969321981,0.017111210926288783,0.06574821109401621
0.081931,0.014818807355273484,0.2084449040323828,0.029787975624943886,0.07756515659869628,0.18225763097091466,0.09540830125883423,0.017079078250800128,0.06588296595531497
0.0823966,0.014835022081418604,0.20844358363631368,0.029794583257567047,0.07760683968622127,0.1818474635529147,0.09535844877429142,0.01704903561885424,0.06601227848804725
0.0828621,0.01485251879670014,0.2084286381941941,0.02979998506456277,0.07764470298568411,0.18142838547334625,0.09530760192217795,0.017021145250596517,0.06613616507704315
0.0833276,0.014871336468080988,0.2084000832406103,0.029804213582666928,0.07767876015874903,0.1810004905146235,0.09525582315368364,0.016995469236483273,0.06625464251414884
0.0837931,0.01489151404033427,0.20835793662189062,0.029807301948650274,0.0777090253983843,0.18056387318731693,0.09520317491067003,0.016972069520297894,0.06636772799848863
0.0842586,0.014913090426635488,0.20830221849022687,0.029809283900155196,0.07773551342235557,0.18011862870720532,0.09514971960870901,0.016951007882124596,0.06647543913674515
0.0847241,0.01493610449913284,0.20823295129736213,0.02981019377641436,0.07775823946659681,0.17966485297253185,0.0950955196200651,0.016932345921284,0.06657779394345584
0.0851897,0.014960595079496859,0.2081501597878493,0.029810066518847413,0.07777721927846351,0.17920264254147134,0.09504063725661684,0.016916145039234574,0.06667481084132332
0.0856552,0.014986600929450321,0.20805387099188455,0.029808937671532063,0.07779246910987349,0.17873209460981607,0.09498513475271188,0.016902466422443987,0.06676650866153781
0.0861207,0.015014160741279323,0.20794411421771902,0.02980684338154606,0.07780400571034071,0.17825330698888486,0.09492907424795105,0.01689137102523429,0.06685290664410837
0.0865862,0.015043313128326394,0.20782092104365157,0.02980382039917667,0.07781184631990849,0.17776637808366158,0.09487251776989736,0.016882919552604764,0.06693402443820035
0.0870517,0.015074096615466374,0.20768432530960526,0.029799906077994383,0.07781600866198814,0.1772714068711672,0.09481552721670683,0.016877172443036187,0.06700988210247596
0.0875172,0.015106549629565758,0.20753436310828866,0.02979513837478783,0.07781651093610949,0.17676849287906982,0.09475816433967962,0.016874189851280134,0.06708050010543469
0.0879828,0.015140710489926056,0.20737107277594355,0.02978955584935666,0.07781337181058927,0.1762577361645365,0.09470049072573175,0.016874031631136877,0.06714589932574994
0.0884483,0.015176617398711694,0.20719449488267924,0.0297831976641594,0.07780661041512295,0.17573923729332955,0.09464256777978879,0.016876757318225397,0.06720610105259854
0.0889138,0.015214308431362797,0.20700467222239424,0.029776103583813242,0.07779624633330534,0.17521309731915027,0.09458445670710458,0.01688242611274897,0.06726112698597952
0.0893793,0.015253821526993257,0.20680164980228688,0.02976831397444265,0.07778229959508531,0.17467941776323118,0.09452621849550824,0.016891096862259713,0.0673109992370185
0.0898448,0.015295194478774301,0.20658547483195697,0.029759869802873557,0.07776479066915927,0.17413830059417745,0.09446791389758355,0.01690282804442557,0.06735574032825427
0.0903103,0.015338464924303862,0.20635619671209995,0.029750812635669963,0.07774374045530831,0.17358984820805803,0.09440960341278476,0.01691767774980306,0.06739537319390412
0.0907759,0.015383670335962161,0.20611386702279588,0.029741184638009434,0.07771917027668408,0.17303416340874656,0.09435134726949292,0.01693570366461914,0.0674299211801039
0.0912414,0.015430848011254019,0.20585853951139307,0.02973102857239402,0.07769110187204789,0.17247134938851374,0.09429320540701637,0.01695696305356536,0.06745940804511857
0.0917069,0.015480035063138662,0.20559027007998582,0.029720387797192854,0.07765955738796779,0.17190150970887383,0.09423523745753888,0.016981512742607424,0.0674838579595189
0.0921724,0.015531268410347831,0.20530911677248345,0.029709306265012718,0.07762455937097816,0.17132474828168737,0.09417750272801961,0.017009409101813252,0.06750329550631871
0.0926379,0.015584584767693178,0.20501513976126742,0.02969782852089293,0.07758613075970588,0.17074116935052397,0.09412006018204819,0.01704070802820232,0.06751774568106778
0.0931034,0.01564002063636401,0.2047084013334308,0.02968599970032088,0.07754429487696651,0.17015087747228802,0.09406296842165916,0.01707546492861919,0.06752723389189427
0.093569,0.015697612294216488,0.20438896587659497,0.029673865527064795,0.07749907542183378,0.16955397749911014,0.09400628566910967,0.017113734702633904,0.06753178595949108
0.0940345,0.015757395786055464,0.20405689986429756,0.02966147231082047,0.07745049646168495,0.16895057456050652,0.093950069748624,0.017155571725472066,0.06753142811704058
0.0945,0.01581940691391017,0.20371227184094473,0.0296488669446689,0.07739858242422411,0.16834077404580763,0.09389437806810877,0.017201029830977366,0.0675261870100722
0.0949655,0.015883681227304863,0.2033551524063214,0.029636096902341993,0.07734335808948484,0.16772468158685722,0.09383926760084174,0.017250162294609475,0.06751608969624762
0.095431,0.015950254013525594,0.2029856141996523,0.02962321023529387,0.07728484858181323,0.16710240304098128,0.09378479486713766,0.017303021816480295,0.06750116364506785
0.0958966,0.01601916028788412,0.20260373188320524,0.029610255569575552,0.07722307936183119,0.16647404447422626,0.09373101591599531,0.017359660504431784,0.06748143673749661
0.0963621,0.016090434783979906,0.20220958212542717,0.02959728210251113,0.07715807621837995,0.16583971214486526,0.09367798630673073,0.01742012985715866,0.06745693726549398
0.0968276,0.01616411194396115,0.201803243583603,0.029584339599173982,0.07708986526044277,0.1651995124871724,0.09362576109060236,0.017484480747379436,0.06742769393145413
0.0972931,0.016240225908785655,0.20138479688602698,0.02957147838866178,0.07701847290904583,0.16455355209546446,0.09357439479243615,0.01755276340505936,0.06739373584754053
0.0977586,0.01631881050848225,0.20095432461367807,0.029558749360169546,0.07694392588913537,0.16390193770841005,0.09352394139226004,0.017625027400688966,0.0673550925349119
0.0982241,0.016399899252413357,0.20051191128139223,0.02954620395886007,0.07686625122142982,0.16324477619360642,0.0934744543069584,0.017701321628622015,0.06731179392283174
0.0986897,0.01648352531953922,0.20005764331852793,0.02953389418153127,0.07678547621424556,0.16258217453242294,0.0934259863719574,0.017781694290476588,0.06726387034765434
0.0991552,0.016569721548684115,0.19959160904912404,0.029521872572079992,0.07670162845529559,0.1619142398051106,0.09337858982295265,0.017866192878603117,0.06721135255167972
0.0996207,0.016658520428804915,0.19911389867155227,0.029510192216761762,0.07661473580346106,0.16124107917617617,0.09333231627769038,0.01795486415962301,0.06715427168186992
0.1000862,0.01674995408926234,0.1986246042376685,0.02949890673924605,0.07652482638053637,0.16056279988001843,0.09328721671781343,0.01804775415804158,0.06709265928841869
0.1005517,0.016844054290095264,0.19812381963147002,0.0294880702954667,0.07643192856294855,0.15987950920682398,0.09324334147078303,0.018144908139938954,0.06702654732316646
0.1010172,0.016940852412298483,0.1976116405472663,0.029477737568267444,0.07633607097345173,0.15919131448871884,0.09320074019188732,0.01824637059674269,0.06695596813785228
0.1014828,0.017040379448104378,0.19708816446737118,0.029467963761842547,0.07623728247279726,0.15849832308617406,0.09315946184634617,0.018352185229085848,0.06688095448219428
0.1019483,0.017142665991268857,0.19655349063932484,0.02945880459597285,0.07613559215137927,0.1578006423746634,0.0931195546915227,0.018462394930754297,0.0668015395017907
0.1024138,0.017247742227361848,0.1960077200526542,0.029450316300057275,0.07603102932085552,0.15709837973157234,0.09308106625924961,0.018577041772727124,0.06671775673583444
0.1028793,0.01735563792406259,0.19545095541518173,0.029442555606940018,0.07592362350574304,0.15639164252335813,0.09304404333827987,0.01869616698731382,0.06662964011463432
0.1033448,0.017466382421459755,0.1948833011288938,0.02943557974653349,0.07581340443498852,0.15568053809296073,0.0930085319568693,0.01881981095239199,0.06653722395693726
0.1038103,0.017580004622356368,0.19430486326538274,0.029429446439237207,0.0757004020335137,0.1549651737474642,0.09297457736549969,0.018948013175749102,0.06644054296704578
0.1042759,0.017696532982579526,0.19371574954087764,0.029424213889152884,0.07558464641373697,0.15424565674600832,0.09294222401974934,0.019080812279531786,0.06633963223172583
0.1047414,0.01781599550129481,0.19311606929087877,0.029419940777096365,0.07546616786707327,0.15352209428794983,0.09291151556331878,0.019218245984805923,0.0662345272168995
0.1052069,0.017938419711325496,0.19250593344441258,0.029416686253407338,0.0753449968554153,0.15279459350127517,0.0928824948112183,0.01936035109623082,0.06612526376411805
0.1056724,0.018063832669476688,0.19188545449792166,0.029414509930558202,0.07522116400259903,0.15206326143126586,0.09285520373312445,0.019507163486850533,0.06601187808681085
0.1061379,0.018192260946864575,0.19125474648880392,0.029413471875563806,0.0750947000858567,0.15132820502941985,0.09282968343691249,0.01965871808300539,0.06589440676630685
0.1066034,0.01832373061925124,0.1906139249686128,0.029413632602194078,0.07496563602726079,0.1505895311426308,0.09280597415237227,0.01981504884936664,0.06577288674762756
0.107069,0.018458267257385547,0.18996310697593177,0.02941505306299194,0.07483400288516157,0.14984734650262824,0.09278411521511526,0.01997618877409718,0.06564735533505241
0.1075345,0.018595895917350853,0.1893024110089338,0.029417794641098696,0.07469983184562129,0.14910175771568002,0.09276414505068065,0.020142169854141145,0.06551785018745965
0.108,0.018736641130920533,0.1886319569976368,0.0294219191418893,0.07456315421384789,0.14835287125255814,0.09274610115884833,0.020313023080645174,0.06538440931344779
0.1084655,0.018880526895922588,0.18795186627586588,0.02942748878441987,0.07442400140563074,0.14760079343876847,0.0927300200981669,0.020488778424514017,0.06524707106624358
0.108931,0.01902757666661485,0.18726226155293296,0.029434566192689707,0.07428240493878145,0.14684563044504356,0.09271593747070421,0.02066946482210312,0.06510587413840321
0.1093966,0.0191778133440726,0.18656326688504296,0.02944321438672041,0.07413839642458228,0.14608748827809845,0.09270388790702874,0.02085511016105092,0.06496085755631324
0.1098621,0.01933125926659062,0.18585500764643645,0.029453496773454827,0.07399200755924447,0.14532647277164726,0.09269390505142934,0.021045741266253498,0.06481206067449855
0.1103276,0.019487936200101905,0.18513761050027774,0.029465477137478636,0.073843270115379,0.14456268957767845,0.09268602154738201,0.021241383885984278,0.06465952316974372
0.1107931,0.019647865328615236,0.18441120336929823,0.029479219631567792,0.07369221593348216,0.14379624415798556,0.09268026902327195,0.02144206267816143,0.06450328503503505
0.1112586,0.019811067244674074,0.18367591540620432,0.029494788767065013,0.07353887691343866,0.14302724177594947,0.09267667807838002,0.021647801196765657,0.06434338657332966
0.1117241,0.019977561939838934,0.1829318769638607,0.029512249404088572,0.073383285006045,0.1422557874885686,0.09267527826914176,0.02185862187841094,0.06417986839115808
0.1121897,0.020147368795195523,0.18217921956525915,0.029531666741576784,0.07322547220455541,0.14148198613873209,0.09267609809568748,0.022074546029071048,0.06401277139206643
0.1126552,0.020320506571890835,0.1814180758732851,0.029553106307171676,0.07306547053625255,0.14070594234773076,0.09267916498867136,0.022295593810964614,0.06384213676990395
0.1131207,0.02049699340169949,0.1806485796602948,0.029576633946945326,0.0729033120540446,0.13992776050800065,0.0926845052963976,0.02252178422960196,0.06366800600196093
0.1135862,0.020676846777622705,0.1798708657775157,0.02960231581497249,0.0727390288280904,0.13914754477609345,0.09269214427225096,0.022753135120996828,0.06349042084196202
0.1140517,0.02086008354452247,0.17908507012428548,0.029630218362753067,0.07257265293745413,0.13836539906586856,0.09270210606243903,0.022989663139046393,0.06330942331291976
0.1145172,0.021046719889793866,0.17829132961714364,0.02966040832848785,0.07240421646179164,0.13758142704190107,0.0927144136940534,0.023231383743082767,0.0631250556998527
0.1149828,0.021236771334078714,0.17748978215879097,0.029692952726210906,0.07223375147307044,0.13679573211310048,0.0927290890634565,0.02347831118559938,0.06293736054237278
0.1154483,0.021430252722024194,0.17668056660693182,0.02972791883478175,0.07206129002732636,0.1360084174265335,0.09274615292500152,0.0237304585001553,0.06274638062714667
0.1159138,0.021627178213090244,0.1758638227430129,0.029765374186740263,0.0718868641564602,0.13521958586144403,0.09276562488009132,0.023987837489460553,0.06255215898023517
0.1163793,0.02182756127241015,0.1750396912408735,0.029805386557027306,0.0717105058600783,0.13442934002346266,0.09278752336658358,0.024250458713645572,0.062354738859315244
0.1168448,0.022031414661708913,0.17420831363532088,0.029848023951573634,0.07153224709738129,0.13363778223899786,0.09281186564854707,0.024518331478717695,0.062154163745788714
0.1173103,0.02223875043028416,0.17336983229064504,0.029893354595759664,0.07135211977910574,0.13284501454980033,0.0928386678063746,0.02479146382520788,0.061950477336781676
0.1177759,0.02244957990605451,0.1725243903690869,0.02994144692274843,0.07117015575952314,0.13205113870769103,0.09286794472725694,0.02506986251701066,0.061743723537038504
0.1182414,0.022663913686680245,0.1716721317992747,0.02999236956169384,0.07098638682850097,0.13125625616944372,0.09289971009602144,0.025353533030420452,0.061533946450714194
0.1187069,0.022881761630761423,0.1708132012446412,0.030046191325826456,0.07080084470363002,0.13046046809181086,0.09293397638633846,0.02564247954336759,0.061321190373068525
0.1191724,0.023103132849118302,0.16994774407183458,0.030102981200418853,0.07061356102242122,0.12966387532668175,0.09297075485229844,0.025936704924857345,0.061105499782065524
0.1196379,0.023328035696159377,0.16907590631913538,0.030162808330632677,0.07042456733457586,0.12886657841636026,0.09301005552036228,0.02623621072461555,0.06088691932988154
0.1201034,0.02355647776134226,0.16819783466488933,0.030225742009249688,0.0702338950943315,0.12806867758894855,0.09305188718168803,0.026540997162944537,0.06066549383432565
0.120569,0.02378846586073305,0.16731367639596534,0.03029185166428899,0.07004157565288618,0.12727027275382272,0.09309625738483814,0.026851063120793314,0.060441268270176034
0.1210345,0.02402400602866978,0.16642357937624694,0.03036120684651275,0.06984764025090286,0.12647146349718552,0.09314317242887181,0.027166406130046027,0.06021428776043677
0.1215,0.02426310350953568,0.1655276920151646,0.030433877216822718,0.06965212001109619,0.12567234907768085,0.09319263735682796,0.027487022364032766,0.059984597567519914
0.1219655,0.024505762749647945,0.1646261632362758,0.030509932533549698,0.06945504593090313,0.12487302842205415,0.09324465594960435,0.027812906628267013,0.05975224308435829
0.122431,0.024751987389267652,0.1637191424459,0.030589442639638045,0.06925644887523871,0.12407360012084279,0.0932992307202385,0.02814405235141389,0.05951726982545508
0.1228966,0.0250017802547365,0.16280677950181618,0.03067247744972714,0.06905635956933874,0.12327416242408035,0.09335636290859649,0.028480451576493364,0.059279723417876753
0.1233621,0.02525514335074597,0.16188922468203124,0.0307591069371314,0.06885480859169082,0.12247481323699944,0.09341605247647483,0.02882209495232258,0.05903964959219593
0.1238276,0.02551207785274454,0.16096662865362824,0.03084940112072039,0.06865182636705565,0.12167565011571876,0.0934782981031211,0.029168971725201335,0.05879709417339098
0.1242931,0.025772584099488634,0.16003914244170495,0.030943430051700305,0.06844744315957998,0.12087677026290185,0.09354309718117759,0.029521069730844365,0.05855210307170909
0.1247586,0.026036661585742946,0.15910691739841296,0.031041263800298105,0.06824168906600306,0.12007827052337576,0.09361044581305232,0.029878375386564224,0.05830472227349922
0.1252241,0.026304308955135757,0.15817010517210855,0.031142972442349377,0.0680345940089578,0.11928024737969893,0.09368033880772071,0.030240873683708033,0.05805499783202152
0.1256897,0.02657552399317472,0.15722885767662662,0.03124862604579101,0.06782618773036864,0.1184827969476676,0.0937527696779613,0.030608548180351344,0.05780297585823968
0.1261552,0.026850303620428638,0.15628332706068845,0.031358294657059776,0.06761649978494792,0.1176860149717501,0.09382773063802809,0.03098138099425216,0.05754870251160249
0.1266207,0.027128643885880432,0.155333665677455,0.03147204828739796,0.06740555953379317,0.11688999682043866,0.09390521260176246,0.03135935279606826,0.05729222399082105
0.1270862,0.02741053996045651,0.15438002605423518,0.03158995689906732,0.06719339613808767,0.11609483748150828,0.09398520518114692,0.031742442802841046,0.057033586524647704
0.1275517,0.027695986130737527,0.15342256086235995,0.03171209039147266,0.06698003855290746,0.11530063155717356,0.09406769668530311,0.03213062877174957,0.05677283636266248
0.1280172,0.02798497579285549,0.15246142288723044,0.031838518587196545,0.0667655155211375,0.11450747325913421,0.0941526741199368,0.032523886994139085,0.05651001976607271
0.1284828,0.028277501446581945,0.15149676499854856,0.03196931121794686,0.06654985556750032,0.11371545640350046,0.09424012318723202,0.03292219228982903,0.05624518299853159
0.1289483,0.028573554689612153,0.15052874012073672,0.03210453791041892,0.06633308699269981,0.11292467440558958,0.09433002828619752,0.03332551800170613,0.05597837231698127
0.1294138,0.02887312621204989,0.14955750120355246,0.032244268172074264,0.06611523786768343,0.11213522027458518,0.09442237251346927,0.03373383599060886,0.05570963396252635
0.1298793,0.029176205791097476,0.14858320119290286,0.03238857137683828,0.06589633602802529,0.11134718660805032,0.09451713766457276,0.03414711663051018,0.05543901415134339
0.1303448,0.029482782285955522,0.14760599300186278,0.03253751675071908,0.06567640906843344,0.11056066558628588,0.09461430423564984,0.03456532880400541,0.05516655906563193
0.1308103,0.02979284363293673,0.14662602948190082,0.03269117335734994,0.06545548433738461,0.1097757489665267,0.09471385142565518,0.034988439898112796,0.054892314844612045
0.1312759,0.03010637684079789,0.14564346339431566,0.032849610083458,0.06523358893189019,0.1089925280769683,0.094815757139027,0.035416415800393695,0.05461632757557318
0.1317414,0.03042336798629414,0.144658447381885,0.03301289562426177,0.06501074969239747,0.10821109381061858,0.09491999798883721,0.03584922089539958,0.0543386432849785
0.1322069,0.030743802209959436,0.14367113394072775,0.033181098468800026,0.06478699319783027,0.10743153661896947,0.09502654930042519,0.03628681806145281,0.05405930792962905
0.1326724,0.03106766371211702,0.14268167539238047,0.03335428688519461,0.06456234576077306,0.10665394650548411,0.09513538511551912,0.036729168667768104,0.053778367387891525
0.1331379,0.03139493574912375,0.14169022385608676,0.03353252890584956,0.06433683342280296,0.10587841301889547,0.09524647819684824,0.03717623257192187,0.05349586745099387
0.1336034,0.03172560062985182,0.14069693122129975,0.033715892312588765,0.06411048194997383,0.10510502524631224,0.09535980003324855,0.0376279681176763,0.053211853814392834
0.134069,0.032059639712411436,0.13970194912039693,0.033904444621734246,0.06388331682845735,0.1043338718061285,0.09547532084526421,0.0380843321331657,0.0529263720692179
0.1345345,0.03239703340111752,0.13870542890160856,0.03409825306912705,0.06365536326034552,0.10356504084073398,0.09559300959124621,0.03854527992945232,0.05263946769379611
0.135,0.03273776114370363,0.13770752160216013,0.03429738459509265,0.0634266461596198,0.10279862000902218,0.09571283397394936,0.03901076529945927,0.052351186045262295
0.1354655,0.03308180142878596,0.13670837792163143,0.03450190582935235,0.06319719014829166,0.10203469647869479,0.09583476044762794,0.0394807405172881,0.0520615723512591
0.135931,0.033429131783580514,0.13570814819553384,0.03471188307588261,0.06296701955271909,0.1012733569183606,0.09595875422563044,0.03995515633792871,0.05177067170173108
0.1363966,0.033779728771876474,0.13470698236910794,0.03492738229772372,0.06273615840010405,0.10051468748942864,0.09608477928849414,0.0404339619973692,0.05147852904081678
0.1368621,0.03413356799226911,0.13370502997134262,0.035148469101739375,0.06250463041517439,0.09975877383779545,0.09621279839253984,0.0409171052131132,0.05118518915884257
0.1373276,0.03449062407665587,0.13270244008921633,0.03537520872332859,0.06227245901705443,0.09900570108532773,0.09634277307896778,0.04140453218511214,0.05089069668442151
0.1377931,0.034850870688999606,0.1316993613421608,0.03560766601109108,0.0620396673163273,0.09825555382114154,0.09647466368345521,0.04189618759711947,0.05059509607666057
0.1382586,0.035214280524363345,0.13069594185674754,0.035845905411447096,0.06180627811229229,0.09750841609267928,0.09660842934625552,0.042392014618473806,0.05029843161747891
0.1387241,0.035580825308220904,0.12969232924159763,0.03608999095321241,0.06157231389042051,0.09676437139658593,0.09674402802279891,0.04289195490631759,0.05000074740403989
0.1391897,0.0359504757960482,0.12868867056251468,0.03633998623212913,0.061337796820011774,0.09602350266938577,0.09688141649479295,0.04339594860825771,0.049702087341299245
0.1396552,0.03632320177319958,0.12768511231784208,0.03659595439535278,0.06110274875205576,0.0952858922779623,0.09702055038182074,0.04390393436547411,0.049402495134671945
0.1401207,0.03669897205507365,0.12668180041404437,0.03685795812589605,0.060867191217300415,0.09455162200984503,0.09716138415343384,0.04441584931628239,0.04910201428281975
0.1405862,0.03707775448757285,0.12567888014151268,0.037126059627030215,0.06063114542453036,0.09382077306330888,0.0973038711417364,0.04493162910015604,0.04880068807056183
0.1410517,0.03745951594786064,0.12467649615059344,0.037400320606644846,0.06039463225905831,0.09309342603729323,0.097447963554456,0.04545120786221376,0.048498559561910654
0.1415172,0.03784422234542034,0.12367479242783962,0.037680802261567184,0.06015767228143206,0.09236966092114812,0.09759361248849698,0.04597451825817709,0.0481956715932352
0.1419828,0.03823183862341934,0.12267391227248373,0.037967565261842834,0.05992028572635968,0.09164955708421572,0.0977407679439719,0.046501491459803285,0.04789206676655315
0.1424483,0.03862232876038271,0.12167399827313231,0.038260669734979776,0.059682492501855595,0.0909331932652547,0.09788937883870712,0.047032057160798085,0.047587787442953784
0.1429138,0.039015655772180136,0.12067519228468204,0.03856017525015804,0.05944431218860994,0.0902206475617151,0.09803939302321896,0.047566143583212796,0.0472828757361527
0.1433793,0.03941178171433012,0.11967763540545819,0.038866140802407585,0.05920576403958343,0.08951199741887104,0.09819075729615835,0.04810367748432969,0.04697737350617956
0.1438448,0.039810667684625656,0.11868146795457711,0.03917862479675705,0.05896686697983019,0.08880731961881821,0.09834341742022143,0.0486445841640399,0.04667132235319923
0.1443103,0.04021227382608523,0.11768682944953418,0.0394976850323563,0.05872763960655056,0.08810669026934335,0.09849731813852483,0.049188787472717585,0.046364763611466776
0.1447759,0.04061655933023322,0.11669385858401941,0.03982337868657539,0.058488100189375704,0.08741018479267232,0.0986524031914446,0.049736209819594555,0.04605773834341629
0.1452414,0.041023482440713625,0.11570269320596299,0.04015576229908257,0.05824826667088569,0.0867178779141034,0.09880861533391659,0.050286772181638933,0.045750287333883
0.1457069,0.04143300045724088,0.11471347029581257,0.04049489175590369,0.05800815666736225,0.0860298436505326,0.09896589635319672,0.050840394112942,0.04544245108445793
0.1461724,0.04184506973989136,0.1137263259450445,0.04084082227346524,0.05776778746977738,0.0853461552988772,0.09912418708707829,0.051396993754617135,0.04513426980797414
0.1466379,0.04225964571373907,0.11274139533491066,0.04119360838262294,0.05752717604501835,0.08466688542440459,0.09928342744256352,0.05195648784521472,0.04482578342312324
0.1471034,0.04267668287383883,0.1117588127154226,0.041553303912677864,0.057286339037349726,0.08399210584897265,0.09944355641498522,0.052518791731657244,0.04451703154920083
0.147569,0.04309613479056,0.11077871138457475,0.04191996197538188,0.057045292770112326,0.08332188763918752,0.09960451210757398,0.05308381938069826,0.04420805350097957
0.1480345,0.04351795411527385,0.10980122366780778,0.042293634948934386,0.05680405324765889,0.08265630109448419,0.0997662317514658,0.05365148339090921,0.043898888283708526
0.1485,0.04394209258639708,0.10882648089771353,0.042674374461972385,0.056562636157525756,0.08199541573513491,0.09992865172614399,0.054221695005197544,0.04358957458823736
0.1489655,0.04436850103579411,0.10785461339398243,0.043062231377555986,0.05632105687283958,0.08133930029018996,0.10009170758030932,0.05479436412385973,0.043280150786263794
0.149431,0.04479712939554039,0.10688575044359386,0.043457255777151954,0.056079330454957714,0.08068802268535506,0.10025533405317129,0.055369399318172,0.04297065492570287
0.1498966,0.04522792670504864,0.10592002028124983,0.04385949694461793,0.055837471656340454,0.08004165003080989,0.10041946509615332,0.0559467078445217,0.042661124726176294
0.1503621,0.04566084111855963,0.10495755007005116,0.04426900335019011,0.05559549492365268,0.07940024860897187,0.10058403389500364,0.05652619565908174,0.04235159757462011
0.1508276,0.04609581991299871,0.10399846588241508,0.04468582263447754,0.05535341440109209,0.07876388386221037,0.1007489728923034,0.057107767433030435,0.04204211052100932
0.1512931,0.046532809496199076,0.10304289268123248,0.045110001592465906,0.05511124393394084,0.07813262038051691,0.1009142138103626,0.05769132656831909,0.04173270027419793
0.1517586,0.04697175541549237,0.10209095430126226,0.04554158615753376,0.05486899707233694,0.07750652188913784,0.10107968767449427,0.05827677521398983,0.04142340319787378
0.1522241,0.047412602366666834,0.10114277343075984,0.04598062138548424,0.05462668707526132,0.07688565123617694,0.10124532483665612,0.058864014283046155,0.041114255306626886
0.1526897,0.04785529420329354,0.10019847159333672,0.046427151438594993,0.05438432691473637,0.07627007038017625,0.10141105499944918,0.05945294346987886,0.0408052922621308
0.1531552,0.04829977394642026,0.09925816913004867,0.04688121956968885,0.0541419292802312,0.07565984037768445,0.10157680724046175,0.0600434612682503,0.04049654936943605
0.1536207,0.0487459837946329,0.09832198518170976,0.04734286810622792,0.05389950658326869,0.07505502137082255,0.10174251003694706,0.06063546498983978,0.04018806157337525
0.1540862,0.04919386513448396,0.09739003767143123,0.047812138434433236,0.05365707096222902,0.07445567257485823,0.10190809129082297,0.061228850783353085,0.03987986345507974
0.1545517,0.04964335855128708,0.09646244328738458,0.04828907098343228,0.053414634287343964,0.07386185226580062,0.10207347835398166,0.06182351365419933,0.03957198922860792
0.1550172,0.05009440384027648,0.09553931746578995,0.048773705209436705,0.053172208165875756,0.07327361776802797,0.1022385980538982,0.06241934748473811,0.03926447273768601
0.1554828,0.05054694001813001,0.09462077437413208,0.049266079579952875,0.05292980394747399,0.07269102544196028,0.10240337671952723,0.06301624505509985,0.03895734745256234
0.1559483,0.05100090533485392,0.09370692689460654,0.04976623155802813,0.05268743272970356,0.07211413067178889,0.10256774020747719,0.063614098064582,0.03865064646697626
0.1564138,0.05145623728602793,0.09279788660779918,0.05027419758653593,0.05244510536373618,0.0715429878532744,0.10273161392845177,0.06421279715362323,0.03834440249524291
0.1568793,0.051912872625408384,0.0918937637766029,0.05079001307250369,0.05220283246019758,0.0709776503816244,0.10289492287394818,0.06481223192635768,0.038038647869454684
0.1573448,0.05237074737788745,0.09099466733037488,0.051313712371487796,0.051960624395162205,0.07041817063946147,0.10305759164320118,0.06541229097375083,0.03773341453680036
0.1578103,0.05282979685280634,0.0901007048493382,0.051845328772000474,0.05171849131628693,0.06986459998489178,0.10321954447036168,0.06601286189731827,0.03742873405700244
0.1582759,0.05328995565762016,0.0892119825492322,0.052384894479994164,0.0514764431490751,0.06931698873968402,0.1033807052518977,0.06661383133342871,0.03712463759987328
0.1587414,0.0537511577119122,0.08832860526621665,0.052932440603409334,0.05123448960326217,0.06877538617756818,0.1035409975742046,0.0672150849781919,0.03682115594299048
0.1592069,0.05421333626175518,0.08745067644203437,0.05348799713679224,0.050992640179314284,0.0682398405126631,0.10370034474141135,0.06781650761293215,0.03651831946949208
0.1596724,0.054676423894417514,0.0865782981094375,0.05405159294598956,0.05075090417503092,0.06771039888804219,0.10385866980336945,0.06841798313024791,0.036216158165992045
0.1601379,0.05514035255341213,0.08571157087788252,0.05462325575292723,0.05050929069224278,0.06718710736444629,0.10401589558381136,0.06901939456065684,0.03591470162061689
0.1606034,0.055605053553885855,0.08485059391949819,0.055203012120481225,0.05026780864359581,0.06667001090915359,0.10417194470866578,0.06962062409982593,0.03561397902116423
0.161069,0.05607045759834677,0.08399546495533085,0.05579088743744803,0.050026466759411935,0.06615915338501589,0.10432673963451754,0.07022155313638542,0.03531401915338399
0.1615345,0.056536494792726884,0.08314628024187075,0.056386905903622914,0.0497852735946167,0.06565457753967108,0.10448020267719971,0.07082206228032457,0.03501485039938317
0.162,0.05700309466277716,0.08230313455786285,0.05699109051499431,0.04954423753572402,0.06515632499494094,0.10463225604050563,0.07142203139196686,0.03471650073615476
0.1624655,0.05747018617079155,0.081466121191405,0.05760346304906239,0.04930336680786768,0.06466443623642364,0.10478282184500853,0.07202133961152184,0.03441899773423146
0.162931,0.05793769773265652,0.08063533192733556,0.058224044050289844,0.04906266948186933,0.06417895060328938,0.10493182215697593,0.07261986538921018,0.03412236855646505
0.1633966,0.05840555723522249,0.07981085703491214,0.05885285281569292,0.04882215348133239,0.06369990627828764,0.10507917901736666,0.07321748651595794,0.033826639956931845
0.1638621,0.05887369205399327,0.07899278525578254,0.059489907380580284,0.04858182658975123,0.06322734027797397,0.10522481447089813,0.07381408015465572,0.03353183827996508
0.1643276,0.05934202907112988,0.0781812037922482,0.06013522450444718,0.04834169645762504,0.06276128844316348,0.10536865059517196,0.07440952287197805,0.033237989459314866
0.1647931,0.05981049469376464,0.0773761982958201,0.06078881965703176,0.048101770609565865,0.062301785429618416,0.10551060952984616,0.07500369067075767,0.03294511901743632
0.1652586,0.060279014872621724,0.07657785285606661,0.06145070700454023,0.04786205645139058,0.0618488646989764,0.10565061350584184,0.0755964590229092,0.03265325206490637
0.1657241,0.06074751512094003,0.07578624998975227,0.06212089939604671,0.04762256127718706,0.061402558509925716,0.10578858487457239,0.07618770290289606,0.03236241329996986
0.1661897,0.061215920533694304,0.07500147063026588,0.06279940835007367,0.04738329227634565,0.06096289790963383,0.10592444613718287,0.07677729682173431,0.03207262700821522
0.1666552,0.06168415580711021,0.07422359411733598,0.06348624404135808,0.047144256540547234,0.060529912725435196,0.1060581199737883,0.07736511486152602,0.03178391706238059
0.1671207,0.062152145258469134,0.07345269818703186,0.06418141528780841,0.046905461070699796,0.060103631556784116,0.10618952927269983,0.07795103071051483,0.03149630692229085
0.1675862,0.06261981284619833,0.07268885896204808,0.0648849295376572,0.046666912783815497,0.059684081767477894,0.106318597159628,0.07853491769865587,0.03120981963492616
0.1680517,0.06308708219024194,0.07193215094227072,0.06559679285681407,0.04642861851982073,0.05927128947815548,0.10644524702685368,0.07911664883369082,0.030924477834622398
0.1685172,0.06355387659270824,0.0711826469956241,0.06631700991642367,0.046190585048291884,0.05886527955907614,0.10656940256235638,0.07969609683771922,0.03064030374340362
0.1689828,0.06402011905878852,0.07044041834919659,0.06704558398063327,0.0459528190751095,0.058466075623182324,0.10669098777889102,0.08027313418425573,0.030357319171446465
0.1694483,0.06448573231794247,0.06970553458064525,0.06778251689457458,0.04571532724902403,0.05807370001945058,0.10680992704300322,0.08084763313576314,0.03007554551767616
0.1699138,0.06495063884534513,0.06897806360987929,0.06852780907256445,0.045478116168126116,0.05768817382653399,0.10692614510397358,0.08141946578164959,0.029795003770493565
0.1703793,0.06541476088358968,0.06825807169102285,0.06928145948652929,0.04524119238621471,0.057309516846699195,0.1070395671226817,0.08198850407671848,0.029515714508632388
0.1708448,0.06587802046464028,0.06754562340465801,0.07004346565465817,0.04500456241905614,0.056937747600060686,0.10715011870038055,0.08255461988005873,0.029237697902145508
0.1713103,0.06634033943202895,0.06684078165034872,0.07081382363028917,0.044768232750527236,0.05657288331911469,0.1072577259073712,0.08311768499436253,0.028960973713519127
0.1717759,0.06680163946328967,0.06614360763944643,0.07159252799103381,0.044532209838635824,0.05621493994357467,0.10736231531156784,0.08367757120565744,0.028685561298913184
0.1722414,0.06726184209262265,0.06545416088817792,0.07237957182814453,0.04429650012141181,0.05586393211550981,0.10746381400694212,0.0842341503234389,0.028411479609526398
0.1727069,0.06772086873378143,0.06477249921101597,0.07317494673612933,0.04406111002266222,0.05551987317478762,0.10756214964183561,0.084787294221189,0.02813874719308383
0.1731724,0.06817864070317471,0.06409867871433378,0.07397864280261818,0.043826045957583964,0.05518277515482135,0.1076572504471283,0.08533687487726684,0.027867382195444847
0.1736379,0.06863507924317476,0.06343275379034433,0.07479064859848489,0.04359131433822788,0.0548526487786222,0.10774904526425111,0.08588276441615499,0.02759740236232908
0.1741034,0.06909010554562355,0.06277477711132634,0.07561095116822808,0.04335692157880794,0.05452950345515631,0.10783746357303035,0.0864248351500464,0.027328825041157724
0.174569,0.06954364077552781,0.062124799624139256,0.07643953602061403,0.04312287410084945,0.05421334727600625,0.10792243551935252,0.0869629596207551,0.027061667183007437
0.1750345,0.06999560609493331,0.06148287054502937,0.07727638711958378,0.042889178338170415,0.053904187012336666,0.10800389194263796,0.08749701064193374,0.026795945344673913
0.1755,0.07044592268696806,0.06084903735473015,0.07812148687542612,0.042655840741690064,0.053602028112164114,0.10808176440311228,0.08802686134157998,0.02653167569084211
0.1759655,0.07089451178004413,0.06022334579386002,0.07897481613621764,0.04242286778405922,0.05330687469793159,0.10815598520886407,0.08855238520481352,0.02626887399636012
0.176431,0.07134129467220673,0.059605839858621584,0.07983635417952999,0.042190265964106966,0.053018729564388446,0.10822648744267799,0.08907345611690463,0.026007555648613644
0.1768966,0.0717861927556189,0.05899656179680723,0.08070607870440429,0.041958041811098426,0.052737594176777085,0.10829320498863262,0.08958994840653442,0.02574773564999814
0.1773621,0.07222912754116932,0.0583955521041168,0.0815839658235918,0.04172620188879881,0.05246346866932794,0.10835607255845311,0.09010173688926705,0.025489428620485758
0.1778276,0.07267002068319085,0.05780284952079354,0.08246999005605973,0.04149475279933889,0.05219635184406437,0.10841502571760898,0.09060869691121304,0.025232648800284273
0.1782931,0.07310879400427656,0.05721849102858454,0.08336412431976031,0.04126370118687795,0.051936241169919135,0.10847000091114846,0.09111070439286267,0.02497741005258503
0.1787586,0.07354536952017994,0.056642511848032026,0.0842663399246614,0.04103305374106059,0.051683132782164076,0.10852093548925974,0.09160763587306789,0.024723725866397
0.1792241,0.07397966946478571,0.056074945436101066,0.08517660656603639,0.04080281720026451,0.05143702148215433,0.10856776773255031,0.09209936855315008,0.024471609359464037
0.1796897,0.07441161631513735,0.055515823484149414,0.08609489231801119,0.040572998354636645,0.05119790073738825,0.10861043687703423,0.0925857803411112,0.02422107328126231
0.1801552,0.07484113281650825,0.05496517591624462,0.087021163627366,0.040343604048915446,0.05096576268188432,0.10864888313881703,0.09306674989592445,0.023972130016075247
0.1806207,0.07526814200750265,0.05442303088783289,0.08795538530758952,0.0401146411850382,0.05074059811687596,0.10868304773846682,0.09354215667188091,0.023724791586143112
0.1810862,0.07569256724517313,0.053889414784764195,0.0888975205331834,0.03988611672453238,0.050522396511825406,0.10871287292506002,0.09401188096296716,0.02347906965488489
0.1815517,0.07611433223014179,0.05336435222267756,0.08984753083421479,0.039658037690690866,0.050311146005757465,0.10873830199988929,0.09447580394724917,0.023234975530189935
0.1820172,0.07653336103171192,0.05284786604675041,0.09080537609111484,0.039430411170531365,0.050106833408914336,0.10875927933982117,0.09493380773123694,0.022992520167777048
0.1824828,0.07694957811295774,0.052339977331815224,0.09177101452972168,0.039203244316540285,0.04990944420473272,0.10877575042029053,0.09538577539420398,0.022751714174618524
0.1829483,0.07736290835577933,0.051840705382846915,0.09274440271656677,0.038976544348201844,0.04971896255214467,0.10878766183791869,0.09583159103243556,0.022512567812426578
0.1834138,0.07777327708591016,0.051350067735824095,0.09372549555440392,0.038750318553313366,0.04953537128820366,0.10879496133274144,0.09627113980337948,0.022275091001199416
0.1838793,0.0781806100978645,0.05086808015896745,0.09471424627798077,0.03852457428908783,0.04935865193103746,0.1087975978100328,0.09670430796967285,0.022039293322824106
0.1843448,0.07858483367981212,0.050394756654358136,0.09571060645005379,0.03829931898304501,0.049188784683129184,0.10879552136170972,0.09713098294301843,0.021805184024733377
0.1848103,0.07898587463836738,0.04993010945993914,0.09671452595764755,0.03807456013369287,0.04902574843492753,0.10878868328730368,0.09755105332788405,0.02157277202361344
0.1852759,0.07938366032328216,0.049474149051902123,0.09772595300855993,0.03785030531100096,0.04886952076878704,0.10877703611448455,0.09796440896499821,0.021342065909160043
0.1857414,0.07977811865203174,0.04902688414746177,0.09874483412811554,0.037626562156668465,0.048720077963238746,0.10876053361912279,0.09837094097461578,0.021113073947880003
0.1862069,0.08016917813428555,0.048588321708019605,0.09977111415616914,0.037403338384190105,0.04857739499759127,0.10873913084487591,0.09877054179952716,0.020885804086935716
0.1866724,0.0805567678962553,0.04815846694271876,0.10080473624436173,0.03718064177872464,0.048441445556862,0.10871278412228538,0.09916310524778464,0.020660263958029917
0.1871379,0.08094081770491482,0.047737323312391035,0.1018456418536309,0.036958480196771344,0.048312202037038135,0.10868145108736954,0.09954852653511984,0.020436460881328236
0.1876034,0.08132125799208678,0.047324892533897114,0.10289377075197742,0.03673686156566051,0.04818963555066686,0.10864509069969795,0.09992670232702601,0.020214401869416903
0.188069,0.08169801987839245,0.04692117458486049,0.10394906101248892,0.0365157938828643,0.04807371593277398,0.10860366325993345,0.10029753078047936,0.01999409363129297
0.1885345,0.08207103519706119,0.046526167708795856,0.10501144901162143,0.036295285215134095,0.04796441174710983,0.10855713042682817,0.10066091158527307,0.01977554257638434
0.189,0.08244023651759624,0.0461398684206323,0.1060808694277383,0.036075343697470126,0.04786169029272139,0.10850545523366195,0.1010167460049383,0.019558754818596702
0.1894655,0.0828055571692935,0.04576227151263178,0.10715725523990598,0.03585597753192947,0.04776551761084864,0.10844860210411295,0.10136493691722644,0.01934373618038442
0.189931,0.08316693126460907,0.04539337006070339,0.10824053772694517,0.03563719498627765,0.047675858492143404,0.10838653686755198,0.10170538885412635,0.019130492196842194
0.1903966,0.0835242937223716,0.04503315543111362,0.109330646466735,0.03541900439248932,0.04759267648420799,0.10831922677375376,0.10203800804139111,0.018919028119814205
0.1908621,0.08387758029083424,0.04468161728759261,0.1104275093357677,0.03520141414510344,0.047515933899451086,0.10824664050701872,0.10236270243754836,0.01870934892201725
0.1913276,0.08422672757056085,0.04433874359883618,0.11153105250895011,0.03498443269943798,0.0474455918232577,0.10816874819969936,0.10267938177236832,0.018501459301174302
0.1917931,0.08457167303714097,0.04400452064640298,0.11264120045964764,0.034768068569669616,0.04738161012246965,0.1080855214451254,0.10298795758476363,0.01829536368415474
0.1922586,0.08491235506372695,0.04367893303300565,0.11375787595996566,0.03455233032678349,0.047323947454173405,0.10799693330992213,0.1032883432600951,0.018091066231117434
0.1927241,0.08524871294338665,0.04336196369119473,0.11488100008126259,0.03433722659639825,0.04727256127479135,0.10790295834571698,0.10358045406685754,0.01788857083965275
0.1931897,0.08558068691126466,0.04305359389243347,0.11601049219488775,0.034122766056471444,0.04722740784947293,0.10780357260022931,0.10386420719271931,0.017687881148919424
0.1936552,0.08590821816654422,0.04275380325656174,0.11714626997313704,0.033908957434890155,0.047188442261781906,0.10769875362773863,0.1041395217798894,0.017489000543772337
0.1941207,0.08623124889420147,0.0424625697616465,0.11828824939041883,0.03369580950695168,0.047155618423675834,0.107588480498926,0.10440631895978485,0.01729193215887722
0.1945862,0.08654972228654352,0.042179869754216504,0.11943634472462249,0.033483331092738954,0.04712888908577396,0.10747273381008286,0.10466452188697097,0.017096678882808452
0.1950517,0.08686358256452054,0.041905677959878616,0.12059046855868198,0.03327153105439525,0.04710820584790965,0.10735149569168109,0.10491405577234636,0.01690324336212644
0.1955172,0.08717277499880206,0.041639967494313264,0.12175053178232727,0.03306041829330257,0.047093519169963224,0.10722474981629747,0.1051548479155438,0.01671162800543123
0.1959828,0.08747724593060649,0.04138270987464623,0.12291644359401638,0.03285000174716796,0.04708477838297108,0.10709248140588636,0.10538682773651778,0.016521834987389496
0.1964483,0.08777694279227256,0.04113387503119413,0.12408811150304226,0.03264029038702178,0.047081931700506736,0.10695467723839464,0.10560992680628918,0.01633386625273214
0.1969138,0.08807181412756064,0.04089343131958095,0.12526544133180856,0.032431293214131574,0.04708492623032884,0.10681132565371425,0.1058240788768177,0.016147723520220286
0.1973793,0.08836180961167112,0.040661345533222815,0.12644833721827003,0.032223019256835225,0.04709370798629117,0.10666241655896919,0.10602921990997291,0.01596340828657751
0.1978448,0.08864688007096652,0.040437582916178265,0.1276367016185344,0.0320154775672966,0.04710822190050931,0.10650794143313524,0.10622528810557526,0.015780921830386437
0.1983103,0.08892697750238325,0.04022210717636142,0.12883043530962326,0.03180867721818685,0.047128411835778164,0.10634789333099201,0.10641222392847903,0.015600265215947932
0.1987759,0.08920205509251873,0.040014880499115044,0.13002943739239103,0.03160262729929441,0.047154220598234715,0.10618226688640708,0.10658997013467034,0.015421439297101214
0.1992414,0.08947206723637931,0.03981586356114077,0.1312336052946026,0.031397336914066556,0.04718558995026009,0.1060110583149539,0.10675847179635463,0.01524444472100323
0.1997069,0.08973696955577308,0.03962501554478368,0.1324428347741715,0.031192815176085572,0.047222460623615445,0.10583426541586402,0.10691767632600915,0.015069281931865698
0.2001724,0.08999671891733248,0.039442294152668214,0.13365701992256168,0.030989071205482395,0.04726477233280632,0.10565188757331499,0.10706753349937868,0.01489595117464815
0.2006379,0.0902512734501507,0.039267655622682446,0.13487605316835755,0.03078611412529081,0.04731246378867083,0.10546392575705482,0.1072079954773934,0.014724452498705382
0.2011034,0.09050059256301612,0.03910105474330765,0.1360998252810076,0.030583953057745323,0.04736547271218749,0.10527038252236358,0.10733901682699071,0.01455478576138762
0.201569,0.09074463696122854,0.038942444869289806,0.1373282253747494,0.03038259712052598,0.04742373584849955,0.10507126200935342,0.10746055454082455,0.014386950631591634
0.2020345,0.09098336866298122,0.03879177793764986,0.13856114091272365,0.030182055422953488,0.047487188981152874,0.10486656994160858,0.10757256805584833,0.014220946593261069
0.2025,0.09121675101529249,0.03864900448402902,0.13979845771128704,0.029982337062138178,0.04755576694654532,0.10465631362416752,0.1076750192707594,0.014056772948834284
0.2029655,0.09144474870947071,0.038514073659365634,0.14104005994453328,0.029783451119086306,0.04762940364858555,0.10444050194085017,0.1077678725622953,0.013894428822637998
0.203431,0.09166732779609654,0.03838693324689961,0.14228583014903312,0.02958540665476722,0.047708032073559274,0.1042191453509329,0.1078510948003739,0.013733913164225196
0.2038966,0.09188445569950597,0.038267529679500416,0.14353564922880493,0.029388212706144855,0.04779158430520071,0.10399225588517463,0.10792465536207176,0.013575224751655783
0.2043621,0.09209610123175764,0.03815580805731455,0.14478939646052688,0.029191878282177095,0.0478799915399669,0.10375984714119633,0.10798852614443616,0.013418362194718664
0.2048276,0.0923022346060674,0.038051712165728106,0.14604694949900293,0.028996412359786623,0.04797318410251233,0.10352193427821675,0.10804268157612845,0.013263323938094007
0.2052931,0.09250282744969213,0.03795518449364004,0.14730818438289442,0.02880182387980688,0.04807109146136088,0.10327853401114706,0.10808709862789731,0.013110108264454627
0.2057586,0.09269785281624528,0.03786616625204149,0.14857297554072915,0.028608121742907135,0.048173642244772566,0.10302966460404772,0.10812175682188137,0.012958713297505621
0.2062241,0.09288728519742602,0.03778459739289639,0.1498411957972003,0.028415314805500684,0.04828076425680179,0.10277534586295098,0.10814663823974191,0.01280913700496157
0.2066897,0.09307110053414393,0.03771041662831846,0.15111271637976595,0.0282234118756407,0.0483923844935447,0.10251559912805279,0.10816172752962598,0.012661377201460745
0.2071552,0.09324927622702213,0.03764356145003945,0.15238740692556094,0.028032421708908295,0.04850842915957263,0.10225044726527832,0.10816701191196075,0.012515431551416035
0.2076207,0.09342179114626264,0.0375839681491632,0.15366513548863048,0.02784235300429765,0.04862882368454929,0.10197991465722489,0.10816248118407912,0.012371297571802274
0.2080862,0.0935886256408586,0.03753157183620002,0.15494576854749526,0.027653214400103113,0.0487534927400292,0.1017040271934862,0.10814812772367643,0.012228972634879815
0.2085517,0.09374976154713847,0.03748630646137535,0.15622917101305575,0.02746501446981308,0.04888236025643515,0.10142281226036198,0.10812394649109763,0.012088453970854177
0.2090172,0.09390518219662863,0.03744810483520663,0.1575152062368434,0.027277761718015384,0.04901534944021268,0.10113629872995723,0.10808993503045386,0.011949738670471548
0.2094828,0.09405487242321979,0.03741689864934191,0.15880373601962516,0.027091464576318794,0.049152382791159695,0.1008445169486761,0.10804609346956777,0.011812823687549979
0.2099483,0.094198818569623,0.037392618497653594,0.16009462062036753,0.026906131399294993,0.04929338211992968,0.10054749872511573,0.10799242451874737,0.011677705841446095
0.2104138,0.09433700849310102,0.03737519389758018,0.1613877187655658,0.02672177046044532,0.049438268565706794,0.10024527731736592,0.10792893346838853,0.011544381819457132
0.2108793,0.09446943157046019,0.03736455331170866,0.16268288765894412,0.026538389948196326,0.04958696261405116,0.09993788741972115,0.10785562818540718,0.011412848179158146
0.2113448,0.09459607870228895,0.03736062416959007,0.16397998299153219,0.02635599796192814,0.04973938411491256,0.09962536514881294,0.1077725191085038,0.01128310135067433
0.2118103,0.09471694231642896,0.03736333288978004,0.16527885895212435,0.026174602508039543,0.04989545230081041,0.0993077480291722,0.10767961924226292,0.011155137638888517
0.2122759,0.09483201637066573,0.03737260490209616,0.1665793682381277,0.025994211496053587,0.05005508580517762,0.0989850749782337,0.10757694415009257,0.011028953225584164
0.2127414,0.09494129635462642,0.037388364670083496,0.16788136206680565,0.025814832734767618,0.050218202680865506,0.09865738629079716,0.10746451194600933,0.010904544171524356
0.2132069,0.09504477929087318,0.03741053571367938,0.1691846901869248,0.025636473928451396,0.05038472041880664,0.09832472362296148,0.10734234328527653,0.010781906418467657
0.2136724,0.09514246373518115,0.037439040632068224,0.17048920089081196,0.02545914267309693,0.05055455596683218,0.09798712997554958,0.1072104613539046,0.010661035791121688
0.2141379,0.09523434977599154,0.037473801126716895,0.17179474102683007,0.025282846452723603,0.05072762574863983,0.09764464967704282,0.10706889185702372,0.010541927999035564
0.2146034,0.09532043903303125,0.03751473802458102,0.17310115601228157,0.02510759263574192,0.05090384568290833,0.0972973283660434,0.10691766300614107,0.010424578638432202
0.215069,0.09540073465509064,0.037561771301472126,0.17440828984674847,0.02493338847137911,0.05108313120255378,0.09694521297328329,0.10675680550529602,0.010308983193981654
0.2155345,0.09547524131695301,0.037614820105575576,0.17571598512587897,0.024760241086169796,0.051265397274122854,0.09658835170319865,0.1065863525361285,0.010195137040516434
0.216,0.09554396521546932,0.037673802781108635,0.17702408305563058,0.024588157480514596,0.05145055841731748,0.09622679401508881,0.10640633974187703,0.01008303544468979
0.2164655,0.09560691406477304,0.037738636892108206,0.17833242346698094,0.02441714452530958,0.051638528724645395,0.09586059060387883,0.10621680521032408,0.009972673566577871
0.216931,0.09566409709063074,0.03780923924633715,0.17964084483111728,0.024247208958649246,0.05182922188119029,0.09548979338050465,0.10601778945570768,0.009864046461226642
0.2173966,0.09571552502392532,0.03788552591929799,0.18094918427511766,0.02407835738260569,0.052022551184495607,0.09511445545193963,0.10580933539961933,0.009757149080144469
0.2178621,0.09576121009326921,0.03796741227834251,0.18225727759813612,0.023910596260086334,0.05221842956455575,0.09473463110088126,0.10559148835090877,0.009651976272741282
0.2183276,0.09580116601674636,0.038054813006865584,0.18356495928810565,0.023743931911772702,0.052416769603908814,0.09435037576511653,0.10536429598461734,0.009548522787715254
0.2187931,0.09583540799278127,0.0381476421285716,0.18487206253897354,0.02357837051314247,0.052617483557824876,0.09396174601658472,0.10512780831996192,0.009446783274388084
0.2192586,0.09586395269013441,0.03824581303180191,0.18617841926848297,0.023413918091577043,0.052820483374584865,0.09356879954015625,0.1048820776973918,0.00934675228398999
0.2197241,0.0958868182370242,0.03834923849391216,0.18748386013651624,0.023250580523556687,0.053025680715844736,0.09317159511214583,0.10462715875474157,0.009248424270895629
0.2201897,0.09590402420937735,0.03845783070568869,0.18878821456401396,0.02308836353194523,0.05323298697708066,0.09277019257857859,0.10436310840250311,0.009151793593812263
0.2206552,0.0959155916182127,0.038571501295793745,0.19009131075248437,0.022927272683366164,0.0534423133081113,0.09236465283322734,0.10408998579824003,0.009056854516921549
0.2211207,0.09592154289616756,0.03869016135522951,0.19139297570411665,0.022767313385671773,0.05365357063369364,0.0919550377954393,0.10380785232016826,0.008963601210976406
0.2215862,0.09592190188317956,0.03881372146181175,0.19269303524251147,0.02260849088550696,0.053866669674189314,0.09154141038777062,0.1035167715399267,0.008872027754354472
0.2220517,0.0959166938113418,0.038942091704643966,0.19399131403404132,0.02245081026596911,0.05408152096629851,0.09112383451344619,0.10321680919456157,0.008782128134069683
0.2225172,0.09590594528895226,0.03907518170858397,0.19528763560985246,0.022294276444365223,0.054298034883858974,0.09070237503366287,0.10290803315774805,0.00869389624674359
0.2229828,0.09588968428378156,0.03921290065869518,0.1965818223885193,0.022138894170067414,0.05451612165870727,0.09027709774475336,0.10259051341027248,0.008607325899538049
0.2234483,0.09586794010558393,0.0393551573246759,0.1978736956993612,0.021984668022467554,0.05473569140159944,0.08984806935522784,0.10226432200979789,0.008522410811050905
0.2239138,0.09584074338787786,0.039501860085260604,0.19916307580643175,0.021831602409031887,0.054956654123188196,0.08941535746271008,0.10192953305993463,0.008439144612176375
0.2243793,0.09580812606902238,0.039652916952587616,0.20044978193318874,0.021679701563455965,0.055178919755053506,0.08897903053078365,0.10158622267863714,0.008357520846931768
0.2248448,0.0957701213726142,0.03980823559652827,0.20173363228785268,0.021528969543920296,0.0554023981707829,0.08853915786576401,0.10123446896594732,0.00827753297325213
0.2253103,0.09572676378723127,0.0399677233689726,0.2030144440894615,0.02137941023144677,0.05562699920709787,0.08809580959341055,0.10087435197110445,0.00819917436375441
0.2257759,0.09567808904554728,0.040131287328066846,0.20429203359462766,0.021231027328355793,0.055852632685022066,0.0876490566355926,0.10050595365904043,0.008122438306472642
0.2262414,0.09562413410284244,0.04029883426239806,0.2055662161250034,0.021083824356823887,0.05607920843108671,0.08719897068692219,0.10012935787627934,0.008047318005565582
0.2267069,0.09556493711493567,0.04047027071512103,0.20683680609545893,0.020937804657541286,0.056306636298568156,0.08674562419136664,0.09974465031625974,0.00797380658199821
0.2271724,0.09550053741556283,0.040645503008022714,0.20810361704297708,0.020792971388468976,0.05653482618875209,0.08628909031885247,0.0993519184840979,0.007901897074198397
0.2276379,0.09543097549322652,0.04082443726551916,0.20936646165626707,0.020649327523694347,0.056763688072218633,0.08582944294187188,0.09895125166081002,0.007831582438690048
0.2281034,0.09535629296754215,0.04100697943857962,0.2106251518060988,0.020506875852384563,0.05699313201014201,0.08536675661210252,0.09854274086701188,0.007762855550703934
0.228569,0.09527653256510456,0.04119303532857247,0.2118794985763577,0.02036561897783653,0.05722306817559815,0.08490110653705045,0.09812647882611385,0.007695709204767368
0.2290345,0.09519173809489932,0.0413825106110272,0.21312931229581797,0.020225559316622156,0.0574534068748736,0.08443256855672522,0.09770255992703011,0.007630136115273834
0.2295,0.09510195442328216,0.041575310859306804,0.21437440257063095,0.020086699097827468,0.05768405856876882,0.08396121912035573,0.09727108018642074,0.007566128917033597
0.2299655,0.0950072274485485,0.041771341568184635,0.21561457831752354,0.01994904036238395,0.057914933893889006,0.0834871352631547,0.09683213721048561,0.007503680165806271
0.230431,0.09490760407511539,0.041970508177319704,0.21684964779769958,0.019812584962490408,0.05814594368391562,0.0830103945831391,0.09638583015632993,0.007442782338816257
0.2308966,0.0948031321873366,0.04217271609462469,0.21807941865143587,0.019677334561123493,0.05837699899085187,0.08253107521801266,0.09593225969292105,0.007383427835251918
0.2313621,0.09469386062297128,0.042377870719520684,0.21930369793336288,0.0195432906316349,0.05860801110623528,0.08204925582211667,0.0954715279616571,0.007325608976749315
0.2318276,0.0945798391463259,0.04258587746607289,0.22052229214841884,0.01941045445743314,0.058838891582310184,0.08156501554345426,0.09500373853656807,0.007269318007861313
0.2322931,0.09446111842108913,0.04279664178600149,0.22173500728846526,0.019278827131747684,0.059069552253153114,0.08107843400079306,0.09452899638417052,0.007214547096512819
0.2327586,0.09433774998287872,0.04301006919156195,0.22294164886955084,0.01914840955747302,0.05929990525574353,0.08058959126085022,0.0940474078229974,0.007161288334442976
0.2332241,0.09420978621151914,0.043226065278289226,0.22414202196981017,0.01901920244709016,0.05952986305097253,0.08009856781556365,0.09355908048282532,0.007109533737635083
0.2336897,0.0940772803030695,0.04344453574760032,0.2253359312679839,0.018891206322662845,0.05975933844458215,0.07960544455945248,0.09306412326362141,0.007059275246735093
0.2341552,0.09394028624162074,0.043665386429249685,0.22652318108254668,0.018764421515905776,0.05998824460802837,0.07911030276706912,0.09256264629423289,0.007010504727459489
0.2346207,0.09379885877088126,0.04388852330363218,0.22770357541142944,0.018638848168321957,0.06021649509926087,0.0786132240705451,0.0920547608908428,0.00696321397099335
0.2350862,0.09365305336557037,0.044113852523928666,0.22887691797232262,0.01851448623140622,0.060444003883413484,0.07811429043723137,0.09154057951521564,0.006917394694379357
0.2355517,0.09350292620263886,0.04434128043808958,0.23004301224354795,0.01839133546691189,0.06067068535339898,0.07761358414743394,0.09102021573275658,0.006873038540898509
0.2360172,0.09334853413233622,0.044570713610652575,0.23120166150548627,0.018269395447177542,0.06089645435040241,0.07711118777224463,0.09049378417040897,0.006830137080443267
0.2364828,0.09318993464914425,0.04480205884439086,0.23235266888254907,0.01814866555551092,0.06112122618426714,0.07660718415146582,0.08996140047441446,0.006788681809883858
0.2369483,0.09302718586259674,0.04503522320178956,0.23349583738568333,0.01802914498662704,0.0613449166537677,0.07610165637162793,0.0894231812679601,0.006748664153428499
0.2374138,0.09286034646800462,0.04527011402634768,0.2346309699553977,0.017910832747137673,0.06156744206676367,0.07559468774409736,0.08887924410873695,0.006710075462978347
0.2378793,0.09268947571710646,0.04550663896370371,0.23575786950530023,0.017793727656089442,0.061788719260228386,0.07508636178327234,0.08832970744643426,0.006672907018478062
0.2383448,0.09251463338866414,0.04574470598258315,0.23687633896613872,0.017677828345547913,0.06200866562014602,0.07457676218486312,0.08777469058019324,0.006637150028262892
0.2388103,0.09233587975902287,0.04598422339556626,0.23798618133033356,0.01756313326122515,0.06222719910127036,0.07406597280425326,0.08721431361604343,0.006602795629403226
0.2392759,0.09215327557265528,0.046225099879674575,0.23908719969699646,0.01744964066314833,0.06244423824673806,0.07355407763493778,0.08664869742434475,0.006569834888047502
0.2397414,0.09196688201270888,0.046467244496774904,0.24017919731742693,0.017337348626367134,0.06265970220752932,0.07304116078703383,0.08607796359725738,0.006538258799764333
0.2402069,0.0917767606715761,0.046710566713799195,0.24126197764108004,0.01722625504169794,0.0628735107617684,0.07252730646585936,0.08550223440626022,0.006508058289884695
0.2406724,0.09158297352150546,0.04695497642277898,0.24233534436199933,0.017116357616503076,0.0630855843338568,0.07201259895057545,0.08492163275973931,0.006479224213844946
0.2411379,0.09138558288527304,0.04720038396069299,0.24339910146570934,0.017007653875504028,0.06329584401343197,0.07149712257288784,0.0843362821606657,0.006451747357531442
0.2416034,0.09118465140693245,0.04744670012912654,0.24445305327656205,0.01690014116162814,0.06350421157414488,0.07098096169580329,0.08374630666438221,0.0064256184376274865
0.242069,0.0909802420226615,0.047693836213741105,0.24549700450553194,0.016793816636888965,0.06371060949224998,0.07046420069243602,0.08315183083651813,0.006400828101963312
0.2425345,0.09077241793172362,0.047941704003552514,0.24653076029845447,0.016688677283300733,0.0639149609650019,0.06994692392485989,0.08255297971105025,0.0063773669298697695
0.243,0.09056124256756144,0.04819021581001592,0.24755412628470244,0.016584719903827632,0.06411718992885371,0.06942921572300066,0.08194987874852816,0.006355225432536346
0.2434655,0.09034677956903935,0.04843928448591576,0.24856690862629474,0.01648194112336876,0.06431722107745202,0.0689111603635627,0.0813426537944817,0.006334394053374113
0.243931,0.09012909275185176,0.04868882344405853,0.24956891406743045,0.01638033738977944,0.06451497987942523,0.0683928420489844,0.08073143103802756,0.006314863168384125
0.2443966,0.08990824608011348,0.04893874667576615,0.25055994998444187,0.01627990497492974,0.06471039259596092,0.06787434488641603,0.08011633697069216,0.006296623086531755
0.2448621,0.08968430363814738,0.04918896876916718,0.2515398244361573,0.01618063997580088,0.06490338629816961,0.0673557528667146,0.07949749834546746,0.006279664050127454
0.2453276,0.08945732960248462,0.04943940492728327,0.2525083462146645,0.016082538315620367,0.06509388888423119,0.06683714984345063,0.07887504213611578,0.006263976235214332
0.2457931,0.08922738821409164,0.04968997098590748,0.25346532489646295,0.015985595745036493,0.06528182909632137,0.06631861951192379,0.07824909549673983,0.0062495497519629625
0.2462586,0.08899454375083762,0.04994058343127112,0.254410570893992,0.015889807843332927,0.06546713653731412,0.0658002453881851,0.07761978572163354,0.006236374645073807
0.2467241,0.08875886050021535,0.05019115941749532,0.25534389550751996,0.015795170019683915,0.06564974168725637,0.06528211078806521,0.07698724020542892,0.006224440894187597
0.2471897,0.08852040273232777,0.05044161678382292,0.2562651109773767,0.015701677514450743,0.06582957591961043,0.06476429880620904,0.07635158640355409,0.006213738414304035
0.2476552,0.08827923467315192,0.05069187407162608,0.2571740305365111,0.01560932540052002,0.06600657151725961,0.06424689229511725,0.07571295179301724,0.006204257056209186
0.2481207,0.0880354204780914,0.05094185054118457,0.2580704684633533,0.015518108584684491,0.06618066168827202,0.06372997384419571,0.07507146383353068,0.006195986606911931
0.2485862,0.08778902420582806,0.051191466188229125,0.2589542401349609,0.015428021809067041,0.06635178058141777,0.0632136257588139,0.07442724992898932,0.00618891679008991
0.2490517,0.08754010979248367,0.051440641760244196,0.25982516208042594,0.015339059652588595,0.0665198633014349,0.06269793003937385,0.0737804373893169,0.006183037266545339
0.2495172,0.08728874102610151,0.0516892987725241,0.2606830520345203,0.015251216532480589,0.06668484592403982,0.06218296836039199,0.0731311533926937,0.0061783376346711116
0.2499828,0.0870349815214579,0.05193735952397633,0.2615277289915534,0.015164486705842683,0.06684666551067782,0.06166882204959755,0.07247952494817844,0.006174807430927578
0.2504483,0.08677889469521376,0.052184747112665866,0.2623590132594174,0.015078864271246327,0.06700526012300917,0.06115557206705315,0.07182567885873721,0.0061724361303303115
0.2509138,0.08652054374141602,0.05243138545109451,0.26317672651379387,0.014994343170384799,0.06716056883712641,0.06064329898430378,0.07116974168469141,0.006171213146949189
0.2513793,0.08625999160735859,0.05267719928120928,0.263980691852495,0.014910917189770322,0.06731253175749781,0.0601320829635617,0.07051183970759647,0.006171127834419025
0.2518448,0.08599730096981252,0.05292211418913437,0.26477073384991207,0.014828579962478793,0.06746109003063247,0.059622003736935124,0.0698520988945626,0.006172169486461987
0.2523103,0.08573253421163524,0.05316605661962121,0.26554667861154396,0.01474732496994266,0.06760618585846269,0.05911314058570967,0.06919064486302827,0.006174327337421942
0.2527759,0.08546575339876819,0.05340895389021133,0.26630835382857926,0.014667145543792457,0.06774776251143946,0.05860557231969211,0.06852760284599689,0.006177590562810885
0.2532414,0.0851970202576325,0.05365073420510704,0.2670555888325041,0.01458803486774742,0.06788576434133803,0.05809937725662681,0.0678630976577466,0.006181948279867535
0.2537069,0.08492639615293208,0.05389132666874508,0.26778821464970975,0.01450998597955569,0.06802013679377016,0.05759463320169585,0.06719725366002255,0.006187389548128222
0.2541724,0.0846539420658737,0.05413066129906833,0.2685060640560749,0.0144329917729845,0.06815082642040098,0.0570914174271141,0.06653019472872078,0.006193903370010179
0.2546379,0.08437971857281279,0.05436866904049081,0.269208971631496,0.01435704499986082,0.06827778089086796,0.056589806651831484,0.06586204422107252,0.0062014786914074225
0.2551034,0.08410378582433442,0.05460528177655123,0.2698967738143422,0.01428213827216271,0.06840094900440054,0.0560898770213547,0.06519292494333702,0.00621010440229942
0.255569,0.08382620352477821,0.05484043234225048,0.27056930895581033,0.014208264064161686,0.06852028070113891,0.05559170408770098,0.06452295911901093,0.0062197693373727695
0.2560345,0.08354703091221578,0.05507405453606815,0.27122641737415626,0.014135414714616188,0.06863572707315099,0.05509536278949683,0.06385226835756165,0.006230462276656145
0.2565,0.08326632673888926,0.055306083131653846,0.271867941408781,0.014063582429016197,0.06874724037514669,0.05460092743223425,0.0631809736236917,0.00624217194616868
0.2569655,0.08298414925211903,0.05553645388918869,0.2724937254741503,0.013992759281878882,0.0688547740348891,0.054108471668696985,0.06250919520714061,0.0062548870185819725
0.257431,0.08270055617568915,0.05576510356641314,0.27310361611352624,0.013922937219095056,0.06895828266330206,0.05361806847956918,0.061837052693030733,0.006268596113895822
0.2578966,0.08241560469171806,0.05599196992931718,0.2736974620524917,0.013854108060326123,0.06905772206427352,0.05312979015423826,0.061164664932762326,0.006283287800127789
0.2583621,0.08212935142302236,0.05621699176248928,0.2742751142522488,0.013786263501451098,0.06915304924415379,0.052643708271803834,0.06049215001546351,0.006298950594016655
0.2588276,0.08184185241598103,0.056440108879121265,0.27483642596267405,0.013719395117063124,0.06924422242094759,0.05215989368230421,0.05981962523999974,0.006315572961739831
0.2592931,0.08155316312390763,0.05666126213066647,0.2753812527751129,0.013653494363014813,0.06933120103319801,0.05167841648817152,0.05914720708754716,0.0063331433196447086
0.2597586,0.08126333839093727,0.05688039341614875,0.2759094526748984,0.013588552579011669,0.06941394574856027,0.0511993460259264,0.05847501119473364,0.006351650034993901
0.2602241,0.08097243243643515,0.0570974456911207,0.2764208860935789,0.01352456099125267,0.06949241847206249,0.05072275084812271,0.05780315232735088,0.0063710814267243275
0.2606897,0.08068049883993292,0.05731236297626927,0.27691541596083963,0.013461510715117024,0.06956658235405042,0.05024869870555243,0.05713174435464032,0.006391425766220005
0.2611552,0.08038759052659881,0.05752509036566749,0.27739290775610453,0.013399392757896035,0.06963640179781284,0.0497772565297205,0.05646090022415534,0.00641267127809844
0.2616207,0.08009375975324683,0.0577355740346708,0.27785322955980346,0.01333819802156884,0.06970184246688395,0.049308490415598955,0.05579073193720134,0.006434806141010464
0.2620862,0.07979905809488971,0.05794376124745659,0.278296252104291,0.01327791730562073,0.0697628712920193,0.048842465604669344,0.05512135052485523,0.00645781848845336
0.2625517,0.0795035364318401,0.05814960036420559,0.27872184882440115,0.013218541309902673,0.06981945647784213,0.0483792464682622,0.05445286602456515,0.006481696409597135
0.2630172,0.0792072449373631,0.05835304084792307,0.2791298959076232,0.013160060637530517,0.0698715675091561,0.04791889649120165,0.05378538745733096,0.0065064279501237665
0.2634828,0.07891023306588348,0.058554033270898115,0.2795202723438803,0.013102465797822345,0.069919175156921,0.04746147825576346,0.05311902280546555,0.006532001113079322
0.2639483,0.07861254954174954,0.05875252932079826,0.27989285997489316,0.013045747209272254,0.06996225148388724,0.04700705342595375,0.05245387899093668,0.00655840385973885
0.2644138,0.07831424234855522,0.05894848180639665,0.2802475435431082,0.012989895202558823,0.07000076984988461,0.046555682732115806,0.051790061854288756,0.006585624110483961
0.2648793,0.07801535871902171,0.059141844662928586,0.2805842107401683,0.012934900023586408,0.0700347049167606,0.04610742595587167,0.051127676134143644,0.006613649745693053
0.2653448,0.07771594512543893,0.05933257295707351,0.28090275225490224,0.012880751836557321,0.07006403265296329,0.04566234191540505,0.050466825447279345,0.006642468606644198
0.2658103,0.07741604727066698,0.059520622891558156,0.28120306182080756,0.012827440727072885,0.07008873033776397,0.045220488451091743,0.04980761226928488,0.006672068496430695
0.2662759,0.07711571007969686,0.05970595180937623,0.28148503626300186,0.012774956705261197,0.0701087765651147,0.044781922411483266,0.04915013791578981,0.006702437180889347
0.2667414,0.07681497769176966,0.05988851819761939,0.28174857554461713,0.012723289708929452,0.07012415124713618,0.04434669963964912,0.048494502524266285,0.0067335623895414965
0.2672069,0.0765138934530523,0.06006828169091385,0.28199358281261194,0.012672429606738497,0.07013483561723129,0.043914874959882756,0.047840805036401535,0.006765431816546829
0.2676724,0.0762124999098676,0.060245203074456945,0.28221996444297803,0.012622366201397246,0.07014081223282032,0.0434865021647759,0.04718914318103844,0.006798033121669932
0.2681379,0.07591083880247577,0.060419244286647515,0.2824276300853179,0.012573089232874531,0.07014206497769378,0.043061634002665675,0.04653961345768178,0.006831353931259546
0.2686034,0.07560895105940403,0.06059036842130423,0.28261649270677375,0.012524588381625991,0.07013857906397881,0.04264032216545844,0.04589231112056774,0.006865381839240415
0.269069,0.07530687679232033,0.0607585397294659,0.28278646863528784,0.012476853271833538,0.07013034103371531,0.04222261727683413,0.04524733016329397,0.006900104408117617
0.2695345,0.07500465529144723,0.06092372362076787,0.2829374776021784,0.012429873474655071,0.07011733876003766,0.041808568880834465,0.044604763304007956,0.00693550916999322
0.27,0.07470232502151157,0.061085886664389334,0.2830694427840172,0.012383638511482041,0.07009956144795869,0.0413982254308382,0.04396470197115101,0.006971583627595146
0.2704655,0.07439992361822534,0.061244996589566114,0.28318229084379665,0.012338137857202515,0.07007699963475238,0.04099163427892623,0.0433272362897555,0.007008315255318095
0.270931,0.07409748788529252,0.061401022285664734,0.28327595197137684,0.012293360943467389,0.07004964518993229,0.04058884166563941,0.04269245506829262,0.007045691500276505
0.2713966,0.0737950537919373,0.061553933801814134,0.2833503599232049,0.012249297161957348,0.07001749131482304,0.04018989271013177,0.04206044578606827,0.0070836997833695495
0.2718621,0.07349265647094783,0.061703702346092834,0.2834054520612996,0.012205935867648196,0.06998053254172179,0.03979483140072155,0.04143129458116431,0.007122327500358253
0.2723276,0.07319033021723012,0.06185030028427095,0.28344116939149583,0.012163266382072295,0.06993876473264674,0.039403700585842666,0.04080508623892202,0.007161562022954822
0.2727931,0.072888108486866,0.06199370113810783,0.2834574566009443,0.012121277996573901,0.06989218507766987,0.03901654196539887,0.040181904180964664,0.0072013906999243305
0.2732586,0.07258602389666849,0.06213387958320757,0.28345426209486047,0.012079959975556439,0.06984079209283103,0.038633396082522496,0.03956183045475576,0.007241800858198878
0.2737241,0.07228410822422776,0.06227081144643583,0.28343153803251836,0.012039301559719882,0.06978458561763036,0.038254302315739765,0.038944945723689006,0.007282779804004387
0.2741897,0.07198239240844008,0.06240447370290148,0.2833892403624821,0.011999291969286573,0.06972356681209692,0.03787929887154395,0.038331329257706034,0.007324314824000192
0.2746552,0.07168090655051193,0.06253484447250685,0.2833273288570677,0.011959920407213949,0.06965773815343179,0.037508422777377794,0.03772105892443764,0.007366393186431542
0.2751207,0.07137967991543087,0.06266190301606997,0.28324576714602695,0.011921176062392822,0.06958710343222374,0.03714170987502629,0.03711421118086416,0.0074090021422951735
0.2755862,0.07107874093389438,0.06278562973102224,0.2831445227494417,0.011883048112829916,0.06951166774823617,0.03677919481442057,0.03651086106549042,0.007452128926518081
0.2760517,0.07077811720468757,0.06290600614668426,0.28302356710981624,0.011845525728813401,0.06943143750576446,0.036420911047853714,0.03591108219103074,0.007495760759149563
0.2765172,0.0704778354975002,0.0630230149191234,0.28288287562335324,0.011808598076060307,0.06934642040856324,0.03606689082460901,0.035314946737599245,0.007539884846566688
0.2769828,0.0701779217561731,0.06313663982559647,0.2827224276703947,0.01177225431884465,0.06925662545434347,0.03571716518600091,0.034722525446400664,0.007584488382693252
0.2774483,0.06987840110236457,0.06324686575858118,0.28254220664500984,0.011736483623105047,0.06916206292883963,0.035371763960828785,0.0341338876139167,0.0076295585502323664
0.2779138,0.06957929783962662,0.06335367871940013,0.28234219998370863,0.011701275159530624,0.06906274439944839,0.035030715761243295,0.03354910108658302,0.007675082521912718
0.2783793,0.06928063545788166,0.06345706581144138,0.2821223991932577,0.011666618106623903,0.06895868270844005,0.03469404797902508,0.03296823225595172,0.007721047461748575
0.2788448,0.06898243663829023,0.063557015232979,0.2818827998775752,0.011632501653739349,0.06884989196574492,0.03436178678227553,0.03239134605433385,0.007767440526313533
0.2793103,0.06868472325850107,0.06365351626959717,0.28162340176367784,0.011598915004096204,0.0687363875413167,0.034033957112519275,0.031818505950916995,0.00781424886602795
0.2797759,0.06838751639827478,0.06374655928622093,0.28134420872665417,0.011565847377764176,0.06861818605707524,0.03371058268221849,0.031249773948352155,0.007861459626459972
0.2802414,0.06809083634547289,0.06383613571875743,0.2810452288136342,0.01153328801462055,0.0684953053784306,0.033391685972698745,0.03068521057980479,0.007909059949640017
0.2807069,0.06779470260240393,0.06392223806535158,0.28072647426672576,0.01150122617727724,0.06836776460538961,0.03307728823248664,0.030124874906464368,0.007957036975388606
0.2811724,0.06749913389251837,0.06400485987726086,0.28038796154488477,0.011469651153976246,0.06823558406324647,0.03276740947605929,0.029568824515507137,0.008005377842657422
0.2816379,0.06720414816744372,0.06408399574935524,0.2800297113446854,0.011438552261451967,0.06809878529285814,0.03246206848300533,0.02901711551850661,0.008054069690883608
0.2821034,0.066909762614351,0.06415964131024857,0.27965174861995423,0.011407918847758696,0.06795739104050531,0.03216128279759718,0.028469802550286593,0.008103099661357286
0.282569,0.066615993663643,0.06423179321206864,0.27925410260022965,0.01137774029506166,0.06781142524733962,0.0318650687287739,0.02792693876821159,0.008152454898602403
0.2830345,0.06632285699695434,0.06430044911987332,0.27883680680800665,0.011348006022389981,0.06766091303841726,0.031573441350533756,0.027388575851909444,0.008202122551770961
0.2835,0.06603036755545319,0.06436560770072043,0.2783998990747246,0.01131870548834996,0.06750588071131938,0.03128641450273559,0.026854764003421353,0.008252089776050825
0.2839655,0.06573853954843392,0.06442726861239834,0.27794342155545576,0.011289828193797225,0.06734635572435863,0.031004000792307567,0.026325551947774337,0.008302343734087309
0.284431,0.06544738646218987,0.06448543249182405,0.27746742074225,0.011261363684466442,0.06718236668437157,0.03072621159486208,0.02580098693397136,0.00835287159741891
0.2848966,0.06515692106915554,0.06454010094311563,0.27697194747609244,0.01123330155355732,0.06701394333409663,0.03045305705671516,0.025281114736394304,0.00840366054792757
0.2853621,0.06486715543730785,0.06459127652534512,0.2764570569574283,0.011205631444275796,0.06684111653913688,0.0301845460973087,0.024765979656614916,0.008454697779303938
0.2858276,0.06457810093981618,0.06463896273997857,0.27592280875521064,0.011178343052329356,0.06666391827450818,0.029920686412033465,0.024255624525608924,0.008505970498528108
0.2862931,0.06428976826493198,0.06468316401800961,0.2753692668144268,0.01115142612837543,0.06648238161077404,0.029661484475450778,0.023750090706368302,0.008557465927366325
0.2867586,0.06400216742610874,0.0647238857067932,0.2747964994620595,0.011124870480421706,0.06629654069977037,0.029406945544910645,0.02324941809690664,0.008609171303884125
0.2872241,0.06371530777234412,0.06476113405658662,0.2742045794114401,0.011098665976177266,0.06610643075992564,0.029157073664563878,0.022753645133652328,0.00866107388397637
0.2876897,0.06342919799873617,0.06479491620680508,0.27359358376495474,0.01107280254535338,0.06591208806118334,0.028911871669765724,0.022262808795224145,0.008713160942914569
0.2881552,0.06314384615724637,0.06482524017200046,0.2729635940150629,0.011047270181912722,0.0657135499095348,0.028671341191868368,0.021776944606583654,0.008765419776911873
0.2886207,0.06285925966766193,0.06485211482757228,0.2723146960435949,0.011022058946265883,0.06551085463117093,0.028435482663399562,0.021296086643558563,0.008817837704706028
0.2890862,0.06257544532875073,0.06487554989522146,0.27164698011929206,0.010997158967414124,0.0653040415562614,0.02820429532362445,0.020820267537731113,0.00887040206916052
0.2895517,0.062292409329602026,0.0648955559281583,0.27096054089356064,0.010972560445037374,0.06509315100237041,0.027977777224487688,0.02034951848168529,0.008923100238884115
0.2900172,0.062010157261145976,0.06491214429607706,0.270255477394407,0.010948253651526723,0.06487822425751809,0.027755925236932752,0.019883869234606534,0.008975919609868963
0.2904828,0.061728694127845304,0.06492532716991035,0.26953189301852687,0.010924228933960719,0.06465930356289759,0.027538735057595354,0.01942334812822752,0.00902884760714742
0.2909483,0.06144802435955246,0.06493511750637647,0.2687898955215195,0.010900476716024931,0.06443643209525816,0.02732620121586754,0.01896798207311328,0.009081871686467725
0.2914138,0.06116815182352517,0.06494152903233391,0.2680295970061969,0.010876987499874325,0.06420965394896544,0.027118317081329123,0.018517796565279056,0.009134979335988589
0.2918793,0.06088907983659311,0.06494457622895716,0.26725111390895984,0.010853751867938043,0.06397901411775052,0.02691507487154283,0.018072815693133897,0.009188158077992807
0.2923448,0.060610811177468145,0.06494427431574747,0.26645456698421205,0.010830760484666219,0.06374455847616015,0.02671646566020953,0.017633062144743125,0.009241395470619833
0.2928103,0.060333348099189825,0.06494063923439251,0.2656400812867861,0.01080800409821848,0.0635063337607205,0.02652247938567981,0.017198557215402584,0.009294679109617275
0.2932759,0.06005669234169754,0.06493368763248832,0.2648077861523582,0.010785473542093827,0.06326438755082765,0.026333104859818074,0.016769320815517606,0.009347996630111172
0.2937414,0.05978084514452008,0.06492343684713602,0.2639578151758343,0.010763159736701547,0.06301876824937781,0.02614832977721526,0.016345371478779652,0.009401335708394826
0.2942069,0.05950580725957289,0.06490990488842625,0.2630903061876949,0.010741053690872917,0.06276952506315057,0.02596814072474615,0.015926726370633568,0.00945468406373593
0.2946724,0.05923157896405283,0.06489311042282266,0.26220540122829206,0.010719146503313437,0.06251670798295873,0.025792523191467177,0.015513401297028544,0.009508029460201621
0.2951379,0.05895816007341978,0.06487307275645587,0.26130324652009745,0.010697429363995363,0.062260367763578225,0.025621461578850455,0.015105410713445929,0.009561359708501044
0.2956034,0.05868554995445387,0.06484981181833924,0.2603839924379072,0.010675893555490394,0.06200055590347203,0.025454939211349604,0.014702767734197283,0.009614662667844947
0.296069,0.05841374753837707,0.06482334814351642,0.2594477934770155,0.010654530454242339,0.061737324624321764,0.025292938347292723,0.014305484141986078,0.009667926247821852
0.2965345,0.058142751334027444,0.0647937028561513,0.2584948082193725,0.010633331531779599,0.06147072685038096,0.025135440190097724,0.013913570397726777,0.009721138410290295
0.297,0.057872559441074146,0.06476089765256969,0.25752519929774914,0.010612288355867314,0.06120081618766417,0.024982424899805008,0.01352703565061517,0.009774287171286717
0.2974655,0.05760316956326128,0.06472495478426248,0.2565391333579349,0.010591392591598987,0.06092764690298601,0.024833871604922304,0.013145887748444008,0.009827360602948598
0.297931,0.05733457902166887,0.06468589704085871,0.255536781018998,0.010570636002427553,0.06065127390286447,0.02468975841457625,0.012770133248158259,0.009880346835452542
0.2983966,0.05706678476797941,0.06464374773307753,0.25451831683164383,0.010550010451135997,0.06037175271230255,0.02455006243096512,0.012399777426644495,0.009933234058966981
0.2988621,0.05679978339773878,0.06459853067566701,0.25348391923470587,0.010529507900747907,0.060089139453462365,0.024414759762106816,0.012034824291749114,0.00998601052561921
0.2993276,0.05653357116360077,0.06455027017033863,0.2524337705098101,0.01050912041537859,0.05980349082424572,0.024283825534876173,0.011675276593520252,0.010038664551476398
0.2997931,0.056268143988545086,0.0644989909887058,0.2513680567342521,0.010488840161027703,0.05951486407679495,0.0241572339083252,0.01132113583566845,0.010091184518540188
0.3002586,0.05600349747905915,0.0644447183552356,0.2502869677321293,0.010468659406314543,0.05922331699592773,0.024034958087279918,0.010972402287241214,0.010143558876754402
0.3007241,0.05573962693827461,0.064387477930223,0.24919069702377053,0.010448570523157364,0.05892890787751916,0.02391697033620711,0.010629074994506715,0.010195776146025388
0.3011897,0.05547652737904961,0.06432729579279763,0.24807944177350597,0.010428565987398261,0.05863169550684469,0.02380324199334411,0.01029115179304196,0.010247824918254466
0.3016552,0.055214193536988816,0.06426419842397345,0.24695340273581903,0.010408638379375298,0.05833173913689661,0.023693743485084608,0.009958629320020805,0.010299693859381913
0.3021207,0.0549526198833933,0.06419821268975154,0.24581278419992342,0.010388780384443618,0.05802909846668717,0.023588444340613243,0.009631503026697177,0.01035137171144188
0.3025862,0.05469180063813324,0.06412936582428672,0.2446577939328046,0.010368984793447361,0.05772383361955075,0.023487313206781543,0.009309767191078911,0.010402847294627588
0.3030517,0.054431729782436905,0.0640576854131291,0.24348864312076574,0.010349244503144228,0.057416005121457406,0.023390317863217536,0.008993414930787567,0.010454109509366191
0.3035172,0.05417240107158966,0.06398319937655171,0.24230554630951517,0.010329552516584496,0.05710567387934938,0.02329742523766127,0.008682438216099538,0.010505147338402653
0.3039828,0.053913808047537544,0.0639059359529762,0.24110872134283107,0.010309901943446288,0.056792901159512264,0.023208601421518173,0.008376827883163724,0.010555949848892033
0.3044483,0.05365594405139002,0.06382592368250913,0.23989838929983723,0.010290286000328764,0.05647774856599148,0.023123811685622078,0.008076573647390981,0.010606506194499541
0.3049138,0.05339880223581732,0.06374319139060124,0.2386747744309219,0.010270698011004898,0.0561602780190645,0.023043020496199582,0.00778166411701053,0.010656805617507698
0.3053793,0.05314237557733755,0.06365776817184197,0.2374381040923309,0.010251131406635387,0.055840551733778915,0.02296619153102738,0.007492086806788472,0.010706837450929893
0.3058448,0.05288665688848936,0.06356968337390134,0.23618860867946526,0.010231579725945204,0.05551863219856557,0.02289328769577408,0.007207828151903544,0.010756591120629532
0.3063103,0.05263163882988601,0.06347896658163067,0.23492652155891128,0.01021203661536425,0.0551945821539359,0.022824271140518066,0.006928873521975286,0.010806056147443913
0.3067759,0.05237731392214689,0.06338564760133324,0.2336520789992329,0.010192495829133506,0.05486846457127178,0.0227591032764328,0.006655207235239802,0.01085522214931185
0.3072414,0.052123674557702754,0.06328975644521531,0.23236552010055359,0.010172951229378065,0.05454034263171605,0.022697744792630817,0.006386812572868337,0.010904078843404053
0.3077069,0.05187071301247074,0.06319132331602768,0.23106708672295492,0.010153396786148352,0.05421027970517125,0.022640155673157664,0.006123671793423967,0.010952616048255103
0.3081724,0.05161842145739532,0.06309037859190715,0.22975702341372078,0.010133826577430857,0.0538783393294138,0.022586295214126733,0.005865766147451728,0.011000823685895956
0.3086379,0.051366791969851645,0.06298695281142708,0.22843557733345454,0.010114234789129713,0.053544585189330494,0.02253612204098598,0.005613075892197548,0.011048691783985752
0.3091034,0.05111581654490719,0.06288107665886578,0.22710299818109822,0.010094615715020471,0.053209081096283695,0.022489594125907425,0.005365580306451407,0.011096210477941865
0.309569,0.05086548710643798,0.06277278094970092,0.2257595381178834,0.010074963756677447,0.05287189096761153,0.022446668805290296,0.0051232577055100904,0.011143370013067028
0.3100345,0.05061579551809566,0.06266209661633804,0.2244054516902446,0.010055273423376025,0.05253307880626891,0.02240730279736883,0.0048860854562549445,0.01119016074667246
0.3105,0.0503667335941219,0.06254905469408083,0.22304099575172615,0.010035539331971337,0.05219270868061472,0.022371452219915832,0.00465403999234,0.011236573150195824
0.3109655,0.05011829311000664,0.06243368630735064,0.22166642938391598,0.010015756206754725,0.051850844704350675,0.022339072608033327,0.004427096829485818,0.011282597811312875
0.311431,0.049870465812987444,0.06231602265616255,0.2202820138164404,0.009995918879289419,0.05150755101661645,0.022310118932021977,0.00420523058087437,0.011328225436041518
0.3118966,0.04962324343238756,0.06219609500286509,0.2188880123460556,0.009976022288226853,0.05116289176224583,0.02228454561532134,0.003988414972640241,0.011373446850837035
0.3123621,0.049376617689790146,0.06207393465915059,0.2174846902548733,0.009956061479105053,0.050816931072188126,0.022262306552513482,0.003776622859453426,0.011418253004677067
0.3128276,0.049130580309047024,0.061949572973342526,0.2160723147277597,0.009936031604130507,0.0504697330440993,0.02224335512738304,0.003569826240189001,0.011462634971134969
0.3132931,0.04888512302611966,0.061823041317966634,0.21465115476894822,0.009915927921944954,0.05012136172310694,0.022227644231026945,0.0033679962736789257,0.011506583950440043
0.3137586,0.04864023759875045,0.06169437107761202,0.21322148111790826,0.009895745797378482,0.04977188108275358,0.022215126280007456,0.0031711032945412445,0.011550091271523176
0.3142241,0.04839591581596179,0.0615635936370881,0.21178356616451366,0.009875480701190329,0.04942135500612345,0.022205753234542307,0.0029791168290819654,0.011593148394046265
0.3146897,0.048152149507380254,0.06143074036988347,0.210337683863556,0.009855128209798726,0.04906984726715761,0.02219947661672572,0.00279200561126486,0.011635746910413837
0.3151552,0.04790893055238307,0.061295842626932245,0.20888410964864884,0.009834684005001114,0.04871742151216345,0.02219624752877405,0.0026097375987444438,0.011677878547765147
0.3156207,0.047666250889063976,0.06115893172569314,0.20742312034557123,0.009814143873685944,0.04836414124152483,0.022196016671289776,0.002432279988957389,0.011719535169945146
0.3160862,0.047424102523015065,0.06102003893954644,0.2059549940850985,0.009793503707537269,0.048010069791619356,0.02219873436153744,0.0022595992352676267,0.011760708779452527
0.3165517,0.04718247753592146,0.06087919548751371,0.20448001021537002,0.00977275950273321,0.04765527031694991,0.022204350551725326,0.0020916610631604147,0.011801391519363153
0.3170172,0.046941368093965506,0.06073643252430432,0.20299844921384427,0.009751907359639362,0.04729980577249726,0.02221281484728651,0.001928430486480651,0.011841575675227173
0.3174828,0.04670076645603716,0.06059178113069321,0.20151059259889226,0.009730943482498084,0.046943738896300984,0.0222240765251529,0.0017698718237107427,0.011881253676938142
0.3179483,0.046460664981747335,0.060445272304233216,0.2000167228410805,0.009709864179114557,0.04658713219227544,0.022238084552015903,0.0016159487142833311,0.01192041810057242
0.3184138,0.046221056139241025,0.0602969369503054,0.1985171232741948,0.009688665860540513,0.04623004791326768,0.022254787602567112,0.0014666241349241904,0.011959061670197092
0.3188793,0.04598193251280708,0.060146805873510165,0.19701207800605652,0.009667345040756396,0.04587254804436369,0.022274134077712438,0.0013218604160206342,0.011997177259644633
0.3193448,0.04574328681028194,0.05999490976940149,0.1955018718291822,0.009645898336352722,0.045514694286449206,0.02229607212275306,0.001181619258010764,0.01203475789425247
0.3198103,0.0455051118702445,0.0598412792165663,0.193986790131337,0.00962432246621134,0.045156548040030935,0.02232054964552658,0.0010458617477889182,0.012071796752565494
0.3202759,0.04526740066899962,0.059685944669050216,0.1924671188060314,0.009602614251187276,0.04479817038932378,0.022347514334501634,0.0009145483751226796,0.012108287167999499
0.3207414,0.045030146327348204,0.0595289364491312,0.19094314416301023,0.009580770613791716,0.044439622086609024,0.022376913676819488,0.0007876390490768275,0.012144222630463537
0.3212069,0.04479334211714191,0.05937028474044132,0.18941515283877994,0.009558788577876643,0.04408096353686831,0.022408694976275848,0.0006650931144396304,0.012179596787938993
0.3216724,0.044556981467620944,0.05921001958143754,0.18788343170722122,0.00953666526832158,0.043722254782697714,0.0224428053712364,0.000546869368146914,0.012214403448013273
0.3221379,0.044321057971533954,0.05904817085922134,0.1863482677903306,0.00951439791072281,0.04336355548950586,0.02247919185247945,0.00043292607569938674,0.012248636579366062
0.3226034,0.04408556539103903,0.05888476830370727,0.18480994816913432,0.009491983831085347,0.043004924930999666,0.022517801280959003,0.00032322098756877376,0.012282290313206282
0.323069,0.043850497663385765,0.05871984148214,0.1832687598948153,0.009469420455517906,0.04264642197496096,0.022558580405481664,0.00021771135558838956,0.01231535894465802
0.3235345,0.043615848906378256,0.058553419793959206,0.18172498990009386,0.00944670530993105,0.04228810506931686,0.02260147588029069,0.00011635394932386503,0.012347836934093985
0.324,0.04338161342361989,0.05838553246601141,0.180178924910901,0.009423836019738615,0.041930032228506574,0.022646434282550504,1.9105072419829696e-05,0.012379718908415056
0.3244655,0.043147785709540865,0.05821620854810749,0.17863085135838308,0.009400810309562461,0.04157226102014713,0.022693402129725097,-7.407942108157206e-05,0.01241099966227462
