Time,Rectus Femoris right,Rectus Femoris left,Hamstrings right,Hamstrings left,TibilaisÂ Anterior right,TibilaisÂ Anterior left,Gastrocnemius right,Gastrocnemius left
0.0,0.0003965021611423639,-0.0019209921817199352,-0.0028841194138513556,0.0007527302216087578,0.0034576323963242074,0.00448895983369366,-0.00428067658675832,-0.003106281006165109
0.0005192,0.0004381755360485668,-0.0017283438784801036,-0.002508211674862191,0.0008455400976183037,0.003561966684027806,0.004713383614349943,-0.003921802096582209,-0.0030186391512622745
0.0010385,0.00047988509984630987,-0.001535950742486904,-0.0021325904169067857,0.0009380217324038457,0.003666455609171533,0.004938544157111002,-0.0035615930719437787,-0.002930965437433417
0.0015577,0.0005216250559543537,-0.001343838613266102,-0.0017573071234898853,0.0010301618760223522,0.0037710869293196636,0.005164413276170805,-0.00320007993213398,-0.0028432692081370296
0.0020769,0.0005633895855573196,-0.00115203326819436,-0.001382413268079658,0.0011219473793314559,0.0038758483624496964,0.005390962514435297,-0.0028372933238169904,-0.0027555597814154626
0.0025962,0.0006051728491559915,-0.0009605604146645549,-0.001007960299950344,0.0012133651989256133,0.003980727590123394,0.005618163149368428,-0.002473264115069361,-0.0026678464469208968
0.0031154,0.0006469689881246519,-0.0007694456822855154,-0.0006339996300996735,0.0013044024020415945,0.0040857122606547,0.005845986198884127,-0.00210802338944798,-0.0025801384629666945
0.0036346,0.0006887721262744787,-0.0005787146151206734,-0.0002605826172529784,0.0013950461714302758,0.004190789992271983,0.0060744024272778915,-0.0017416024400921362,-0.002492445053606576
0.0041538,0.0007305763714220419,-0.00038839266397007965,0.00011223944603477011,0.0014852838101917355,0.004295948376272151,0.006303382351192802,-0.0013740327638648688,-0.0024047754057439086
0.0046731,0.0007723758169619741,-0.00019850517870019556,0.0004844153471686762,0.0015751027465706953,0.004401174980164321,0.006532896245615818,-0.0010053460555386738,-0.0023171386662732313
0.0051923,0.0008141645434429245,-9.077400625843768e-06,0.0008558939671860962,0.0016644905387093727,0.004506457350800871,0.006762914149900927,-0.0006355742020304876,-0.0022295439392559535
0.0057115,0.0008559366201459624,0.0001798655450513364,0.0012266242943029797,0.0017534348793548492,0.004611783017493866,0.006993405873816126,-0.0002647492766906892,-0.0021420002831319864
0.0062308,0.0008976861066646425,0.00036829865674362734,0.0015965554373268615,0.0018419236005180835,0.004717139495114984,0.007224341003611422,0.00010709646634931909,-0.002054516707968916
0.00675,0.0009394070544859915,0.000556197063912929,0.0019656366389295046,0.0019299446780817052,0.00482251428717722,0.00745568890810516,0.0004799305977665604,-0.0019671021727501927
0.0072692,0.0009810935085717216,0.000743536034437255,0.0023338172887724996,0.0020174862363537345,0.004927894888896694,0.00768741874478612,0.0008537205185686927,-0.0018797655827037145
0.0077885,0.001022739508939015,0.0009302909819039678,0.002701046936479326,0.0021045365525644046,0.005033268790232985,0.007919499465929002,0.0012284334655448038,-0.0017925157866720668
0.0083077,0.0010643390922402767,0.0011164374728258074,0.003067275304447583,0.0021910840613033034,0.005138623478906431,0.00815189982472106,0.0016040365166406973,-0.0017053615745255951
0.0088269,0.0011058862933412943,0.0013019512337759053,0.003432452300495359,0.0022771173588941084,0.0052439464433908164,0.00838458838139781,0.001980496596254677,-0.001618311674619394
0.0093462,0.0011473751468972825,0.0014868081584381364,0.0037965280303360245,0.002362625207704264,0.005349225175879966,0.008617533509385903,0.002357780480450021,-0.0015313747512952012
0.0098654,0.0011887996889263196,0.0016709843145693412,0.004159452809876135,0.0024475965403870244,0.00545444717522675,0.00885070340145135,0.0027358548020805745,-0.001444559402429079
0.0103846,0.001230153958379689,0.0018544559508701331,0.00452117717733154,0.0025320204640533446,0.005559599949853105,0.009084066075851473,0.0031146860558262214,-0.0013578741570256573
0.0109038,0.0012714319987086552,0.0020371995037611786,0.004881651905157279,0.0026158862643711834,0.0056646710206297015,0.009317589382489343,0.0034942406031353533,-0.0012713274728595883
0.0114231,0.0013126278594272009,0.002219191604061991,0.005240828011787334,0.002699183409589834,0.005769647923723965,0.009551241009069896,0.003874484677071834,-0.0011849277341647569
0.0119423,0.0013537355976702644,0.0024004090835694,0.0055986567731807655,0.0027819015544869726,0.005874518213415159,0.009784988487257503,0.004255384387064303,-0.0010986832493716813
0.0124615,0.0013947492797470194,0.0025808289815329503,0.005955089734171144,0.002864030544236177,0.005979269464875266,0.010018799198835282,0.004636905723555932,-0.001012602248893454
0.0129808,0.001435662982688743,0.002760428551024618,0.006310078719616503,0.0029455604181927173,0.006083889276914396,0.010252640381866764,0.0050190145625529274,-0.0009266928829604964
0.0135,0.001476470795790819,0.002939185265200368,0.006663575845347259,0.003026481413595516,0.006188365274689496,0.010486479136860814,0.005401676670070216,-0.0008409632195043664
0.0140192,0.0015171668221484207,0.0031170768234512836,0.007015533528909744,0.0031067839691832056,0.00629268511237511,0.010720282432940875,0.005784857706472798,-0.0007554212420908204
0.0145385,0.0015577451801854166,0.0032940811574422,0.0073659045001033385,0.0031864587287223156,0.006396836475795014,0.010954017114019799,0.006168523230711337,-0.0006700748479023077
0.0150577,0.0015982000051760336,0.003470176437035973,0.007714641811309556,0.003265496544445673,0.006500807085013667,0.011187649904981622,0.006552638704450618,-0.0005849318457700414
0.0155769,0.0016385254507588069,0.0036453410761016457,0.008061698847612007,0.003343888480399168,0.006604584696886531,0.011421147417871652,0.006937169496089525,-0.0004999999542557511
0.0160962,0.0016787156904423508,0.003819553738204914,0.008407029336706628,0.003421625815695104,0.006708157107568486,0.01165447615809627,0.007322080884671249,-0.0004152867997831828
0.0166154,0.0017187649191024773,0.003992793342179374,0.008750587358602136,0.003498700047670389,0.006811512154979666,0.01188760253063377,0.007707338063682524,-0.00033079991481935926
0.0171346,0.001758667354470206,0.004165039067577072,0.00909232735511109,0.0035751028949478443,0.006914637721228098,0.012120492846257581,0.008092906144740833,-0.00024654673610556994
0.0176538,0.0017984172386102167,0.004336270359996944,0.009432204139132252,0.0036508263003989403,0.007017521734988535,0.012353113327773087,0.00847875016116877,-0.00016253460293801553
0.0181731,0.0018380088393893088,0.0045064669362897495,0.009770172903725246,0.0037258624340062666,0.007120152173836848,0.012585430116269277,0.008864835071455133,-7.877075549799722e-05
0.0186923,0.0018774364519344477,0.0046756087896381165,0.010106189230978658,0.003800203695624058,0.007222517066539355,0.012817409277386355,0.009251125762602699,4.737666768493108e-06
0.0192115,0.0019166944000799785,0.00484367619451031,0.010440209100672962,0.0038738427176350995,0.007324604495296462,0.013049016807600412,0.009637587053362935,8.7983626721955e-05
0.0197308,0.0019557770378036024,0.005010649711486323,0.01077218889874005,0.00394677236750236,0.007426402597940091,0.013280218640526248,0.010024183697358122,0.00017096019105153487
0.02025,0.0019946787506507193,0.005176510191954893,0.011102085425521657,0.004018985750213731,0.007527899570084435,0.013510980653239465,0.010410880386091453,0.0002536605317483808
0.0207692,0.0020333939571467643,0.005341238782679974,0.011429855903829632,0.004090476210618283,0.007629083667229694,0.013741268672618946,0.010797641751845756,0.00033607792753044573
0.0212885,0.002071917110197174,0.005504816930235228,0.011755457986811636,0.004161237335652511,0.007729943206818469,0.013971048481710937,0.011184432370471563,0.00041820576521900627
0.0218077,0.0021102426984746466,0.005667226385305073,0.012078849765626409,0.004231262956455162,0.007830466570244506,0.014200285826115974,0.011571216764065471,0.000500037541067181
0.0223269,0.0021483652477933615,0.00582844920685081,0.012399989776933063,0.004300547150369428,0.007930642204813536,0.014428946420399928,0.011957959403540023,0.0005815668620407475
0.0228462,0.0021862793224698375,0.0059884677661404435,0.012718837010199146,0.004369084242831494,0.008030458625656028,0.014656995954530391,0.012344624711086558,0.0006627874470515743
0.0233654,0.0022239795266701134,0.006147264750640798,0.013035350914832225,0.004436868809144793,0.008129904417591847,0.014884400100339692,0.012731177062532894,0.0007436931281440068
0.0238846,0.0022614605057429383,0.006304823167770626,0.013349491407139815,0.004503895676139545,0.008228968236946988,0.015111124518015768,0.013117580789597823,0.0008242778516345638
0.0244038,0.00229871694753866,0.006461126348513482,0.013661218877122317,0.004570159923717468,0.008327638813322763,0.015337134862622136,0.013503800182044513,0.0009045356792053184
0.0249231,0.0023357435837134924,0.006616157950889239,0.013970494195103687,0.004635656886281702,0.008425904951318015,0.015562396790648242,0.013889799489735075,0.0009844607889513517
0.0254423,0.0023725351910188356,0.006769901963283174,0.014277278718204361,0.004700382154052192,0.008523755532205085,0.01578687596659134,0.014275542924588748,0.0010640474763826766
0.0259615,0.002409086592575308,0.0069223427076317645,0.014581534296660916,0.004764331574266831,0.008621179515560434,0.016010538069571083,0.01466099466244634,0.001143290155381044
0.0264808,0.0024453926591311292,0.007073464842464452,0.014883223279996834,0.00482750125226878,0.008718165940850908,0.016233348799977832,0.015046118844843836,0.0012221833591120398
0.027,0.0024814483103044807,0.007223253365800859,0.015182308523048655,0.004889887552480443,0.00881470392897669,0.016455273886155666,0.01543087958069823,0.0013007217408929012
0.0275192,0.0025172485158094543,0.007371693617903138,0.015478753391851691,0.004951487099264605,0.008910782683772054,0.016676279091120936,0.015815240947908992,0.0013789000750164715
0.0280385,0.002552788296665201,0.007518771283883379,0.0157725217693894,0.005012296777673249,0.009006391493464922,0.01689633021931717,0.01619916699487898,0.0014567132575317317
0.0285577,0.0025880627263878656,0.007664472396166121,0.01606357806121043,0.005072313734084623,0.00910151973209628,0.01711539312340707,0.01658262174195914,0.0015341563069813503
0.0290769,0.0026230669321648924,0.007808783336806126,0.01635188720091718,0.00513153537672913,0.00919615686090035,0.01733343371110236,0.01696556918282183,0.0016112243650967055
0.0295962,0.002657796096011275,0.007951690839661628,0.01663741465552969,0.0051899593761046935,0.009290292429646452,0.017550417952032278,0.017347973285768117,0.001687912697450854
0.0301154,0.0026922454559072896,0.008093181992423319,0.016920126430728512,0.00524758366528231,0.009383916077943382,0.017766311884651664,0.01772979799497459,0.0017642166940699385
0.0306346,0.0027264103069172606,0.008233244238499438,0.01719998907598014,0.005304406440102602,0.009477017536507183,0.017981081623189683,0.01811100723168572,0.001840131870003556
0.0311538,0.0027602860022888664,0.008371865378757495,0.017476969689548403,0.005360426159264275,0.00956958662839315,0.018194693364640215,0.01849156489535784,0.0019156538658546328
0.0316731,0.002793867954532493,0.008509033573123324,0.01775103592339515,0.005415641544305532,0.009661613270192914,0.018407113395795014,0.018871434864760943,0.0019907784482693855
0.0321923,0.002827151636480128,0.008644737342038378,0.018022155987973434,0.005470051579479624,0.009753087473197485,0.01861830810032066,0.019250580999044656,0.0020655015103879593
0.0327115,0.0028601325823232795,0.008778965567776418,0.018290298656916167,0.005523655511525874,0.009843999344527036,0.018828243965880335,0.019628967138774572,0.002139819072256351
0.0332308,0.0028928063886294,0.008911707495620863,0.018555433271623234,0.005576452849337612,0.009934339088228277,0.019036887591301243,0.02000655710694528,0.0022137272812002206
0.03375,0.0029251687153363055,0.009042952734904205,0.018817529745749736,0.005628443363528611,0.01002409700634011,0.019244205693788614,0.020383314709976258,0.00228722241216121
0.0342692,0.0029572152867240777,0.009172691259911008,0.019076558569598112,0.005679627085899655,0.010113263499928346,0.01945016511618701,0.020759203738696972,0.002360300867996377
0.0347885,0.002988941892363967,0.009300913410646084,0.019332490814416584,0.005730004308806975,0.010201829070090282,0.019654732834289687,0.02113418796932745,0.0024329591797413778
0.0353077,0.003020344388043853,0.009427609893469474,0.01958529813660656,0.005779575584434311,0.010289784318930023,0.01985787596419663,0.021508231164460753,0.0025051940068380294
0.0358269,0.0030514186966698565,0.009552771781599858,0.01983495278184149,0.005828341723970348,0.010377119950505564,0.020059561769721856,0.021881297074053806,0.002577002137326897
0.0363462,0.0030821608091437286,0.009676390515488048,0.02008142758909973,0.0058763037966932915,0.010463826771748737,0.020259757669850498,0.022253349436433034,0.002648380488005569
0.0368654,0.0031125667852156744,0.00979845790306215,0.020324695994613902,0.005923463128964309,0.01054989569335922,0.020458431246245978,0.022624351979321285,0.002719326104553293
0.0373846,0.0031426327543123225,0.009918966119845938,0.02056473203573915,0.005969821303131507,0.010635317730673848,0.02065555025080756,0.022994268420892496,0.0027898361616226454
0.0379038,0.003172354916339588,0.010037907708951948,0.020801510354742668,0.006015380156346105,0.010720084004512553,0.020851082613278435,0.023363062470860573,0.002859907962898925
0.0384231,0.003201729542460207,0.010155275580950729,0.021035006202516637,0.006060141779292413,0.010804185742002372,0.021044996448904344,0.023730697831608877,0.002929538941127946
0.0389423,0.0032307529758457336,0.010271063013617673,0.021265195442216667,0.006104108514833151,0.010887614277380948,0.02123726006614262,0.02409713819936666,0.0029987266581129038
0.0394615,0.003259421632402828,0.010385263651558858,0.021492054552827648,0.0061472829565716635,0.010970361052781168,0.021427841974421446,0.02446234726543874,0.0030674688046809697
0.0399808,0.003287732001473668,0.010497871505717326,0.021715560632658754,0.00618966794733254,0.011052417618998563,0.02161671089194897,0.024826288717494552,0.0031357632006202567
0.0405,0.0033156806465103484,0.0106088809527613,0.021935691402769162,0.006231266577562159,0.011133775636243235,0.021803835753571806,0.02518892624092272,0.003203607794587803
0.0410192,0.0033432642057232,0.010718286734355775,0.022152425210325934,0.006272082183650644,0.01121442687487806,0.021989185718682195,0.025550223520257164,0.003271000663989215
0.0415385,0.0033704793927029682,0.010826083956319055,0.022365741031895304,0.0063121183461767524,0.01129436321614495,0.02217273017917303,0.02591014424068077,0.0033379400148306347
0.0420577,0.0033973229970168887,0.010932268087665764,0.022575618476668457,0.00635137888807719,0.011373576652880827,0.022354438767439807,0.02626865208961245,0.003404424181543674
0.0425769,0.0034237918847786863,0.011036834959538026,0.022782037789622865,0.006389867872741926,0.01145205929022496,0.022534281364428373,0.026625710758383367,0.003470451626783986
0.0430962,0.0034498829991925894,0.011139780764026504,0.022984979854619992,0.006427589602037037,0.01152980334631916,0.022712228107727116,0.026981283944008037,0.0035360209412041072
0.0436154,0.0034755933610714296,0.011241102052883013,0.023184426197440135,0.006464548614256684,0.01160680115300231,0.02288824939970229,0.02733533535105578,0.0036011308432011987
0.0441346,0.0035009200693289205,0.011340795736126558,0.02338035898875502,0.0065007496820058555,0.011683045156500545,0.02306231591567471,0.027687828693627816,0.0036657801786403126
0.0446538,0.0035258603014461957,0.011438859080544624,0.02357276104703855,0.006536197810015495,0.011758527918114355,0.023234398612136074,0.028038727697445292,0.003729967920553788
0.0451731,0.003550411313912665,0.01153528970809156,0.023761615841415996,0.006570898232891736,0.011833242114903757,0.023404468735003025,0.02838799610205317,0.003793693168817385
0.0456923,0.0035745704426412483,0.011630085594185885,0.023946907494451705,0.00660485641280096,0.011907180540372639,0.023572497827906717,0.02873559766314478,0.003856955149803746
0.0462115,0.003598335103358035,0.011723245065908267,0.02412862078487529,0.006638078037092501,0.011980336105153214,0.023738457740515657,0.029081496155011675,0.003919753216013753
0.0467308,0.003621702791966401,0.011814766800101876,0.02430674115024601,0.006670569015860796,0.012052701837691492,0.023902320636889327,0.029425655373123142,0.003982086845686337
0.04725,0.003644671084885644,0.011904649821376742,0.024481254689554918,0.00670233547944888,0.01212427088493457,0.02406405900385986,0.029768039136839605,0.004043955642387283
0.0477692,0.0036672376393641825,0.011992893500019728,0.024652148165764172,0.006733383775895066,0.012195036513020462,0.024223645659439026,0.03010861129226385,0.004105359334577567
0.0482885,0.0036894001937673795,0.01207949754981169,0.024819409008282788,0.006763720468324637,0.012264992107971133,0.02438105376124746,0.030447335715233826,0.004166297775161732
0.0488077,0.0037111565678400534,0.012164462025753478,0.024983025315377917,0.006793352332288384,0.012334131176389214,0.024536256814962954,0.030784176314460513,0.0042267709410168134
0.0493269,0.003732504662943739,0.012247787321702414,0.02514298585652054,0.0068222863530497625,0.012402447346158913,0.02468922868278431,0.03111909703481412,0.004286778932502279
0.0498462,0.003753442462268802,0.012329474167921099,0.025299280074664317,0.006850529722822437,0.012469934367151459,0.024839943591907238,0.031452061860761736,0.0043463219729514245
0.0503654,0.0037739680310214987,0.012409523628540408,0.025451898088456135,0.006878089837959975,0.012536586111935349,0.024988376143008445,0.031783034819959366,0.004405400408144653
0.0508846,0.0037940795165861264,0.012487937098938655,0.0256008306943767,0.0069049742960994144,0.012602396576491648,0.02513450131873396,0.03211197998700113,0.004464014705765045
0.0514038,0.003813775148662385,0.012564716303039044,0.025746069368809237,0.006931190893260402,0.012667359880934459,0.02527829449218753,0.03243886148732828,0.00452216545483663
0.0519231,0.0038330532393781023,0.012639863290527572,0.025887606270034346,0.0069567476209015985,0.012731470270236696,0.025419731435414813,0.03276364350130038,0.004579853365145741
0.0524423,0.0038519121833774754,0.012713380433993652,0.026025434240148717,0.006981652662935974,0.012794722114961245,0.025558788327878935,0.03308629026843095,0.004637079266645824
0.0529615,0.0038703504578849967,0.012785270425995775,0.026159546806905312,0.007005914392706581,0.012857109911997533,0.025695441764922902,0.03340676609178962,0.004693844108846055
0.0534808,0.0038883666227452684,0.012855536276054555,0.026289938185472466,0.00702954136992435,0.012918628285303593,0.025829668766214335,0.03372503534257252,0.004750148960184104
0.054,0.0039059593204389493,0.012924181307575508,0.02641660328010933,0.007052542337569373,0.01297927198665369,0.025961446784167824,0.034041062464842564,0.00480599500738335
0.0545192,0.00392312727607511,0.012991209154703885,0.02653953768575493,0.007074926218757119,0.013039035896391677,0.026090753712340178,0.03435481198044121,0.004861383554794862
0.0550385,0.003939869297360313,0.013056623759113848,0.026658737689528037,0.007096702113570991,0.013097915024190188,0.026217567893793915,0.03466624849407292,0.004916316023724439
0.0555577,0.0039561842745447495,0.01312042936673419,0.026774200272134948,0.00711787929586256,0.013155904509815908,0.026341868129423962,0.034975336698563474,0.004970793951745003
0.0560769,0.003972071180345793,0.013182630524412736,0.026885923109181968,0.007138467210020828,0.013212999623901114,0.02646363368624278,0.03528204138029336,0.005024818991994606
0.0565962,0.003987529069849302,0.013243232076521519,0.026993904572389284,0.007158475467711822,0.013269195768721832,0.02658284430561888,0.035586327424806816,0.005078392912460259
0.0571154,0.004002557080389025,0.013302239161504706,0.0270981437307028,0.007177913844589836,0.013324488478982814,0.026699480211463584,0.03588815982259739,0.005131517595247835
0.0576346,0.0040171544314044185,0.013359657208371222,0.027198640351300322,0.007196792276981606,0.013378873422609518,0.02681352211836096,0.03618750367507046,0.005184195035838191
0.0581538,0.004031320424277215,0.013415491933134044,0.027295394900488497,0.0072151208585447026,0.013432346401547203,0.02692495123963566,0.036484324200682955,0.005236427342329733
0.0586731,0.004045054442147085,0.013469749335198084,0.02738840854448694,0.007232909836901388,0.013484903352567182,0.02703374929535362,0.03677858674126042,0.005288216734667602
0.0591923,0.004058355949706813,0.013522435693698681,0.0274776831500961,0.007250169610249122,0.01353654034808023,0.027139898520250474,0.03707025676849139,0.00533956554385969
0.0597115,0.004071224492977459,0.013573557563792735,0.027563221285245656,0.007266910723948923,0.01358725359695709,0.02724338167158306,0.037359299890598635,0.0053904762111797
0.0602308,0.004083659699064094,0.013623121772904645,0.027645026219420353,0.0072831438670926665,0.013637039445355988,0.02734418203689951,0.03764568185918671,0.00544095128735743
0.06075,0.004095661275892769,0.013671135416929266,0.027723101923960443,0.007298879869050403,0.013685894377557005,0.027442283441723593,0.03792936857626493,0.0054909934317564565
0.0612692,0.00410722901192948,0.013717605856394139,0.027797453072233975,0.0073141296959987395,0.013733815016803146,0.027537670257149215,0.03821032610144455,0.005540605411539393
0.0617885,0.00411836277588194,0.013762540712583338,0.027868085039678397,0.007328904447431232,0.013780798126147806,0.027630327407340734,0.03848852065930867,0.005589790100820849
0.0623077,0.004129062516385047,0.013805947863625335,0.027935003903708674,0.007343215352651705,0.013826840609308378,0.027720240376934588,0.03876391864695306,0.005638550479808236
0.0628269,0.004139328261670973,0.013847835440547202,0.027998216443489314,0.00735707376725137,0.013871939511525546,0.027807395218337652,0.03903648664169569,0.005686889633930564
0.0633462,0.004149160119224778,0.013888211823297572,0.028057730139567593,0.007370491169570554,0.013916092020427765,0.027891778558917536,0.039306191408952466,0.005734810752955362
0.0638654,0.004158558275426476,0.013927085636740581,0.028113553173365297,0.007383479157145876,0.013959295466900345,0.02797337760807986,0.0395729999102764,0.005782317130093853
0.0643846,0.004167522995180435,0.013964465746623082,0.028165694426526642,0.007396049443143608,0.014001547325958439,0.0280521801642273,0.03983687931155704,0.005829412161094457
0.0649038,0.004176054621532994,0.014000361255517195,0.028214163480120263,0.007408213852779989,0.01404284521762326,0.028128174621595073,0.040097796991376854,0.005876099343324694
0.0654231,0.004184153575279083,0.014034781498740219,0.02825897061369363,0.007419984319729255,0.014083186907800797,0.028201349976957262,0.04035572054952082,0.0059223822748414945
0.0659423,0.004191820354558695,0.01406773604025377,0.028300126804178333,0.007431372882520065,0.014122570309162311,0.028271695836198155,0.040610617815635394,0.005968264653449929
0.0664615,0.004199055534443961,0.014099234668544052,0.028337643724644992,0.007442391680921075,0.014160993482025994,0.028339202420742608,0.040862456858032706,0.006013750275750278
0.0669808,0.004205859766517644,0.01412928739248496,0.028371533742906484,0.0074530529523163915,0.014198454635239194,0.02840386057383914,0.04111120599263578,0.00605884303617336
0.0675,0.004212233778443814,0.014157904437185792,0.028401809919968303,0.0074633690280716345,0.014234952127060727,0.028465661766689354,0.041356833792060455,0.006103546926003978
0.0680192,0.004218178373531495,0.014185096239825286,0.02842848600832477,0.007473352329891363,0.014270484466042753,0.02852459810441714,0.041599309094829895,0.00614786603239232
0.0685385,0.004223694430292077,0.014210873445473738,0.02845157645009966,0.007483015366168616,0.014305050311911711,0.0285806623318708,0.041838601014717224,0.006191804537353107
0.0690577,0.004228782901991253,0.014235246902904881,0.028471096375029713,0.007492370728327349,0.014338648476447832,0.028633847839251315,0.0420746789502121,0.006235366716752275
0.0695769,0.004233444816196224,0.014258227660399343,0.02848706159828928,0.007501431087158513,0.014371277924362581,0.028684148667559455,0.042307512594106735,0.006278556939280943
0.0700962,0.004237681274318893,0.014279826961541448,0.028499488618154274,0.007510209189150531,0.014402937774173426,0.028731559513854567,0.042537071943196794,0.006321379665416447
0.0706154,0.004241493451155755,0.014300056241011112,0.028508394613503407,0.007518717852814873,0.01443362729907519,0.02877607573631747,0.0427633273080925,0.006363839446370147
0.0711346,0.004244882594425104,0.014318927120372566,0.028513797441154575,0.007526969965007429,0.014463345927807368,0.028817693359109886,0.04298624932313488,0.006405940923021714
0.0716538,0.004247850024302223,0.01433645140386163,0.028515715633033928,0.007534978477246277,0.014492093245516705,0.028856409077022534,0.04320580895641217,0.006447688824839563
0.0721731,0.0042503971329531185,0.01435264107417317,0.028514168393175113,0.007542756402026453,0.014519868994614457,0.028892220259904004,0.04342197751987143,0.006489087968787039
0.0726923,0.004252525384067375,0.014367508288250348,0.02850917559454588,0.007550316809132278,0.014546673075627842,0.028925124956862124,0.043634726679519634,0.006530143258213953
0.0732115,0.0042542363123906374,0.014381065373077198,0.028500757775699114,0.007557672821947828,0.014572505548045223,0.028955121900229534,0.04384402846570895,0.006570859681733016
0.0737308,0.004255531523257227,0.014393324821476004,0.028488936137245215,0.007564837613766127,0.014597366631154515,0.028982210509284873,0.04404985528350043,0.0066112423120806806
0.07425,0.004256412692123335,0.014404299287910876,0.02847373253814264,0.007571824404097735,0.014621256704874295,0.029006390893720826,0.044252179923100154,0.006651296304961928
0.0747692,0.004256881564101227,0.014414001584298905,0.02845516949180356,0.007578646454979436,0.014644176310577097,0.029027663856850155,0.044450975570362,0.0066910268978784574
0.0752885,0.004256939953494878,0.01442244467583025,0.02843327016201167,0.007585317067283821,0.014666126151904251,0.029046030898540527,0.04464621581735076,0.006730439408939768
0.0758077,0.004256589743337402,0.014429641676798464,0.0284080583586494,0.007591849577030622,0.014687107095571665,0.029061494217869053,0.04483787467295944,0.006769539235656578
0.0763269,0.004255832884930642,0.014435605846442313,0.028379558533231788,0.00759825735170071,0.014707120172165881,0.02907405671548747,0.04502592657357424,0.006808331853715999
0.0768462,0.004254671397387262,0.01444035058480024,0.028347795774244743,0.00760455378655374,0.014726166576929755,0.029083721995689104,0.0452103463937807,0.006846822815737906
0.0773654,0.004253107367175669,0.014443889428578601,0.02831279580228532,0.0076107523009504895,0.014744247670536975,0.02909049436816916,0.04539110945710411,0.0068850177500120084
0.0778846,0.004251142947668086,0.014446236047034553,0.02827458496500196,0.00761686633468097,0.014761364979854762,0.029094378849470196,0.04556819154677721,0.006922922359215191
0.0784038,0.004248780358692105,0.014447404237874552,0.028233190231832808,0.0076229093442994585,0.014777520198693965,0.029095381164105157,0.04574156891652806,0.006960542419108755
0.0789231,0.004246021886086066,0.014447407923169354,0.028188639188540313,0.007628894799467631,0.014792715188545781,0.029093507745350626,0.04591121830138075,0.006997883777215248
0.0794423,0.0042428698812586015,0.014446261145286429,0.028140960031540273,0.0076348361793070136,0.014806951979304352,0.02908876573570311,0.04607711692846149,0.007034952351474647
0.0799615,0.004239326760752723,0.014443978062840732,0.028090181562023843,0.007640746968761908,0.014820232769974385,0.02908116298699123,0.046239242527802406,0.007071754128879693
0.0804808,0.004235395005814782,0.014440572946664855,0.028036333179871024,0.007646640654973966,0.01483255992936298,0.029070708060136893,0.046397573343135316,0.007108295164090288
0.081,0.00423107716196869,0.014436060175799587,0.027979444877354705,0.007652530723669572,0.014843935996754697,0.02905741022455879,0.0465520881426675,0.007144581578027018
0.0815192,0.00422637583859569,0.014430454233505906,0.027919547232634675,0.007658430655561122,0.014854363682568959,0.029041279457212056,0.04670276622983125,0.0071806195564440576
0.0820385,0.0042212937085199945,0.01442376970329936,0.027856671403041613,0.007664353922763282,0.0148638458689988,0.0290223264412587,0.0468495874539989,0.0072164153484818834
0.0825577,0.004215833507600536,0.01441602126500776,0.027790849118151443,0.007670313985225264,0.014872385610629991,0.029000562564364077,0.046992532221154515,0.007251975265200376
0.0830769,0.004209998034329062,0.014407223690853075,0.027722112672650744,0.0076763242871801035,0.014879986135039451,0.02897599991661548,0.04713158150451338,0.007287305678092982
0.0835962,0.0042037901494347526,0.014397391841558273,0.027650494918994285,0.007682398253611873,0.014886650843371908,0.02894865128806009,0.04726671685508,0.007322413017582663
0.0841154,0.00419721277549554,0.014386540662479918,0.02757602925985619,0.007688549286741712,0.014892383310893613,0.02891853016586058,0.047397920412135135,0.007357303771500503
0.0846346,0.004190268896556261,0.014374685179767263,0.027498749640376956,0.007694790762533487,0.014897187287521874,0.028885650731067844,0.047525174913642006,0.007391984483547929
0.0851538,0.00418296155775378,0.01436184049654852,0.02741869054020916,0.00770113602721987,0.014901066698329034,0.02885002785501098,0.0476484637065613,0.007426461751743629
0.0856731,0.004175293864949188,0.014348021789144919,0.027335886965365257,0.0077075983938495575,0.014904025644019464,0.02881167709530523,0.0477677707570643,0.007460742226856366
0.0861923,0.004167268984367205,0.014333244303313097,0.027250374439871442,0.007714191138856266,0.014906068401377993,0.02877061469147893,0.04788308066063309,0.007494832610824944
0.0867115,0.0041588901422428435,0.014317523350516257,0.02716218899723198,0.007720927498650186,0.014907199423688202,0.028726857560221235,0.04799437865203648,0.0075287396551665525
0.0872308,0.004150160624475428,0.014300874304224498,0.027071367171708733,0.0077278206662324475,0.014907423341118881,0.028680423290253443,0.04810165061516972,0.007562470159374761
0.08775,0.00414108377629004,0.014283312596244607,0.026977945989420674,0.007734883787833182,0.014906744961077056,0.028631330136828174,0.048204883092746044,0.007596030969308385
0.0882692,0.0041316630019064635,0.014264853713079543,0.026881962959268365,0.007742129959573667,0.01490516926852595,0.028579597015862202,0.04830406329582732,0.007629428975572375
0.0887885,0.004121901764215678,0.014245513192317719,0.026783456063688097,0.00774957222415307,0.01490270142626636,0.028525243497710233,0.048399179113181465,0.007662671111891874
0.0893077,0.00411180358446396,0.014225306619052152,0.026682463749240357,0.007757223567560274,0.014899346775179909,0.02846828980058801,0.04849021912045347,0.00769576435348053
0.0898269,0.004101372041944629,0.014204249622329378,0.02657902491703715,0.00776509691581128,0.014895110834432781,0.028408756783653833,0.04857717258913723,0.0077287157154041445
0.0903462,0.004090610773697423,0.014182357871628026,0.02647317891301255,0.007773205131712711,0.014889999301638458,0.02834666593975773,0.04866002949533537,0.0077615322509406596
0.0908654,0.00407952347421551,0.014159647073366864,0.026364965518040944,0.007781561011651918,0.014884018052978086,0.02828203938786758,0.04873878052829451,0.0077942210499375095
0.0913846,0.004068113895160089,0.014136132967442117,0.026254424937907524,0.007790177282414282,0.014877173143277115,0.028214899865181466,0.048813417098703536,0.007826789237167286
0.0919038,0.004056385845082533,0.014111831323793895,0.0261415977931358,0.007799066598028288,0.014869470806036926,0.028145270718935318,0.04888393134674292,0.007859243970682668
0.0924231,0.004044343189153982,0.014086757939001538,0.026026525108676927,0.007808241536639014,0.014860917453420268,0.028073175897914873,0.04895031614987285,0.007891592440171503
0.0929423,0.004031989848902327,0.014060928632907815,0.02590924830346588,0.007817714597410732,0.014851519676189539,0.027998639943680893,0.04901256513034817,0.00792384186531293
0.0934615,0.004019329801956431,0.01403435924527187,0.025789809179849212,0.007827498197459334,0.014841284243596958,0.027921687981516397,0.04907067266244756,0.007955999494135382
0.0939808,0.004006367081797474,0.01400706563245092,0.02566824991288907,0.007837604668815378,0.014830218103225786,0.027842345711104687,0.049124633879404515,0.007988072601377237
0.0945,0.00399310577751723,0.013979063664110624,0.025544613039548004,0.007848046255418524,0.01481832838078171,0.02776063939694673,0.04917444468002783,0.008020068486850884
0.0950192,0.003979550033583118,0.013950369219963977,0.025418941447758855,0.007858835110144211,0.014805622379833489,0.027676595858526262,0.04922010173499917,0.008051994473810931
0.0955385,0.003965704049609802,0.0139209981865385,0.02529127836538403,0.007869983291863386,0.014792107581501887,0.02759024246023103,0.04926160249283609,0.008083857907327236
0.0960577,0.003951572080137136,0.013890966453971415,0.025161667349068238,0.007881502762536094,0.014777791644095825,0.027501607101038456,0.04929894518551024,0.008115666152663478
0.0965769,0.003937158434414219,0.013860289912832334,0.025030152272988933,0.007893405384339741,0.014762682402694701,0.02741071820397385,0.04933212883371145,0.00814742659366197
0.0970962,0.003922467476189291,0.01382898445097298,0.024896777317508566,0.007905702916832812,0.014746787868675887,0.027317604705349302,0.04936115325175041,0.008179146631135411
0.0976154,0.003907503623505212,0.013797065950403335,0.02476158695773289,0.007918407014154723,0.014730116229186593,0.027222296043791245,0.04938601905209317,0.008210833681266268
0.0981346,0.0038922713485002257,0.013764550284193582,0.024624625951979538,0.007931529222262545,0.014712675846559439,0.027124822149064684,0.049406727649521594,0.00824249517401447
0.0986538,0.0038767751772137296,0.013731453313401153,0.02448593933016097,0.007945080976205188,0.014694475257671251,0.027025213430702143,0.04942328126491427,0.008274138551534088
0.0991731,0.0038610196893967674,0.0136977908840222,0.024345572382085935,0.007959073597435662,0.014675523173244694,0.026923500766445375,0.049435682928642755,0.008305771266599572
0.0996923,0.0038450095183269585,0.0136635788239668,0.024203570645683514,0.007973518291161972,0.014655828477092299,0.026819715490508038,0.04944393648357848,0.008337400781042172
0.1002115,0.0038287493506276053,0.013628832940057147,0.02405997989515389,0.007988426143737218,0.014635400225302528,0.026713889381667605,0.049448046587706615,0.008369034564197008
0.1007308,0.0038122439260907088,0.013593569015048046,0.023914846129049927,0.008003808120089448,0.014614247645367489,0.02660605465119477,0.04944801871634397,0.008400680091361286
0.10125,0.0037954980375036413,0.013557802804668926,0.023768215558293632,0.008019675061191858,0.014592380135251973,0.026496243930628976,0.04944385916395906,0.00843234484226406
0.1017692,0.0037785165304792287,0.013521550034686549,0.02362013459413164,0.008036037681573946,0.014569807262403558,0.026384490259408467,0.04943557504559334,0.00846403629954794
0.1022885,0.0037613043032890185,0.013484826397987577,0.023470649836033617,0.008052906566874258,0.0145465387627036,0.02627082707236339,0.04942317429788317,0.008495761947263038
0.1028077,0.003743866306699533,0.013447647551680033,0.023319808059537584,0.008070292171435381,0.014522584539359005,0.026155288187080687,0.049406665679683597,0.008527529269373434
0.1033269,0.0037262075438113055,0.013410029114212683,0.023167656204046136,0.008088204815941906,0.014497954661734707,0.026037907791149163,0.04938605877229485,0.00855934574827634
0.1038462,0.003708333069900513,0.013371986662511349,0.023014241360577652,0.008106654685102015,0.014472659364126686,0.02591872042929337,0.049361363979293825,0.008591218863334076
0.1043654,0.003690247992263029,0.013333535729131256,0.022859610759476675,0.008125651825373358,0.014446709044475417,0.025797760990404737,0.04933259252597285,0.008623156089418956
0.1048846,0.0036719574700606683,0.013294691799424602,0.02270381175808779,0.008145206142733877,0.014420114263019566,0.02567506469447827,0.049299756458388515,0.008655164895471076
0.1054038,0.0036534667141694187,0.013255470308722699,0.022546891828397447,0.008165327400498162,0.014392885740889738,0.02555066707946312,0.04926286864202366,0.008687252743068979
0.1059231,0.003634780987029414,0.013215886639532288,0.022388898544648293,0.008186025217179906,0.014365034358641969,0.025424603988035196,0.04922194276006523,0.00871942708501313
0.1064423,0.003615905602496412,0.013175956118745776,0.022229879570930644,0.008207309064401007,0.014336571154730613,0.02529691155429993,0.04917699331130089,0.008751695363922063
0.1069615,0.0035968459256945293,0.013135694014865414,0.022069882648755874,0.00822918826484785,0.014307507323920284,0.025167626190433088,0.049128035607637045,0.00878406501084106
0.1074808,0.003577607372869985,0.013095115535241484,0.021908955584616446,0.008251671990275235,0.01427785421563644,0.02503678457326757,0.04907508577124063,0.008816543443863126
0.108,0.003558195411245605,0.013054235823324654,0.02174714623753746,0.008274769259558418,0.014247623332254213,0.024904423630833904,0.049018160731306944,0.008849138066762028
0.1085192,0.0035386155588758065,0.01301306995593265,0.021584502506624387,0.008298488936793642,0.014216826327325138,0.024770580528862024,0.04895727822045559,0.008881856267637067
0.1090385,0.0035188733845017677,0.01297163294053138,0.021421072318611838,0.008322839729447555,0.014185475003741435,0.02463529265725182,0.04889245677075649,0.00891470541756929
0.1095577,0.003498974507406463,0.012929939712530598,0.02125690361541796,0.00834783018655578,0.014153581311837584,0.024498597616519766,0.048823715709387545,0.008947692869288718
0.1100769,0.0034789245972692154,0.012888005132594166,0.02109204434170905,0.008373468696970972,0.014121157347428874,0.024360533204228776,0.04875107515392556,0.008980825955852189
0.1105962,0.0034587293740193934,0.012845843983965008,0.020926542432478858,0.008399763487660588,0.014088215349786676,0.024221137401408247,0.0486745560072716,0.009014111989331358
0.1111154,0.0034383946076888623,0.012803470969804788,0.020760445800646784,0.008426722622054555,0.014054767699550124,0.02408044835897105,0.04859417995221218,0.009047558259510336
0.1116346,0.0034179261182627836,0.012760900710548324,0.020593802324679267,0.008454353998443036,0.014020826916573956,0.02393850438413413,0.04850996944561773,0.009081172032592481
0.1121538,0.003397329775528328,0.012718147741272785,0.020426659836238287,0.008482665348424411,0.01398640565771224,0.023795343926849104,0.04842194771228036,0.009114960549915811
0.1126731,0.00337661149892086,0.012675226509081663,0.020259066107860987,0.008511664235403593,0.01395151671453769,0.023651005566249113,0.048330138738393,0.009148931026676506
0.1131923,0.003355777257367127,0.012632151370503582,0.02009106884067414,0.008541358053140772,0.01391617301099633,0.02350552799711807,0.0482345672646724,0.009183090650659885
0.1137115,0.003334833069124967,0.012588936588905916,0.01992271565214717,0.008571754024350646,0.013880387600997295,0.02335895001638833,0.04813525877912876,0.009217446580978264
0.1142308,0.00331378500161908,0.012545596331923176,0.019754054063887347,0.008602859199352152,0.01384417366593758,0.023211310509672692,0.0480322395094845,0.009252005946814952
0.11475,0.003292639171272375,0.012502144668900065,0.019585131489480677,0.008634680454768739,0.013807544512161466,0.02306264843783648,0.04792553641524452,0.009286775846173607
0.1152692,0.003271401743332431,0.012458595568349103,0.019415995222381927,0.008667224492279194,0.013770513568354369,0.022913002823615403,0.04781517717942049,0.009321763344632117
0.1157885,0.0032500789316926115,0.012414962895422668,0.019246692423857206,0.008700497837419073,0.013733094382870799,0.022762412738284627,0.04770119019991179,0.009356975474100098
0.1163077,0.0032286769987074043,0.01237126040939938,0.019077270110982442,0.0087345068384328,0.013695300620996111,0.022610917288384554,0.047583604580546335,0.009392419231579102
0.1168269,0.0032072022550015504,0.01232750176118474,0.018907775144701086,0.008769257665176508,0.013657146062141768,0.022458555602508617,0.0474624501217858,0.009428101577924532
0.1173462,0.0031856610592725524,0.012283700490826058,0.01873825421794425,0.008804756308071659,0.013618644596973819,0.022305366818158492,0.0473377573111014,0.009464029436608293
0.1178654,0.003164059818086175,0.012239870025041786,0.018568753843816434,0.008841008577109502,0.013579810224474478,0.022151390068672276,0.0472095573130274,0.009500209692481101
0.1183846,0.003142404985664557,0.012196023674765457,0.018399320343849914,0.008878020100906336,0.013540657048936668,0.021996664470231363,0.047077881958900884,0.009536649190533387
0.1189038,0.0031207030636665866,0.012152174632704559,0.018229999836330616,0.008915796325809503,0.013501199276891446,0.021841229108951837,0.04694276373629699,0.009573354734653702
0.1194231,0.003098960600960217,0.012108335970914758,0.01806083822469846,0.008954342515054019,0.013461451213968188,0.02168512302806624,0.04680423577816875,0.009610333086383559
0.1199423,0.0030771841933864503,0.012064520638390013,0.017891881186025107,0.008993663747969685,0.013421427261687498,0.021528385215201517,0.04666233185170103,0.009647590963667733
0.1204615,0.0030553804835147472,0.012020741458669083,0.017723174159572155,0.00903376491923852,0.013381141914186958,0.02137105458975886,0.04651708634688823,0.009685135039599117
0.1209808,0.003033556160389664,0.011977011127458992,0.01755476233543307,0.009074650738202334,0.013340609754880101,0.02121316999040106,0.046368534264845586,0.009722971941157286
0.1215,0.0030117179592685393,0.011933342210276006,0.0173866906432623,0.009116325728220243,0.013299845453049276,0.0210547701626529,0.04621671120586436,0.009761108247940022
0.1220192,0.0029898726613500743,0.011889747140104656,0.01721900374109529,0.009158794226075871,0.013258863760373486,0.020895893746619962,0.04606165335722189,0.009799550490887052
0.1225385,0.0029680270934936384,0.011846238215075336,0.01705174600426308,0.009202060381434016,0.013217679507392601,0.0207365792648311,0.04590339748075766,0.009838305150995381
0.1230577,0.0029461881279291553,0.011802827596161141,0.016884961514405404,0.009246128156346477,0.01317630759990958,0.020576865110209615,0.045741980900227366,0.00987737865802578
0.1235769,0.00292436268195742,0.011759527304894683,0.01671869404858614,0.0092910013248068,0.013134763015332668,0.020416789534178106,0.045577441488447175,0.00991677738920026
0.1240962,0.0029025577176406982,0.011716349221105938,0.016552987068515008,0.009336683472353634,0.013093060798959801,0.020256390634901714,0.04540981765424042,0.009956507667890758
0.1246154,0.0028807802414834455,0.011673305080682421,0.016387883709879418,0.009383177995722379,0.013051216060207508,0.020095706345674376,0.04523914832919931,0.009996575762299474
0.1251346,0.0028590373041030063,0.011630406473353207,0.0162234267717904,0.00943048810254477,0.013009243968786664,0.019934774423452494,0.045065472954273995,0.01003698788413154
0.1256538,0.002837335999890124,0.011587664840498599,0.016059658706346455,0.009478616811095969,0.012967159750827512,0.019773632437540295,0.04488883146620119,0.010077750187260774
0.1261731,0.002815683466659103,0.011545091472987403,0.015896621608319162,0.009527566950088676,0.012924978684956345,0.019612317758431006,0.04470926428378435,0.010118868766389321
0.1266923,0.002794086885287438,0.011502697509043909,0.015734357204964432,0.009577341158513757,0.012882716098326133,0.019450867546807766,0.04452681229403761,0.010160349655701973
0.1272115,0.002772553479344751,0.011460493932146733,0.015572906845963023,0.009627941885526781,0.01284038736260337,0.019289318742708117,0.04434151683820568,0.01020219882751603
0.1277308,0.0027510905147108346,0.011418491568961768,0.015412311493494016,0.00967937139037986,0.012798007889913393,0.01912770805485569,0.04415341969767152,0.010244422190927614
0.12825,0.0027297052991826047,0.011376701087311416,0.015252611712444793,0.009731631742398175,0.012755593128746278,0.018966071950162602,0.043962563079764094,0.010287025590455273
0.1287692,0.0027084051820697634,0.011335132994182318,0.015093847660760946,0.009784724821000542,0.012713158559825369,0.01880444664340591,0.04376898960347827,0.010330014804681901
0.1292885,0.0026871975537789547,0.011293797633773639,0.014936059079939463,0.009838652315763273,0.012670719691940481,0.018642868087081283,0.04357274228511823,0.01037339554489591
0.1298077,0.002666089845386216,0.011252705185588017,0.01477928528566836,0.00989341572652672,0.012628292057747773,0.018481371961436965,0.04337386452387605,0.010417173453732704
0.1303269,0.0026450895281975224,0.011211865662567079,0.01462356515861588,0.00994901636354374,0.012585891209538298,0.018319993664690924,0.04317240008735657,0.010461354103817525
0.1308462,0.0026242041132972494,0.01117128890927347,0.014468937135372237,0.010005455347669388,0.012543532714977304,0.018158768303433923,0.04296839309705935,0.010505942996410816
0.1313654,0.002603441151084384,0.011130984600121267,0.014315439199546835,0.010062733610591009,0.012501232152816316,0.017997730683221146,0.04276188801382813,0.010550945560057222
0.1318846,0.0025828082307963606,0.011090962237656569,0.014163108873023784,0.010120851895097942,0.012459005108580178,0.01783691529935489,0.04255292962327805,0.010596367149239358
0.1324038,0.0025623129800204326,0.011051231150890017,0.014011983207378497,0.010179810755389951,0.012416867170231185,0.01767635632786069,0.04234156302121031,0.010642213043037413
0.1329231,0.0025419630641925284,0.01101180049368296,0.013862098775457979,0.010239610557423423,0.01237483392381239,0.017516087616659144,0.04212783359902387,0.010688488443795621
0.1334423,0.0025217661860835977,0.010972679243188932,0.013713491663127433,0.01030025147929436,0.012332920949072299,0.01735614267693547,0.041911787029133306,0.010735198475796508
0.1339615,0.0025017300852734794,0.01093387619835208,0.013566197461185666,0.010361733511657057,0.012291143815073123,0.01719655467470882,0.041693469250401745,0.010782348183943786
0.1344808,0.002481862537612366,0.010895399978464037,0.013420251257451797,0.010424056458177348,0.012249518075784747,0.017037356422603154,0.04147292645359743,0.010829942532454714
0.135,0.002462171354669964,0.010857259021780809,0.013275687629025635,0.010487219936019223,0.012208059265666713,0.016878580371821446,0.04125020506688225,0.010877986403562604
0.1355192,0.0024426643831724723,0.010819461584201115,0.013132540634724039,0.010551223376363576,0.012166782895240405,0.016720258604324786,0.041025351741340164,0.010926484596230222
0.1360385,0.002423349504427516,0.010782015738007569,0.01299084380769549,0.010616066024957837,0.012125704446653736,0.016562422825218005,0.040798413336553374,0.01097544182487465
0.1365577,0.0024042346337371716,0.010744929370672068,0.01285063014821505,0.010681746942695226,0.0120848393692406,0.01640510435534321,0.04056943690623369,0.011024862718104251
0.1370769,0.0023853277197992202,0.010708210183726658,0.012711932116661773,0.010748265006222377,0.012044203075077338,0.016248334124082595,0.040338469683916425,0.011074751817468184
0.1375962,0.0023666367440967682,0.010671865691701105,0.012574781626680562,0.010815618908574078,0.012003810934538452,0.016092142662371724,0.040105559068723866,0.011125113576218969
0.1381154,0.0023481697202763665,0.0106359032211284,0.012439210038530426,0.010883807159834037,0.011963678271853751,0.01593656009592435,0.0398707526112052,0.011175952358088445
0.1386346,0.0023299346935147735,0.010600329909619248,0.012305248152621032,0.01095282808782056,0.011923820360669038,0.01578161613866969,0.03963409799925959,0.01122727243607743
0.1391538,0.0023119397398744805,0.010565152705006743,0.012172926203239348,0.011022679838796163,0.011884252419612365,0.015627340086402996,0.03939564304414875,0.011279077991259328
0.1396731,0.002294192965648133,0.010530378364562254,0.012042273852468125,0.011093360378200221,0.011844989607867838,0.015473760810650121,0.039155435666605294,0.011331373111597947
0.1401923,0.0022767025066919534,0.010496013454283576,0.011913320184297908,0.011164867491403758,0.011806047020758862,0.01532090675274661,0.03891352388304291,0.011384161790779647
0.1407115,0.0022594765277482685,0.010462064348256405,0.01178609369893419,0.011237198784485541,0.011767439685342673,0.0151688059181318,0.03866995579187389,0.011437447927060017
0.1412308,0.002242523221757221,0.010428537228090121,0.011660622307301267,0.011310351685028643,0.0117291825560179,0.015017485870858263,0.03842477955993976,0.011491235322125112
0.14175,0.0022258508091577444,0.010395438082428883,0.011536933325744268,0.011384323442936654,0.011691290510146864,0.014866973728316787,0.03817804340906012,0.011545527679967273
0.1422692,0.0022094675371778743,0.010362772706538938,0.011415053470930752,0.011459111131268643,0.011653778343694235,0.014717296156176968,0.03792979560270487,0.011600328605775475
0.1427885,0.0021933816791144824,0.010330546701973054,0.011295008854953202,0.011534711647092008,0.011616660766883549,0.014568479363543375,0.0376800844327945,0.011655641604839973
0.1433077,0.002177601533602543,0.010298765476312881,0.011176824980633646,0.011611121712352238,0.011579952399873115,0.014420549098327127,0.037428958206633105,0.01171147008147106
0.1438269,0.0021621354238740586,0.010267434242989992,0.01106052673703154,0.011688337874758543,0.011543667768452661,0.014273530642832712,0.037176465233978384,0.011767817337931627
0.1443462,0.002146991697006799,0.010236558021186329,0.010946138395155968,0.011766356508684333,0.011507821299762034,0.014127448809559727,0.03692265381425267,0.011824686573383173
0.1448654,0.0021321787231630127,0.010206141635814733,0.01083368360388319,0.0118451738160815,0.0114724273180332,0.013982327937219208,0.036667572223899,0.011882080882845078
0.1453846,0.0021177048948182856,0.01017618971758019,0.010723185386080376,0.011924785827407485,0.011437500040356758,0.013838191886964146,0.036411268703885794,0.011940003256167016
0.1459038,0.0021035786259807113,0.010146706703122376,0.010614666134936357,0.012005188402564261,0.011403053572474158,0.01369506403883374,0.03615379144736372,0.01199845657701466
0.1464231,0.0020898083514005305,0.010117696835240012,0.010508147610500135,0.012086377231848518,0.011369101904596841,0.0135529672884108,0.035895188587478,0.012057443621869043
0.1469423,0.0020764025257703784,0.010089164163197521,0.01040365093642774,0.012168347836912476,0.011335658907253576,0.013411924043691622,0.035635508185339386,0.012116967059040206
0.1474615,0.002063369622916275,0.010061112543114382,0.010301196596938001,0.012251095571734916,0.01130273832716727,0.013271956222167598,0.035374798218156776,0.012177029447695826
0.1479808,0.002050718134979482,0.01003354563843753,0.010200804433977704,0.012334615623602097,0.011270353783162686,0.013133085248117652,0.03511310656753422,0.01223763323690567
0.1485,0.002038456571589333,0.010006466920497108,0.010102493644596445,0.012418903014098471,0.011238518762106466,0.01299533205011062,0.03485048100793507,0.012298780764702746
0.1490192,0.0020265934590271402,0.009979879669145835,0.010006282778531545,0.012503952600107174,0.011207246614880935,0.0128587170587165,0.03458696919531563,0.012360474257161967
0.1495385,0.002015137339381268,0.009953786973482204,0.009912189736003165,0.012589759074820463,0.011176550552393142,0.01272326020442553,0.034322618655930504,0.012422715827497412
0.1500577,0.00200409676969345,0.009928191732657675,0.00982023176571976,0.01267631696876045,0.011146443641620644,0.01258898091577394,0.03405747677531167,0.012485507475179234
0.1505769,0.0019934803210964287,0.009903096656767967,0.009730425463093903,0.012763620650810478,0.011116938801695472,0.012455898117675161,0.033791590787422915,0.012548851085071542
0.1510962,0.0019832965779429767,0.00987850426782853,0.009642786768668418,0.012851664329257535,0.011088048800027756,0.012324030229955155,0.03352500776399105,0.012612748426592555
0.1516154,0.001973554136926348,0.009854416900834228,0.009557330966752745,0.012940442052846,0.011059786248470586,0.0121933951660905,0.03325777460401513,0.01267720115289854
0.1521346,0.0019642616061922064,0.009830836704903177,0.009474072684269296,0.01302994771184303,0.011032163599527755,0.012064010332147686,0.03298993802345473,0.012742210800093093
0.1526538,0.001955427604442062,0.009807765644504685,0.009393025889809566,0.013120175039115736,0.011005193142606022,0.011935892625922031,0.03272154454509791,0.012807778786463333
0.1531731,0.0019470607600282517,0.009785205500771185,0.009314203892899638,0.013211117611220268,0.010978887000313691,0.011809058436274484,0.03245264048860972,0.012873906411744627
0.1536923,0.0019391697100404888,0.009763157872893983,0.009237619343474682,0.013302768849502915,0.010953257124807167,0.011683523642664527,0.032183271960761574,0.01294059485641549
0.1542115,0.0019317630993840153,0.009741624179602615,0.0091632842315619,0.01339512202121317,0.010928315294187228,0.011559303614877278,0.03191348484584197,0.013007845181024224
0.1547308,0.0019248495798493866,0.009720605660727534,0.009091209887171384,0.013488170240628676,0.010904073108946625,0.011436413212942809,0.031643324796248734,0.01307565832554885
0.15525,0.0019184378091739133,0.009700103378845798,0.009021406980394178,0.013581906470191826,0.010880541988470629,0.011314866787245642,0.031372837223262846,0.013144035108791858
0.1557692,0.00191253645009479,0.00968011822100938,0.008953885521706827,0.013676323521657747,0.010857733167592086,0.011194678178822285,0.031102067288003913,0.013212976227811278
0.1562885,0.0019071541693939295,0.009660650900555604,0.008888654862481556,0.013771414057253193,0.010835657693202478,0.01107586071984458,0.030831059892566987,0.013282482257389495
0.1568077,0.0019022996369345185,0.009641701958999199,0.0088257236957012,0.01386717059084592,0.010814326420920483,0.010958427234286618,0.030559859671340554,0.013352553649541203
0.1573269,0.001897981524689299,0.009623271768005388,0.008765100056877929,0.013963585489123971,0.010793750011819432,0.010842390038772862,0.03028851098250525,0.0134231907330619
0.1578462,0.0018942085057605765,0.009605360531443329,0.0087067913251747,0.014060650972784236,0.01077393892921504,0.010727760943605058,0.030017057899712665,0.013494393713118297
0.1583654,0.0018909892533919498,0.009587968287519188,0.008650804224728382,0.01415835911772974,0.010754903435514732,0.0106145512539655,0.029745544203943614,0.013566162670881983
0.1588846,0.0018883324399717536,0.009571094910988068,0.008597144826173343,0.014256701856274983,0.010736653589129766,0.010502771771294077,0.029474013375544773,0.01363849756320757
0.1594038,0.0018862467360282018,0.009554740115443923,0.008545818548364288,0.014355670978358735,0.010719199241451332,0.010392432794836516,0.02920250858644258,0.01371139822235665
0.1599231,0.001884740809216204,0.009538903455686563,0.008496830160297023,0.014455258132763523,0.010702550033891594,0.010283544123361209,0.028931072692533057,0.013784864355768681
0.1604423,0.0018838233232958235,0.009523584330164765,0.008450183783225788,0.01455545482834104,0.01068671539499072,0.010176115057042015,0.02865974822624624,0.01385889554587988
0.1609615,0.0018835029371023263,0.009508781983494443,0.00840588289297571,0.014656252435242666,0.010671704537590814,0.010070154399504462,0.028388577389283822,0.013933491249991142
0.1614808,0.0018837883035077649,0.00949449550905075,0.008363930322448889,0.01475764218615424,0.010657526456077631,0.00996567046003282,0.028117602045528628,0.014008650800185854
0.162,0.0018846880683740259,0.009480723851632953,0.008324328264322542,0.014859615177534308,0.010644189923690922,0.009862671055935508,0.02784686371412465,0.014084373403298425
0.1625192,0.0018862108694972755,0.009467465810200814,0.008287078273937657,0.014962162370855124,0.010631703489904235,0.009761163515066295,0.02757640356272639,0.014160658140934186
0.1630385,0.0018883653355437284,0.009454720040681163,0.008252181272376482,0.015065274593845804,0.01062007547787495,0.009661154678498752,0.027306262400916437,0.014237503969541297
0.1635577,0.0018911600849766848,0.009442485058843302,0.00821963754972722,0.015168942541737099,0.010609313981965313,0.009562650903351323,0.027036480673790386,0.0143149097205351
0.1640769,0.0018946037249747893,0.009430759243241755,0.008189446768534274,0.015273156778507276,0.010599426865335321,0.009465658065760371,0.026767098455708238,0.014392874100475345
0.1645962,0.0018987048503414808,0.009419540838224853,0.008161607967432288,0.015377907738128744,0.010590421757608237,0.009370181563998518,0.026498155444211476,0.01447139569129664
0.1651154,0.001903472042405618,0.009408827957007534,0.008136119564962269,0.015483185725815059,0.010582306052609647,0.009276226321735626,0.026229690954104892,0.014550472950592275
0.1656346,0.0019089138679132783,0.009398618584806668,0.008112979363567994,0.015588980919267973,0.010575086906180876,0.009183796791439755,0.025961743911702157,0.01463010421195159
0.1661538,0.0019150388779107322,0.009388910582037138,0.008092184553770882,0.01569528336992425,0.010568771234067681,0.009092896957915509,0.025694352849234006,0.014710287685350874
0.1666731,0.0019218556066186267,0.009379701687566815,0.00807373171852141,0.015802083004201946,0.010563365709885088,0.009003530341977097,0.025427555899417684,0.014791021457597718
0.1671923,0.0019293725702973989,0.009370989522028484,0.008057616837725162,0.01590936962474592,0.010558876763159272,0.008915700004253445,0.025161390790186276,0.014872303492828656
0.1677115,0.0019375982661039523,0.009362771591186763,0.008043835292941505,0.016017132911672255,0.010555310577447382,0.008829408549122663,0.02489589483957625,0.014954131633059801
0.1682308,0.0019465411709396257,0.00935504528935793,0.008032381872252827,0.016125362423811317,0.010552673088536182,0.008744658128773238,0.02463110495077146,0.01503650359879021
0.16875,0.0019562097402894807,0.009347807902880574,0.008023250775302242,0.01623404759994921,0.010550969982720397,0.0086614504473894,0.024367057607301647,0.01511941698965762
0.1692692,0.0019666124070529295,0.009341056613634985,0.008016435618497573,0.01634317776006739,0.010550206695161574,0.008579786765458218,0.024103788868393577,0.01520286928514618
0.1697885,0.0019777575803657218,0.009334788502609196,0.008011929440379368,0.016452742106580275,0.010550388408328254,0.008499667904196108,0.023841334364472853,0.015286857845345761
0.1703077,0.0019896536444133045,0.009329000553509636,0.008009724707150622,0.01656272972557074,0.010551520050518128,0.008421094250092485,0.023579729292814586,0.01537137991176239
0.1708269,0.0020023089572355577,0.009323689656414343,0.008009813318365836,0.016673129588023493,0.01055360629446286,0.008344065759568309,0.02331900841334115,0.015456432608179254
0.1713462,0.002015731849522907,0.00931885261146667,0.008012186612776955,0.016783930551056384,0.01055665155601625,0.008268581963747227,0.023059206044565454,0.01554201294156769
0.1718654,0.0020299306234038226,0.00931448613260746,0.00801683537433375,0.01689512135914985,0.010560659992926389,0.008194641973337021,0.02280035605967808,0.015628117803047552
0.1723846,0.0020449135512237253,0.009310586851343563,0.008023749838336086,0.01700669064537483,0.010565635503692524,0.008122244483618965,0.022542491882776766,0.015714743968896303
0.1729038,0.0020606888743153347,0.009307151320550572,0.008032919697735567,0.017118626932619552,0.010571581726507415,0.008051387779542712,0.02228564648523652,0.015801888101606095
0.1734231,0.0020772648017604975,0.009304176018307627,0.00804433410958395,0.017230918634815715,0.010578502038285968,0.00798206974092432,0.02202985238221866,0.015889546750988102
0.1739423,0.0020946495091435477,0.009301657351762069,0.00805798170162576,0.01734355405816461,0.010586399553781026,0.007914287847745014,0.021775141629316843,0.01597771635532318
0.1744615,0.0021128511372962475,0.009299591661021725,0.008073850579032423,0.017456521402363628,0.010595277124787117,0.007848039185548265,0.021521545819338236,0.016066393242557923
0.1749808,0.0021318777910343447,0.009297975223072498,0.008091928331275254,0.017569808761833706,0.010605137339433015,0.00778332045093277,0.021269096079217602,0.016155573631545038
0.1755,0.0021517375378857758,0.009296804255718952,0.008112202039134564,0.01768340412694813,0.010615982521563854,0.0077201279571388936,0.02101782306706236,0.01624525363332696
0.1760192,0.0021724384068105315,0.009296074921545446,0.00813465828184212,0.017797295385263312,0.010627814730213481,0.007658457639726113,0.02076775696932637,0.0163354292524616
0.1765385,0.0021939883869121824,0.00929578333189535,0.008159283144354084,0.017911470322752195,0.010640635759167728,0.007598305062338953,0.02051892749811035,0.016426096388389155
0.1770577,0.0022163954261410564,0.009295925550865782,0.008186062224751574,0.01802591662504107,0.010654447136619165,0.007539665422558902,0.020271363888586736,0.01651725083683895
0.1775769,0.002239667429989034,0.009296497599315242,0.008214980641765846,0.018140621878650776,0.010669250124913892,0.007482533557839748,0.02002509489654684,0.01660888829127519
0.1780962,0.0022638122601759225,0.009297495458881462,0.00824602304242509,0.018255573572243097,0.010685045720390775,0.007426903951523757,0.019780148796068146,0.016701004344380536
0.1786154,0.002288837733327365,0.009298915076006704,0.008279173609819758,0.01837075909787334,0.010701834653313532,0.007372770738936066,0.01953655337729942,0.016793594489576295
0.1791346,0.0023147516196442117,0.009300752365967675,0.008314416070983327,0.018486165752249865,0.010719617387895949,0.0073201277135546495,0.019294335944361325,0.01688665412257791
0.1796538,0.0023415616415632997,0.009303003216907137,0.008351733704885346,0.01860178073800139,0.010738394122420527,0.007268968333253161,0.019053523313360285,0.01698017854298429
0.1801731,0.002369275472409576,0.009305663493864254,0.008391109350533606,0.018717591164952765,0.010758164789450813,0.007219285726613911,0.01881414181051342,0.017074162955899468
0.1806923,0.0023979007350395133,0.009308729042800635,0.008432525415182248,0.018833584051409894,0.010778929056137714,0.007171072699308195,0.018576217270382823,0.017168602473584947
0.1812115,0.002427445000475789,0.009312195694618946,0.00847596388264265,0.01894974632545443,0.010800686324620007,0.007124321740541171,0.0183397750342176,0.017263492117141056
0.1817308,0.002457915786533195,0.009316059269170937,0.00852140632169388,0.019066064826248823,0.010823435732519298,0.007079025029558412,0.01810483994840252,0.017358826818215625
0.18225,0.00248932055643577,0.009320315579251616,0.008568833894589494,0.01918252630535251,0.010847176153529644,0.007035174442211246,0.017871436363012284,0.017454601420738323
0.1827692,0.0025216667174251246,0.009324960434576288,0.008618227365657464,0.019299117428050194,0.01087190619810195,0.006992761557577932,0.01763958813047067,0.017550810682679118
0.1832885,0.00255496161935994,0.009329989645737087,0.008669567109990011,0.019415824774693537,0.010897624214223224,0.0069517776646377,0.01740931860431384,0.017647449277829484
0.1838077,0.0025892125533066,0.009335399028135672,0.008722833122220056,0.01953263484205795,0.010924328288290737,0.006912213768994617,0.01718065063805715,0.01774451179760506
0.1843269,0.0026244267501209085,0.009341184405888684,0.008778005025380946,0.019649534044716532,0.010952016246080975,0.006874060599648203,0.01695360658416492,0.017841992752868532
0.1848462,0.002660611379020833,0.009347341615702583,0.008835062079846112,0.01976650871643352,0.010980685653813237,0.006837308615807686,0.016728208293122417,0.017939886575771485
0.1853654,0.0026977735461502063,0.00935386651071444,0.008893983192345243,0.01988354511157989,0.011010333819307685,0.006801948013746719,0.016504477112609477,0.018038187621613872
0.1858846,0.002735920293133302,0.009360754964295231,0.008954746925053516,0.020000629406573864,0.011040957793237587,0.006767968733695352,0.016282433886774902,0.01813689017071977
0.1864038,0.0027750585956202085,0.00936800287381216,0.00901733150475041,0.02011774770134904,0.011072554370475407,0.0067353604667660365,0.0160620989556108,0.018235988430327945
0.1869231,0.0028151953618228954,0.00937560616434654,0.009081714832044598,0.020234886020852983,0.011105120091532408,0.006704112661910397,0.015843492154425945,0.01833547653649587
0.1874423,0.0028563374310418806,0.009383560792363826,0.009147874490661387,0.020352030316578906,0.011138651244091404,0.006674214532903453,0.0156266328134172,0.018435348556015734
0.1879615,0.0028984915721833857,0.009391862749332418,0.009215787756789136,0.020469166468133078,0.011173143864632282,0.006645655065352001,0.015411539757337955,0.018535598488341146
0.1884808,0.002941664482266851,0.009400508065287968,0.009285431608481064,0.020586280284840327,0.011208593740149837,0.006618423023723806,0.015198231305262704,0.018636220267523207
0.189,0.00298586278492267,0.00940949281234004,0.009356782735108801,0.02070335750739007,0.011244996409963508,0.006592506958394194,0.014986725270446795,0.018737207764154867
0.1895192,0.0030310930288799825,0.009418813108118035,0.009429817546864002,0.02082038380952506,0.011282347167618506,0.006567895212706643,0.014777038960280488,0.018838554787322555
0.1900385,0.003077361686444356,0.00942846511915346,0.00950451218430428,0.020937344799774937,0.011320641062877827,0.0065445759300439225,0.014569189176336535,0.01894025508656421
0.1905577,0.0031246751519651656,0.009438445064195639,0.009580842527939658,0.021054226023236575,0.01135987290380459,0.00652253706090628,0.01436319221451061,0.019042302353832998
0.1910769,0.003173039740292472,0.009448749217458021,0.00965878420785568,0.021171012963403,0.011400037258934058,0.00650176636999323,0.014159063865253927,0.0191446902254659
0.1915962,0.003222461685223168,0.009459373911792301,0.009738312613369235,0.021287691044042496,0.01144112845953467,0.006482251443285446,0.013956819413897608,0.019247412284156475
0.1921154,0.0032729471379361616,0.00947031554178759,0.009819402902713081,0.02140424563112936,0.011483140601957298,0.006463979695123258,0.013756473641068358,0.01935046206093102
0.1926346,0.003324502165416349,0.00948157056679189,0.009902030012745025,0.021520662034827574,0.011526067550071883,0.006446938375278246,0.013558040823195226,0.019453833037127298
0.1931538,0.003377132748867088,0.00949313551385314,0.009986168668677558,0.02163692551152855,0.011569902937790581,0.006431114576014387,0.013361534733107226,0.019557518646375144
0.1936731,0.003430844782110884,0.009505006980577104,0.010071793393823773,0.021753021265943816,0.011614640171676417,0.006416495239135203,0.013166968640721732,0.019661512276578072
0.1941923,0.0034856440699779765,0.009517181637899356,0.010158878519355263,0.021868934453253434,0.011660272433636452,0.006403067163013313,0.012974355313823585,0.019765807271895034
0.1947115,0.003541536326682498,0.009529656232768734,0.0102473981940677,0.021984650181310704,0.011706792683698333,0.006390817009598809,0.012783707018934975,0.019870396934721323
0.1952308,0.003598527174185868,0.009542427590739687,0.01033732639414968,0.02210015351290376,0.011754193662869061,0.006379731311402877,0.012595035522276149,0.019975274527667522
0.19575,0.0036566221405470727,0.009555492618471158,0.010428636932950352,0.022215429468074397,0.011802467896074774,0.006369796478453043,0.012408352090817079,0.020080433275535388
0.1962692,0.0037158266582594554,0.009568848306129895,0.010521303470741279,0.022330463026494645,0.011851607695180167,0.006360998805216438,0.012223667493420251,0.020185866367289505
0.1967885,0.0037761460625736227,0.009582491729696298,0.010615299524467907,0.022445239129901373,0.011901605162086177,0.006353324477487425,0.012040992002074728,0.020291566958023637
0.1973077,0.0038375855898060674,0.009596420053171172,0.010710598477485872,0.022559742684589375,0.01195245219190439,0.006346759579235919,0.011860335393221682,0.02039752817092078
0.1978269,0.0039001503756330683,0.009610630530681914,0.010807173589277356,0.022673958563963363,0.012004140476206564,0.006341290099412736,0.011681706949171543,0.020503743099205916
0.1983462,0.003963845453369413,0.009625120508486757,0.010904998005142564,0.02278787161114927,0.012056661506347573,0.00633690193870825,0.011505115459612853,0.020610204808090414
0.1988654,0.004028675752231471,0.009639887426875734,0.01100404476586133,0.02290146664166524,0.012110006576860023,0.006333580916260671,0.01133056922321294,0.020716906336706958
0.1993846,0.004094646095584127,0.009654928821967033,0.01110428681731976,0.023014728446152512,0.012164166788918645,0.006331312776310241,0.011158076049310434,0.020823840700033795
0.1999038,0.004161761199171046,0.009670242327397424,0.011205697020096756,0.023127641793166433,0.012219133053872518,0.0063300831947957345,0.010987643259699531,0.020931000890807076
0.2004231,0.004230025669327786,0.00968582567590553,0.011308248159005186,0.023240191432027425,0.012274896096843109,0.006329877785889673,0.010819277690505918,0.021038379881419864
0.2009423,0.004299444001177202,0.009701676700806752,0.011411912952582384,0.023352362095731823,0.012331446460386046,0.0063306821084688596,0.01065298569415411,0.021145970625806434
0.2014615,0.004370020576806592,0.009717793337358827,0.011516664062524724,0.023464138503922177,0.012388774508214448,0.006332481672516974,0.010488773141425906,0.021253766061310388
0.2019808,0.004441759663426025,0.009734173624017066,0.011622474103060975,0.023575505365916558,0.01244687042898156,0.006335261945456145,0.010326645423609584,0.02136175911053504
0.2025,0.004514665411507247,0.00975081570357848,0.011729315650259399,0.023686447383796272,0.012505724240120412,0.006339008358404637,0.010166607454739416,0.02146994268317452
0.2030192,0.00458874185290255,0.009767717824214088,0.011837161251263753,0.02379694925555131,0.012565325791738115,0.006343706312357917,0.010008663673925007,0.021578309677824075
0.2035385,0.004663992898942964,0.009784878340388856,0.011945983433453735,0.023906995678282868,0.012625664770562395,0.0063493411842904844,0.00985281804776997,0.021686852983768285
0.2040577,0.0047404223385150955,0.00980229571366888,0.012055754713525718,0.02401657135146209,0.012686730703937863,0.006355898333175931,0.009699074072879338,0.02179556548274612
0.2045769,0.004818033836115925,0.009819968513415659,0.012166447606490058,0.024125660980244233,0.012748512963869519,0.006363363105922665,0.00954743477845517,0.021904440050692236
0.2050962,0.004896830929884831,0.00983789541736754,0.012278034634581622,0.02423424927883732,0.012811000771111018,0.00637172084322291,0.009397902728979718,0.0220134695594541
0.2056154,0.004976817029612109,0.009856075212108711,0.012390488336080405,0.024342320973924317,0.012874183199295178,0.006380956885312632,0.009250480026985565,0.02212264687848475
0.2061346,0.00505799541472323,0.009874506793426361,0.01250378127403936,0.02444986080813775,0.01293804917910423,0.006391056577640318,0.009105168315912078,0.02223196487651108
0.2066538,0.00514036923223807,0.00989318916655686,0.012617886044916876,0.024556853543585586,0.013002587502477217,0.0064020052764427035,0.0089619687830475,0.022341416423177374
0.2071731,0.005223941494704369,0.009912121446321913,0.012732775287111767,0.02466328396542701,0.013067786826851963,0.006413788354225848,0.008820882162556025,0.022450994390663902
0.2076923,0.005308715078104626,0.009931302857155684,0.01284842168939931,0.024769136885496763,0.013133635679438876,0.00642639120515018,0.008681908738589124,0.022560691655280088
0.2082115,0.0053946927197356664,0.009950732733023982,0.012964797999267781,0.02487439714597645,0.013200122461523916,0.006439799250318399,0.008545048348480426,0.02267050109903179
0.2087308,0.0054818770160600435,0.009970410517236666,0.013081877031155707,0.02497904962311125,0.013267235452797826,0.006453997942965357,0.008410300386023351,0.022780415611162046
0.20925,0.005570270420528443,0.009990335762154643,0.013199631674590784,0.025083079230970355,0.0133349628157087,0.006468972773549299,0.008277663804830691,0.02289042808966461
0.2097692,0.005659875241372209,0.010010508128792943,0.013318034902231787,0.02518647092524948,0.013403292599834886,0.006484709274744026,0.008147137121775278,0.023000531442769572
0.2102885,0.005750693639365128,0.010030927386321586,0.01343705977781503,0.025289209707113763,0.013472212746275141,0.006501193026331685,0.008018718420510829,0.023110718590400536
0.2108077,0.00584272762555361,0.010051593411466159,0.013556679464006951,0.025391280627079352,0.013541711092052959,0.006518409659996014,0.007892405355071993,0.023220982465602998
0.2113269,0.005935979058954508,0.01007250618781018,0.013676867230164319,0.025492668788931905,0.013611775374531978,0.0065363448640159034,0.007768195153552584,0.02333131601594365
0.2118462,0.006030449644219924,0.010093665805001475,0.013797596460003546,0.02559335935368018,0.013682393235839457,0.006554984387859238,0.007646084621860892,0.023441712204880585
0.2123654,0.006126140929268537,0.010115072457864832,0.013918840659180429,0.02569333754354273,0.013753552227294769,0.006574314046676984,0.007526070147550938,0.023552164013104202
0.2128846,0.006223054302883183,0.010136726445423282,0.014040573462781565,0.025792588645965685,0.013825239813839938,0.0065943197256975086,0.007408147703728491,0.02366266443984871
0.2134038,0.006321190992274647,0.010158628169830385,0.014162768642728654,0.025891098017669176,0.013897443378469099,0.006614987384521112,0.007292312853030584,0.023773206504173923
0.2139231,0.006420552060611834,0.010180778135215967,0.014285400115096686,0.025988851088720035,0.01397015022665385,0.006636303061314749,0.007178560751677233,0.02388378324621705
0.2144423,0.006521138404518707,0.010203176946447798,0.014408441947347054,0.02608583336662796,0.014043347590761372,0.006658252876906898,0.007066886153593993,0.023994387728414057
0.2149615,0.006622950751538495,0.010225825307811845,0.014531868365476505,0.026182030440462377,0.01411702263446215,0.006680823038782553,0.0069572834146039405,0.02410501303669015
0.2154808,0.006725989657565805,0.01024872402161376,0.01465565376108284,0.02627742798498688,0.014191162457124108,0.006703999844978335,0.006849746496687636,0.024215652281618743
0.216,0.0068302555042473265,0.010271873986704377,0.014779772698348256,0.02637201176480812,0.014265754098189852,0.006727769687877728,0.006744268972309567,0.024326298599548303
0.2165192,0.006935748496351891,0.01029527619693203,0.014904199920941158,0.026465767638535753,0.01434078454153377,0.0067521190579064375,0.006640844028809545,0.024436945153696498
0.2170385,0.007042468659110635,0.010318931739524513,0.015028910358837353,0.026558681562950045,0.014416240719795737,0.006777034547127891,0.006539464472857512,0.02454758513521112
0.2175577,0.007150415835528154,0.01034284179340349,0.015153879135061474,0.02665073959717372,0.014492109518688328,0.00680250285273893,0.006440122734970235,0.02465821176419729
0.2180769,0.007259589683665707,0.010367007627434236,0.015279081572349508,0.026741927906844366,0.01456837778127454,0.0068285107804657635,0.006342810874088356,0.024768818290710502
0.2185962,0.007369989673897752,0.010391430598613466,0.015404493199733261,0.026832232768283896,0.014645032312213294,0.0068550452478602815,0.0062475205822122865,0.024879397995715032
0.2191154,0.0074816150861434375,0.010416112150198093,0.015530089759047594,0.026921640572661214,0.014722059881970194,0.006882093287496851,0.006154243189095484,0.024989944192007372
0.2196346,0.0075944650070749655,0.010441053809777629,0.015655847211361245,0.02701013783014446,0.01479944723099133,0.006909642050069735,0.006062969666993687,0.025100450225104216
0.2201538,0.007708538327305077,0.010466257187292929,0.015781741743331967,0.02709771117403909,0.014877181073838095,0.006937678807391263,0.005973690635468671,0.02521090947409469
0.2206731,0.007823833738556111,0.010491723973003892,0.015907749773486735,0.027184347364908074,0.014955248103281178,0.00696619095529082,0.005886396366245142,0.025321315352456467
0.2211923,0.007940349730813305,0.010517455935408645,0.016033847958427605,0.02727003329467048,0.015033634994351907,0.006995166016414748,0.005801076788119298,0.025431661308835438
0.2217115,0.008058084589465098,0.0105434549191167,0.016160013198963874,0.02735475599067458,0.015112328408349116,0.007024591642927198,0.00571772149191762,0.025541940827788764
0.2222308,0.008177036392433227,0.010569722842678523,0.01628622264617099,0.02743850261974161,0.01519131499679959,0.007054455619112001,0.005636319735504429,0.025652147430491053
0.22275,0.008297203007295426,0.010596261696373897,0.016412453707376696,0.02752126049217643,0.015270581405370028,0.007084745863875563,0.005556860448836676,0.025762274675403433
0.2232692,0.008418582088403483,0.010623073539961482,0.016538684052074697,0.027603017065741284,0.01535011427772839,0.007115450433150819,0.005479332239064466,0.025872316158905364
0.2237885,0.008541171073999375,0.01065016050039196,0.016664891617766138,0.0276837599495893,0.015429900259352362,0.0071465575222022055,0.005403723395675762,0.025982265515888874
0.2243077,0.00866496718333215,0.01067752476948715,0.01679105461572898,0.027763476908154797,0.015509926001282611,0.007178055467831667,0.005330021895683733,0.02609211642031507
0.2248269,0.008789967413778165,0.010705168601587479,0.016917151536715417,0.02784215586499792,0.01559017816381852,0.007209932750485656,0.005258215408855209,0.026201862585732854
0.2253462,0.008916168537967218,0.010733094311170172,0.017043161156577197,0.027919784906601762,0.01567064342015412,0.007242177996263139,0.005188291302978724,0.026311497765759796
0.2258654,0.009043567100917096,0.010761304270440523,0.017169062541818738,0.02799635228612087,0.015751308459952047,0.007274779978824602,0.005120236649170605,0.026421015754525337
0.2263846,0.009172159417178999,0.01078980090689861,0.017294835055077725,0.028071846427080525,0.015832159992853295,0.007307727621202149,0.005054038227217621,0.02653041038707655
0.2269038,0.009301941567996238,0.010818586700883818,0.01742045836053276,0.028146255927026582,0.015913184751920703,0.007341009997510827,0.004989682530954617,0.026639675539746773
0.2274231,0.009432909398478621,0.010847664183099478,0.017545912429237524,0.028219569561125944,0.015994369497013876,0.007374616334561509,0.004927155773675583,0.026748805130487822
0.2279423,0.009565058514794826,0.010877035932120024,0.017671177544380693,0.02829177628571771,0.01607570101809334,0.00740853601337568,0.004866443893576554,0.026857793119166435
0.2284615,0.009698384281385036,0.010906704571882952,0.017796234306470773,0.028362865241815055,0.0161571661384516,0.007442758570602661,0.004807532559228694,0.026966633507826184
0.2289808,0.009832881818196066,0.010936672769167903,0.017921063638444843,0.028432825758557743,0.01623875171786883,0.007477273699839807,0.0047504071750799,0.027075320340916385
0.2295,0.009968545997941145,0.01096694323106511,0.018045646790700007,0.028501647356615097,0.016320444655690994,0.007512071252856216,0.004695052886983205,0.0271838477054896
0.2300192,0.010105371443386496,0.010997518702435418,0.01816996534604624,0.028569319751538997,0.01640223189382833,0.007547141240720525,0.004641454587750262,0.027292209731369487
0.2305385,0.01024335252466681,0.011028401963364059,0.018294001224579186,0.028635832857066276,0.016484100419672288,0.007582473834833309,0.004589596922728138,0.02740040059129083
0.2310577,0.010382483356631736,0.011059595826610237,0.018417736688471298,0.028701176788369705,0.016566037268929103,0.0076180593678646345,0.0045394642953976464,0.0275084145010135
0.2315769,0.010522757796225454,0.01109110313505458,0.018541154346679536,0.028765341865256602,0.016648029528368247,0.007653888334597287,0.00449104087299142,0.027616245719412114
0.2320962,0.010664169439901443,0.011122926759146407,0.018664237159567713,0.02882831861531377,0.016730064338483966,0.007689951392676245,0.004444310592129935,0.02772388854854325
0.2326154,0.010806711621074503,0.011155069594352715,0.018786968443441444,0.028890097776997452,0.016812128896068177,0.007726239363264988,0.004399257164473699,0.027831337333692
0.2331346,0.010950377407612155,0.011187534558610747,0.01890933187499352,0.028950670302666754,0.016894210456693,0.007762743231609329,0.004355864082389825,0.027938586463399827
0.2336538,0.011095159599367528,0.01122032458978593,0.01903131149565738,0.02901002736155882,0.01697629633710142,0.007799454147509573,0.004314114624631267,0.028045630369475633
0.2341731,0.01124105072575584,0.011253442643136855,0.019152891715866267,0.029068160342703722,0.017058373917504897,0.00783636342570185,0.004273991862026933,0.02815246352699185
0.2346923,0.011388043043376627,0.011286891688788952,0.019274057319215582,0.029125060857776858,0.017140430643786994,0.007873462546149538,0.004235478663180946,0.028259080454267452
0.2352115,0.011536128533683854,0.011320674709218421,0.01939479346652576,0.029180720743886338,0.017222454029612613,0.007910743154245723,0.004198557700179269,0.028365475712839625
0.2357308,0.011685298900706069,0.011354794696747939,0.01951508569980313,0.02923513206629281,0.01730443165844251,0.007948197060927665,0.004163211454301897,0.028471643907425816
0.23625,0.011835545568818733,0.011389254651055577,0.019634919946095963,0.029288287121058708,0.01738635118545311,0.007985816242704348,0.0041294222217387955,0.02857757968587794
0.2367692,0.011986859680570882,0.011424057576698362,0.01975428252124286,0.029340178437623893,0.01746820033936165,0.008023592841598284,0.004097172119307708,0.028683277739130188
0.2372885,0.012139232094568282,0.01145920648065181,0.019873160133510634,0.02939079878130427,0.017549966924156914,0.008061519165002915,0.004066443090171954,0.028788732801141914
0.2378077,0.012292653383415349,0.011494704369866751,0.019991539887118655,0.029440141155709917,0.017631638820735943,0.008099587685457129,0.004037216909556285,0.028893939648836835
0.2383269,0.012447113831718142,0.011530554248844704,0.02010940928564662,0.029488198805078972,0.01771320398844732,0.008137791040338476,0.004009475190458885,0.028998893102039583
0.2388462,0.012602603434150901,0.01156675911723296,0.020226756235322482,0.029534965216523313,0.017794650466541783,0.008176122031476846,0.0039831993893576015,0.02910358802341065
0.2393654,0.012759111893588655,0.011603321967440511,0.020343569048187272,0.029580434122182045,0.01787596637553087,0.008214573624690384,0.0039583708119085214,0.029208019318380546
0.2398846,0.012916628619308522,0.011640245782275826,0.0204598364451333,0.029624599501278763,0.01795713991845443,0.008253138949245528,0.003934970618635122,0.029312181935084013
0.2404038,0.013075142725262388,0.011677533532607465,0.020575547558812152,0.029667455582078606,0.018038159382057783,0.008291811297243133,0.003912979830606315,0.029416070864294867
0.2409231,0.013234643028423544,0.011715188175048385,0.02069069193640874,0.02970899684374115,0.018119013137879527,0.008330584122932675,0.0038923793351017992,0.029519681139361816
0.2414423,0.013395118047209907,0.011753212649664719,0.020805259542277417,0.02974921801806564,0.01819968964325124,0.008369451041956624,0.0038731498912631776,0.029623007836145385
0.2419615,0.013556555999986347,0.011791609877709707,0.020919240760436143,0.029788114091125376,0.01828017744221067,0.00840840583052708,0.003855272135729357,0.02972604607295595
0.2424808,0.013718944803648637,0.011830382759383421,0.021032626396914347,0.029825680304788587,0.01836046516633062,0.008447442424536841,0.0038387265882547476,0.029828791010492493
0.243,0.013882272072291556,0.011869534171618797,0.021145407681950147,0.02986191215812379,0.018440541535466034,0.008486554918607043,0.0038234936573088413,0.02993123785178167
0.2435192,0.014046525115963686,0.011909066965894409,0.02125757627203232,0.029896805408688422,0.018520395358422162,0.008525737565073592,0.0038095536456557943,0.030033381842116538
0.2440385,0.014211690939511641,0.011948983966074389,0.021369124251782314,0.02993035607370019,0.018600015533546895,0.00856498477291451,0.0037968867559127206,0.03013521826899416
0.2445577,0.014377756241516626,0.011989287966275693,0.021480044135671335,0.02996256043109116,0.018679391049250416,0.008604291106620358,0.0037854730960854735,0.030236742462051037
0.2450769,0.014544707413326327,0.012029981728762943,0.02159032886956764,0.029993415020445068,0.018758510984455433,0.008643651285009855,0.0037752926850807803,0.030337949792995353
0.2455962,0.014712530538185307,0.0120710679818709,0.02169997183210874,0.03002291664381869,0.01883736450898127,0.008683060179992702,0.003766325458193674,0.030438835675534796
0.2461154,0.014881211390467134,0.012112549417954562,0.02180896683589335,0.030051062366448004,0.018915940883865095,0.008722512815281643,0.0037585512725692204,0.030539395565298673
0.2466346,0.015050735435011462,0.012154428691366848,0.021917308128487557,0.030077849517340105,0.018994229461623564,0.008762004365055611,0.0037519499126375516,0.03063962495975277
0.2471538,0.015221087826569286,0.0121967084164637,0.022024990393239834,0.03010327568975181,0.019072219686458326,0.008801530152575902,0.0037465010955212512,0.03073951939810533
0.2476731,0.01539225340935946,0.012239391165636422,0.02213200874989916,0.030127338741555997,0.01914990109440884,0.00884108564875711,0.0037421844764141355,0.03083907446120222
0.2481923,0.015564216716739467,0.01228247946737115,0.02223835875503045,0.030150036795496868,0.019227263313455936,0.008880666470694654,0.0037389796539305394,0.030938285771409214
0.2487115,0.015736961970993394,0.012325975804335273,0.022344036402221535,0.03017136823933528,0.019304296063579578,0.00892026838015061,0.003736866175424258,0.03103714899247918
0.2492308,0.01591047308323982,0.012369882611490697,0.02244903812207537,0.030191331725885267,0.01938098915677404,0.008959887281999621,0.0037358235422763424,0.031135659829402102
0.24975,0.016084733653462285,0.012414202274233888,0.02255336078198155,0.030209926172942825,0.019457332497023777,0.008999519222636561,0.0037358312151509936,0.031233814028236107
0.2502692,0.016259726970664978,0.012458937126562616,0.02265700168566088,0.03022715076310795,0.01953331608024299,0.009039160388347593,0.00373686861921882,0.031331607375917725
0.2507885,0.016435436013156102,0.0125040894492694,0.02275995857247697,0.030243004943500747,0.0196089299941819,0.00907880710364625,0.003738915149346721,0.03142903570005011
0.2513077,0.016611843448961317,0.012549661468161666,0.022862229616509144,0.030257488425372635,0.019684164418302598,0.009118455829576122,0.0037419501752536674,0.03152609486866807
0.2518269,0.01678893163636954,0.012595655352308626,0.022963813425381414,0.03027060118361361,0.01975900962362741,0.009158103161981731,0.0037459530466316063,0.031622780789978995
0.2523462,0.01696668262461332,0.012642073212314975,0.02306470903884313,0.030282343456156758,0.019833455972562475,0.00919774582974926,0.0037509030982307194,0.031719089412078585
0.2528654,0.01714507815468584,0.012688917098621477,0.023164915927097497,0.030292715743281212,0.019907493918699243,0.00923738069301878,0.003756779654908228,0.03181501672264054
0.2533846,0.017324099660296535,0.012736188999832566,0.023264433988875097,0.030301718806814853,0.019981114006596447,0.009277004741369613,0.0037635620366399305,0.03191055874857929
0.2539038,0.01750372826896711,0.012783890841071068,0.023363263549249776,0.0303093536692378,0.02005430687154489,0.009316615091980526,0.0037712295634936446,0.03200571155568513
0.2544231,0.017683944803269697,0.012832024482360172,0.023461405357194834,0.030315621612687735,0.020127063239317337,0.009356208987766285,0.003779761560563732,0.032100471248231545
0.2549423,0.017864729782208676,0.012880591717032779,0.023558860582877598,0.03032052417786795,0.02019937392590559,0.009395783795492134,0.003789137362865884,0.032194833968554486
0.2554615,0.01804606342274761,0.01292959427016831,0.023655630814690985,0.03032406316285877,0.0202712298372467,0.009435337003867639,0.0037993363201913703,0.032288795896603856
0.2559808,0.018227925641482578,0.012979033797057022,0.023751718056021335,0.030326240621832853,0.020342621968940194,0.009474866221621267,0.0038103378019199866,0.03238235324946737
0.2565,0.01841029605646309,0.013028911881691833,0.02384712472175322,0.030327058863674653,0.02041354140595817,0.009514369175557025,0.0038221212017909775,0.03247550228086711
0.2570192,0.018593153989161545,0.013079230035287636,0.023941853634513306,0.030326520450504147,0.020483979322350028,0.009553843708594476,0.0038346659426312527,0.032568239280629054
0.2575385,0.01877647846659212,0.013129989694827964,0.024035908020656836,0.030324628196104743,0.02055392698094375,0.009593287777793356,0.003847951481040247,0.03266056057412609
0.2580577,0.01896024822357972,0.0131811922216388,0.024129291506001536,0.030321385164255223,0.020623375733045717,0.009632699452364144,0.0038619573120308123,0.03275246252169529
0.2585769,0.01914444170517962,0.013232838899989354,0.024222008111314322,0.030316794666965675,0.020692317018140984,0.009672076911665868,0.0038766629736255056,0.032843941518030294
0.2590962,0.01932903706924811,0.013284930935719447,0.024314062247556462,0.03031086026261749,0.020760742363596152,0.009711418443192515,0.0038920480514076814,0.03293499399155002
0.2596154,0.019514012189164386,0.013337469454893228,0.024405458710892915,0.030303585754007874,0.020828643384366918,0.009750722440549349,0.003908092183026734,0.033025616403744455
0.2601346,0.019699344656703827,0.013390455502478924,0.024496202677471608,0.030294975186299568,0.020896011782712245,0.009789987401420397,0.003924775062656854,0.03311580524849864
0.2606538,0.019885011785062544,0.013443890041054242,0.024586299697978185,0.030285032844876596,0.02096283934791715,0.009829211925528355,0.00394207644540863,0.03320555705139536
0.2611731,0.02007099061203297,0.013497773949537195,0.024675755691971814,0.03027376325310699,0.021029117956025876,0.00986839471258805,0.003959976151692839,0.03329486836899713
0.2616923,0.02025725790333013,0.013552108021942075,0.024764576942007503,0.030261171170013337,0.021094839569587142,0.00990753456025459,0.00397845407153578,0.03338373578810811
0.2622115,0.020443790156068103,0.013606892966160331,0.024852770087550293,0.030247261587851935,0.021159996237412968,0.009946630362067242,0.003997490168845573,0.033472155925016206
0.2627308,0.020630563602386087,0.013662129402766126,0.02494034211868651,0.03023203972960132,0.02122458009435249,0.00998568110539007,0.004017064485628856,0.033560125424715835
0.26325,0.02081755421322341,0.013717817863846501,0.02502730036963702,0.030215511046360884,0.021288583361082088,0.010024685869350321,0.004037157146157351,0.03364764096011158
0.2637692,0.02100473770224287,0.013773958791856018,0.025113652512077513,0.030197681214660144,0.02135199834391308,0.01006364382277549,0.0040577483610838155,0.033734699231202904
0.2642885,0.02119208952990165,0.013830552538495959,0.025199406548270575,0.030178556133679143,0.021414817434618153,0.01010255422212997,0.004078818431506834,0.03382129696424993
0.2648077,0.021379584907669148,0.013887599363618183,0.02528457080401443,0.030158141922380227,0.021477033110277672,0.010141416409452103,0.004100347752983991,0.03390743091092028
0.2653269,0.021567198802391,0.013945099434153813,0.02536915392141308,0.03013644491655126,0.02153863793314687,0.010180229810292441,0.004122316819492893,0.03399309784741658
0.2658462,0.02175490594079857,0.014003052823067073,0.025453164851472736,0.030113471665760214,0.021599624550545,0.010218993931653955,0.004144706227339577,0.03407829457358459
0.2663654,0.021942680814163087,0.014061459508334529,0.025536612846529194,0.030089228930221132,0.021659985694767243,0.010257708359934952,0.0041674966790138,0.03416301791200153
0.2668846,0.02213049768309358,0.014120319371950046,0.025619507452510827,0.030063723677571923,0.02171971418302042,0.010296372758875533,0.004190668986990778,0.03424726470704459
0.2674038,0.022318330582477865,0.014179632198955695,0.025701858501041883,0.030036963079564754,0.021778802917383232,0.0103349868675085,0.004214204077478986,0.034331031823939824
0.2679231,0.022506153326565546,0.014239397676498832,0.025783676101390755,0.030008954508670586,0.021837244884792037,0.010373550498115754,0.0042380829941137494,0.03441431614779173
0.2684423,0.022693939514192147,0.014299615392915535,0.02586497063226804,0.029979705534599797,0.02189503315705316,0.010412063534191265,0.0042622869015964465,0.03449711458259437
0.2689615,0.022881662534143227,0.01436028483684059,0.025945752733479464,0.02994922392074148,0.021952160890882876,0.010450525928411721,0.00428679708927924,0.034579424050224766
0.2694808,0.023069295570657403,0.014421405396344202,0.026026033297438904,0.02991751762052401,0.022008621327976145,0.01048893770061594,0.004311594974695289,0.03466124148941958
0.27,0.023256811609066997,0.014482976358095607,0.026105823460546896,0.029884594773699976,0.02206440779510514,0.010527298935794101,0.004336662107034418,0.03474256385473588
0.2705192,0.023444183441575048,0.01454499690655367,0.02618513459444011,0.02985046370255846,0.022119513704248608,0.010565609782087782,0.004361980170564233,0.03482338811549693
0.2710385,0.023631383673167247,0.014607466123184481,0.02626397829711733,0.02981513290806783,0.022173932552752927,0.010603870448801758,0.004387530987996696,0.034903711254723635
0.2715577,0.02381838472765735,0.014670382985705882,0.026342366383947532,0.029778611065952514,0.022227657923525716,0.010642081204428446,0.00441329652380015,0.03498353026805274
0.2720769,0.02400515885386466,0.01473374636735869,0.026420310878565535,0.02974090702270711,0.0222806834852629,0.010680242374685836,0.004439258887456846,0.035062842162642244
0.2725962,0.02419167813192187,0.014797555036204323,0.02649782400366071,0.029702029791551576,0.022333002992709898,0.0107183543405697,0.0044654003366659855,0.03514164395606503
0.2731154,0.024377914479711483,0.014861807654448405,0.02657491817166425,0.029661988548331096,0.022384610286957613,0.0107564175364208,0.004491703280492274,0.035219932675191676
0.2736346,0.024563839659429005,0.014926502777789822,0.026651605975340435,0.029620792627364296,0.022435499295773584,0.010794432448007754,0.004518150282459989,0.03529770535506369
0.2741538,0.024749425284270994,0.014991638854794714,0.026727900178287342,0.029578451517243365,0.022485664033968747,0.010832399610626165,0.004544724063592532,0.03537495903775886
0.2746731,0.024934642825245927,0.015057214226294843,0.026803813705352543,0.029534974856589517,0.022535098603800017,0.010870319607214556,0.0045714075053974205,0.03545169077125032
0.2751923,0.02511946361810592,0.015123227124809789,0.026879359632969283,0.029490372429767122,0.02258379719540889,0.010908193066487552,0.004598183652796621,0.035527897608261236
0.2757115,0.02530385887039728,0.015189675673992499,0.026954551179418834,0.029444654162559744,0.02263175408729617,0.010946020661086681,0.004625035717002137,0.03560357660511664
0.2762308,0.025487799668627936,0.015256557888097684,0.027029401695024585,0.029397830117811424,0.022678963646832813,0.01098380310574916,0.004651947078336725,0.03567872482059411
0.27675,0.025671256985549725,0.01532387167147257,0.02710392465228361,0.02934991049103651,0.02272542033080684,0.01102154115549484,0.004678901288999611,0.035753339314774535
0.2772692,0.025854201687553452,0.01539161481806946,0.02717813363594141,0.029300905606001442,0.022771118686006054,0.011059235603831496,0.004705882075777044,0.035827417147894385
0.2777885,0.026036604542174505,0.01545978501097955,0.027252042333015425,0.029250825910281966,0.022816053349836343,0.01109688728097851,0.004732873342697526,0.03590095537920042
0.2783077,0.026218436225706757,0.015528379821987367,0.027325664522773036,0.029199681970799234,0.022860219050975256,0.011134497052109005,0.004759859173631569,0.0359739510658077
0.2788269,0.02639966733092226,0.015597396711145154,0.02739901406666964,0.02914748446933832,0.022903610610060608,0.01117206581561037,0.004786823834835837,0.03604640126156165
0.2793462,0.02658026837489401,0.015666833026366494,0.02747210489825224,0.029094244198052614,0.022946222940413787,0.011209594501363185,0.004813751777441497,0.03611830301590492
0.2798654,0.026760209806918966,0.015736686003038403,0.027544951013034006,0.029039972054957577,0.02298805104879741,0.01124708406903858,0.004840627639886636,0.03618965337274956
0.2803846,0.026939462016538386,0.015806952763651228,0.027617566458345368,0.02898467903941719,0.02302909003620692,0.011284535506414109,0.004867436250292529,0.03626044936935552
0.2809038,0.027117995341652316,0.015877630317445702,0.02768996532316707,0.028928376247626623,0.023069335098695885,0.01132194982770841,0.004894162628783603,0.03633068803521604
0.2814231,0.027295780076725024,0.015948715560076633,0.027762161727950724,0.028871074868094437,0.023108781528234524,0.011359328071934927,0.004920791989750901,0.03640036639095082
0.2819423,0.027472786481078336,0.01602020527329277,0.02783416981443244,0.028812786177127948,0.023147424713601206,0.011396671301274974,0.004947309744058924,0.0364694814472074
0.2824615,0.027648984787269668,0.01609209612463245,0.0279060037354451,0.028753521534325217,0.023185260141306435,0.011433980599470489,0.004973701501195752,0.03653803020357121
0.2829808,0.027824345209551807,0.016164384667134685,0.02797767764473479,0.028693292378077315,0.02322228339654886,0.01147125707023671,0.004999953071366391,0.0366060096474842
0.2835,0.027998837952411555,0.01623706733906532,0.028049205686786847,0.02863211022108444,0.023258490164202627,0.011508501835694998,0.005026050467529386,0.03667341675317196
0.2840192,0.028172433219184456,0.01631014046365796,0.028120601986666816,0.02856998664588942,0.02329387622983551,0.011545716034825982,0.005051979907376751,0.03674024848057873
0.2845385,0.028345101220743036,0.016383600248869454,0.028191880639881494,0.028506933300431903,0.023328437480757122,0.011582900821943203,0.005077727815257327,0.036806501774309636
0.2850577,0.02851681218425584,0.01645744278714987,0.028263055702264995,0.028442961893626627,0.02336216990709673,0.011620057365187408,0.00510328082404369,0.036872173562579165
0.2855769,0.028687536362014633,0.01653166405522721,0.028334141179894645,0.028378084190968732,0.023395069602909893,0.011657186845041701,0.0051286257769427405,0.03693726075616476
0.2860962,0.028857244040327055,0.016606259913907205,0.02840515101904121,0.028312312010168976,0.02342713276731347,0.011694290452867774,0.005153749729250083,0.03700176024736427
0.2866154,0.029025905548471793,0.016681226107888678,0.028476099096157996,0.028245657216821443,0.023458355705648408,0.011731369389463458,0.005178639950048303,0.03706566890895589
0.2871346,0.029193491267713305,0.016756558265595037,0.02854699920791316,0.02817813172010615,0.023488734830669766,0.011768424863641864,0.0052032839238492475,0.03712898359315957
0.2876538,0.029359971640372705,0.016832251899022512,0.02861786506126955,0.028109747468528658,0.023518266663763384,0.011805458090832334,0.0052276693521804566,0.037191701130598505
0.2881731,0.02952531717895153,0.016908302403605812,0.02868871026361643,0.02804051644569863,0.023546947836188475,0.011842470291703466,0.005251784155115885,0.03725381832925981
0.2886923,0.02968949847530469,0.016984705058102033,0.02875954831295743,0.02797045066614909,0.023574775090345335,0.011879462690808362,0.005275616472751108,0.037315331973453165
0.2892115,0.029852486209858982,0.01706145502449386,0.028830392588159257,0.027899562171197947,0.023601745281067187,0.01191643651525228,0.005299154666623195,0.037376238822766375
0.2897308,0.030014251160873376,0.017138547347913386,0.028901256339265585,0.02782786302485331,0.02362785537693502,0.011953392993382845,0.00532238732107549,0.037436535611016515
0.29025,0.030174764213737264,0.01721597695658817,0.02897215267788073,0.027755365309764066,0.02365310246161411,0.011990333353503066,0.005345303244567514,0.03749621904519573
0.2907692,0.03033399637030268,0.01729373866181155,0.029043094567627745,0.02768208112321722,0.023677483735210732,0.012027258822607302,0.005367891470930347,0.03755528580441064
0.2912885,0.0304919187582464,0.017371827157939296,0.029114094814685385,0.02760802257318362,0.023700996515647433,0.012064170625140352,0.005390141260567831,0.03761373253881469
0.2918077,0.03064850264045769,0.017450237022415167,0.029185166058408426,0.0275332017744137,0.023723638240055203,0.012101069981779846,0.005412042101604043,0.037671555868533116
0.2923269,0.030803719424447252,0.01752896271582789,0.029256320762035704,0.027457630844584996,0.023745406466180664,0.012137958108242084,0.0054335837109775065,0.037728752382580256
0.2928462,0.030957540671772647,0.017607998582002276,0.02932757120349015,0.02738132190050335,0.02376629887380656,0.012174836214111555,0.005454756035482645,0.037785318637769384
0.2933654,0.03110993810747525,0.01768733884812717,0.029398929466275057,0.02730428705435959,0.023786313266183558,0.0122117055016943,0.005475549252758953,0.03784125115761573
0.2938846,0.031260883629523596,0.017766977624922766,0.029470407430470937,0.027226538410043705,0.023805447571471582,0.012248567164895413,0.005495953772228372,0.03789654643123419
0.2944038,0.03141034931825775,0.01784690890684995,0.029542016763837265,0.02714808805951833,0.023823699844188775,0.012285422388120996,0.005515960235981333,0.03795120091223393
0.2949231,0.0315583074458291,0.017927126572364168,0.02961376891302354,0.027068948079253405,0.023841068266666373,0.012322272345204941,0.005535559519611903,0.03800521101761282
0.2954423,0.03170473048562982,0.01800762438421624,0.029685675094894087,0.026989130526723724,0.02385755115050808,0.0123591181983609,0.005554742733002396,0.03805857312665501
0.2959615,0.03184959112170641,0.018088395989802566,0.029757746287970965,0.026908647436970853,0.023873146938052564,0.012395961097159854,0.005573501221057796,0.0381112835798355
0.2964808,0.031992862258151386,0.01816943492156713,0.029829993223999388,0.026827510819230873,0.023887854203838092,0.012432802177533685,0.005591826564390298,0.03816333867773553
0.297,0.0321345170284677,0.018250734597457553,0.029902426379639913,0.026745732653629156,0.023901671656068314,0.012469642560804996,0.005609710579954212,0.038214734679972835
0.2975192,0.032274528804900435,0.018332288321437424,0.02997505596829161,0.026663324887943256,0.023914598138078214,0.012506483352743422,0.0056271453216314715,0.03826546780415063
0.2980385,0.03241287120773068,0.018414089284056898,0.030047891932050354,0.026580299434434882,0.023926632629799154,0.012543325642648578,0.0056441230807679965,0.0383155342248293
0.2985577,0.03254951811452672,0.018496130563083527,0.03012094393380612,0.02649666816675156,0.023937774249221794,0.012580170502459742,0.0056606363866611555,0.038364930072524436
0.2990769,0.032684443669347786,0.018578405124195004,0.030194221349483078,0.02641244291689868,0.023948022253855603,0.012617018985892377,0.005676678006998643,0.038413651432734966
0.2995962,0.032817622291896095,0.01866090582173545,0.03026773326042598,0.026327635472282257,0.02395737604218347,0.012653872127601483,0.005692240948249113,0.038461694345004876
0.3001154,0.0329490286866127,0.018743625399536643,0.030341488445936288,0.026242257572822798,0.023965835155109843,0.012690730942371834,0.00570731845600496,0.038509054802022324
0.3006346,0.03307863785171286,0.01882655649180554,0.030415495375961197,0.026156320908140376,0.023973399277400758,0.012727596424335125,0.005721904015277657,0.03855572874875977
0.3011538,0.03320642508815653,0.01890969162407913,0.03048976220393884,0.026069837114810975,0.023980068239114055,0.012764469546214068,0.005735991350746089,0.03860171208165882
0.3016731,0.03333236600854934,0.018993023214247732,0.03056429675980265,0.02598281777369399,0.023985842017017953,0.012801351258593453,0.00574957442695829,0.03864700064786347
0.3021923,0.03345643654596933,0.019076543573647475,0.030639106543148015,0.02589527440733084,0.02399072073599627,0.01283824248921817,0.005762647448487018,0.038691590244505254
0.3027115,0.033578612962714444,0.019160244908222802,0.03071419871656425,0.025807218477414486,0.023994704670438335,0.012875144142318162,0.005775204860039573,0.038735476618043746
0.3032308,0.033698871858965626,0.019244119319759456,0.030789580099134548,0.025718661382329883,0.023997794245611697,0.012912057097960348,0.005787241346522289,0.038778655463665525
0.30375,0.033817190181360465,0.01932815880718851,0.030865257160106727,0.025629614454765394,0.023999990039015696,0.0129489822114275,0.005798751833060046,0.03882112242474431
0.3042692,0.03393354523147202,0.019412355267961704,0.030941236012737218,0.025540088959395597,0.024001292781713944,0.012985920312624268,0.0058097314849712076,0.03886287309236503
0.3047885,0.03404791467418756,0.019496700499498316,0.03101752240831075,0.02545009609063602,0.02400170335964377,0.013022872205510436,0.005820175707698334,0.03890390300491399
0.3053077,0.034160276545981784,0.019581186200703694,0.03109412173033806,0.02535964697047064,0.02400122281490071,0.013059838667561576,0.005830080146695018,0.03894420764773731
0.3058269,0.03427060926307909,0.019665803973559524,0.031171038988934002,0.02526875264635308,0.023999852346996288,0.01309682044925724,0.005839440687269169,0.03898378245286974
0.3063462,0.03437889162949927,0.019750545324785925,0.031248278815378512,0.025177424089182592,0.023997593314087438,0.01313381827359685,0.005848253454383084,0.03902262279883559
0.3068654,0.03448510284498085,0.019835401667575317,0.03132584545686306,0.02508567219135606,0.023994447234175962,0.013170832835643463,0.005856514812410571,0.03906072401052368
0.3073846,0.03458922251277611,0.019920364323398127,0.03140374277142528,0.024993507764897293,0.02399041578627668,0.013207864802095551,0.005864221364851385,0.039098081359138316
0.3079038,0.03469123064731165,0.020005424523880395,0.031481974223074916,0.02490094153966495,0.023985500811552995,0.013244914810886995,0.00587136995400323,0.039134690062227806
0.3084231,0.03479110768170838,0.02009057341275336,0.03156054287711415,0.0248079841616404,0.023979704314418655,0.013281983470815415,0.0058779576605914935,0.03917054528379227
0.3089423,0.034888834475154284,0.020175802047875054,0.031639451395655924,0.024714646191296874,0.023973028463604527,0.01331907136119892,0.005883981803356927,0.03920564213447253
0.3094615,0.034984392320123875,0.020261101403323958,0.03171870203334367,0.024620938102051165,0.02396547559318915,0.013356179031561331,0.005889439938601456,0.0392399756718216
0.3099808,0.035077762949438006,0.020346462371564667,0.03179829663327601,0.024526870278799084,0.02395704820359179,0.013393307001345845,0.005894329859692332,0.039273540900660216
0.3105,0.035168928543158166,0.02043187576568555,0.03187823662313985,0.024432453016535714,0.023947748962526747,0.013430455759657041,0.005898649596524884,0.039306332773517715
0.3110192,0.03525787173530945,0.020517332321708277,0.03195852301155514,0.02433769651906126,0.02393758070591755,0.013467625765031133,0.005902397414944158,0.039338346191159515
0.3115385,0.03534457562042664,0.020602822700969116,0.032039156384634414,0.02424261089777325,0.023926546438769833,0.01350481744523429,0.005905571816125755,0.03936957600320233
0.3120577,0.03542902375991808,0.020688337492571714,0.03212013690275977,0.02414720617054557,0.023914649336001667,0.01354203119708894,0.00590817153591622,0.03940001700881844
0.3125769,0.03551120018824211,0.02077386721591122,0.03220146429758008,0.024051492260694585,0.023901892743230117,0.013579267386327996,0.005910195544133318,0.03942966395753036
0.3130962,0.035591089418890436,0.020859402323269337,0.032283137869230795,0.02395547899603249,0.023888280177513054,0.013616526347477051,0.005911643043826546,0.03945851155009731
0.3136154,0.03566867645017292,0.020944933202479997,0.032365156483778836,0.02385917610800793,0.023873815328045084,0.013653808383764642,0.00591251347049822,0.03948655443949508
0.3141346,0.03574394677079824,0.021030450179665216,0.03244751857089503,0.02376259323093357,0.023858502056806792,0.013691113767060758,0.00591280649128551,0.039513787231990595
0.3146538,0.0358168863652445,0.021115943522040624,0.032530222121756755,0.023665739901300407,0.023842344399166385,0.0137284427378437,0.0059125220041038136,0.0395402044883126
0.3151731,0.035887481718914364,0.021201403440790145,0.03261326468718384,0.023568625557178213,0.023825346564433022,0.013765795505195468,0.005911660136751936,0.0395658007249196
0.3156923,0.035955719823069145,0.021286820094009267,0.0326966433760108,0.02347125953770149,0.023807512936361443,0.013803172246825885,0.005910221245979566,0.03959057041536595
0.3162115,0.036021588179536684,0.021372183589716234,0.03278035485369892,0.023373651082640008,0.023788848073607698,0.013840573109125625,0.005908205916517549,0.03961450799176697
0.3167308,0.0360850748051882,0.021457483988930423,0.03286439534119155,0.02327580933205297,0.023769356710135997,0.013877998207248395,0.0059056149600714754,0.039637607846363714
0.31725,0.036146168236179374,0.021542711308817047,0.03294876061401609,0.02317774332602556,0.023749043755576914,0.013915447625222475,0.005902449414279022,0.03965986433318775
0.3177692,0.03620485753195115,0.02162785552589721,0.03303344600163601,0.02307946200448663,0.02372791429553714,0.013952921416091875,0.005898710541631514,0.03968127176982628
0.3182885,0.036261132278986,0.02171290657932215,0.03311844638705612,0.022980974207106035,0.023705973591860982,0.013990419602087271,0.00589439982836014,0.039701824439287624
0.3188077,0.0363149825943152,0.02179785437421047,0.03320375620668414,0.022882288673270232,0.023683227082843775,0.01402794217482708,0.005889518983287271,0.039721516591966974
0.3193269,0.036366399128773055,0.021882688785046726,0.03328936945045162,0.022783414042134707,0.023659680383397236,0.014065489095548873,0.0058840699366433285,0.0397403424477122
0.3198462,0.036415373069994136,0.021967399659139943,0.03337527966219692,0.02268435885275194,0.02363533928516684,0.014103060295371492,0.0058780548388496666,0.03975829619798917
0.3203654,0.03646189614514986,0.022051976820140266,0.03346147994031292,0.022585131544273645,0.02361020975660122,0.014140655675588169,0.005871476059267953,0.03977537200814602
0.3208846,0.03650596062342127,0.022136410071611972,0.0335479629386616,0.02248574045622629,0.023584297942973436,0.01417827510799097,0.005864336184916675,0.039791564019775356
0.3214038,0.03654755931820532,0.022220689200661038,0.033634720867757754,0.022386193828858807,0.023557610166353972,0.014215918435226859,0.005856638019155436,0.03980686635317353
0.3219231,0.036586685589052224,0.02230480398161546,0.033721745496223546,0.022286499803561663,0.023530152925535126,0.01425358547118566,0.005848384580337843,0.03982127310989554
0.3224423,0.03662333334333204,0.022388744179756413,0.03380902815251546,0.02218666642335633,0.023501932895906342,0.014291276001420097,0.005839579100433824,0.03983477837540438
0.3229615,0.03665749703762839,0.022472499555098488,0.033896559726924874,0.022086701633454373,0.023472956929279983,0.014328989783598088,0.0058302250236222574,0.039847376221813245
0.3234808,0.036689171678857754,0.022556059866217143,0.03398433067385348,0.02198661328188528,0.023443232053667107,0.014366726547987452,0.005820326004854752,0.03985906071071924
0.324,0.03671835282511244,0.022639414874121595,0.03407233101436458,0.02188640912019229,0.023412765473002813,0.014404485997973067,0.005809885908391411,0.039869825896127115
0.3245192,0.036745036586225424,0.022722554346171406,0.034160550339011116,0.02178609680419543,0.023381564566820848,0.014442267810606594,0.005798908806309414,0.03987966582746149
0.3250385,0.03676921962405568,0.022805468060035052,0.03424897781094127,0.02168568389482104,0.023349636889877363,0.014480071637188832,0.005787398976985202,0.039888574552666235
0.3255577,0.036790899152492916,0.02288814580768866,0.03433760216928233,0.021585177858997003,0.023316990171723756,0.014517897103884838,0.005775360903551036,0.03989654612138919
0.3260769,0.036810072937181436,0.02297057739945333,0.034426411732803266,0.021484586070613085,0.023283632316228993,0.014555743812371893,0.005762799272326745,0.039903574588250466
0.3265962,0.03682673929496397,0.02305275266806919,0.034515394403856384,0.021383915811545768,0.02324957140105195,0.014593611340520464,0.005749718971227391,0.0399096540161921
0.3271154,0.03684089709304706,0.023134661472804477,0.03460453767259814,0.021283174272746865,0.023214815677064588,0.014631499243108291,0.005736125088147675,0.03991477847990665
0.3276346,0.03685254574789121,0.023216293703597762,0.03469382862148899,0.02118236855539543,0.02317937356772711,0.014669407052567642,0.0057220229093238725,0.039918942069342093
0.3281538,0.03686168522382976,0.023297639285231382,0.03478325393007179,0.021081505672112155,0.023143253668416446,0.014707334279765871,0.005707417917674104,0.039922138893280244
0.3286731,0.036868316031421815,0.023378688181534064,0.03487279988002825,0.02098059254823561,0.02310646474570961,0.014745280414819376,0.005692315791117701,0.039924363082985796
0.3291923,0.03687243922554512,0.02345943039961066,0.034962452360512285,0.020879636023159582,0.02306901573662368,0.014783244927941034,0.0056767224008744425,0.03992560879592342
0.3297115,0.036874056403235565,0.02353985599409673,0.03505219687375925,0.02077864285173096,0.02303091574781409,0.014821227270321235,0.005660643809744411,0.03992587021954021
0.3302308,0.03687316970128028,0.023619955071435616,0.03514201854096943,0.020677619705707674,0.022992174054732847,0.014859226875042575,0.005644086270369213,0.03992514157511114
0.33075,0.036869781793571234,0.023699717794175425,0.035231902108464046,0.020576573175276492,0.022952800100748166,0.014897243158028178,0.005627056223475288,0.039923417121645134
0.3312692,0.03686389588822651,0.023779134385283295,0.03532183195411181,0.020475509770630562,0.022912803496226965,0.014935275519023575,0.005609560296100049,0.03992069115984968
0.3317885,0.03685551572448586,0.02385819513247409,0.035411792094023675,0.020374435923606726,0.02287219401758148,0.014973323342611988,0.005591605299801575,0.03991695803615172
0.3323077,0.03684464556938718,0.0239368903925506,0.03550176618951319,0.02027335798938265,0.022830981606281324,0.015011385999262793,0.005573198228852553,0.03991221214677297
0.3328269,0.03683129021423035,0.024015210595752075,0.0355917375543196,0.020172282248233767,0.022789176367832106,0.015049462846412844,0.005554346258419148,0.03990644794185764
0.3333462,0.0368154549708347,0.02409314625010786,0.03568168916209077,0.020071214907349835,0.022746788570721644,0.015087553229580298,0.005535056742725443,0.03989965992965086
0.3338654,0.03679714566759645,0.02417068794579276,0.0357716036541224,0.019970162102710895,0.02270382864533465,0.01512565648351053,0.005515337213204024,0.03989184268072634
0.3343846,0.036776368645352275,0.0242478263594807,0.03586146334735022,0.01986912990102219,0.02266030718283665,0.015163771933353686,0.005495195376633283,0.03988299083226184
0.3349038,0.036753130753055294,0.024324552258693052,0.035951250242591125,0.01976812430170752,0.02261623493402782,0.015201898895873426,0.005474639113261924,0.03987309909236159
0.3354231,0.03672743934326953,0.02440085650613786,0.03604094603302953,0.019667151238960432,0.022571622808167158,0.015240036680686355,0.005453676474921147,0.039862162244424244
0.3359423,0.036699302267488854,0.02447673006403603,0.0361305321129447,0.019566216583852502,0.022526481871767538,0.015278184591531591,0.00543231568312495,0.03985017515155507
0.3364615,0.03666872787128634,0.024552163998430573,0.036219989586674974,0.019465326146498072,0.02248082334736202,0.01531634192756987,0.005410565127158944,0.03983713276102079
0.3369808,0.03663572498929979,0.024627149483474716,0.036309299277814344,0.01936448567827467,0.02243465861224173,0.015354507984711423,0.005388433362158052,0.039823030108745244
0.3375,0.036600302940059046,0.024701677805694815,0.03639844173863703,0.019263700874098396,0.022387999197165585,0.015392682056971814,0.00536592910717343,0.0398078623238436
0.3380192,0.036562471520660604,0.02477574036822391,0.03648739725974516,0.0191629773747535,0.022340856785042225,0.015430863437854806,0.005343061243228922,0.039791624633192794
0.3385385,0.03652224100129497,0.024849328695001886,0.036576145879934664,0.019062320769275307,0.022293243209584375,0.015469051421761146,0.005319838811367283,0.039774312366035396
0.3390577,0.03647962211963215,0.024922434434938225,0.03666466739627415,0.01896173659738565,0.022245170453935776,0.015507245305422085,0.005296271010686412,0.03975592095861387
0.3395769,0.036434626075070635,0.024995049366033667,0.036752941374391314,0.01886123035197977,0.02219665064927091,0.015545444389356363,0.005272367196365767,0.03973644595883197
0.3400962,0.036387264522855234,0.025067165399457216,0.036840947158961156,0.0187608074816636,0.022147696073367567,0.015583647979349245,0.0052481368776831116,0.03971588303093956
0.3406154,0.03633754956806905,0.025138774583575187,0.03692866388439017,0.018660473393340135,0.02209831914915227,0.015621855387952053,0.005223589716021675,0.0396942279602371
0.3411346,0.036285493759504905,0.02520986910792944,0.03701607048569052,0.01856023345484359,0.022048532443218537,0.015660065936000656,0.005198735522867813,0.03967147665779546
0.3416538,0.03623111008342159,0.025280441307162112,0.03710314570953807,0.018460092997619748,0.021998348664317983,0.015698278954151178,0.005173584257799187,0.03964762516518689
0.3421731,0.036174411957190164,0.025350483664884668,0.03718986812550823,0.018360057319450965,0.021947780661824276,0.01573649378443115,0.00514814602646348,0.03962266965922241
0.3426923,0.036115413222835624,0.025419988817489265,0.037276216137483394,0.018260131687223995,0.021896841424170133,0.015774709781804296,0.005122431078547629,0.03959660645669105
0.3432115,0.03605412814047912,0.025488949557900667,0.037362167995226056,0.018160321339738824,0.02184554407725769,0.015812926315747072,0.005096449805737522,0.039569432019095865
0.3437308,0.0359905713816861,0.025557358839267182,0.03744770180611138,0.018060631490556527,0.021793901882842606,0.01585114277183499,0.005070212739668108,0.03954114295738158
0.34425,0.03592475802272545,0.025625209778589026,0.037532795547013005,0.017961067330884036,0.021741928236892465,0.015889358553336803,0.005043730549863818,0.03951173603664841
0.3447692,0.03585670353774488,0.02569249566028245,0.03761742707633574,0.01786163403249373,0.021689636667919877,0.01592757308281448,0.005017014041669189,0.03948120818084639
0.3452885,0.03578642379186783,0.025759209939678007,0.0377015741461887,0.017762336750675706,0.02163704083529063,0.015965785803726946,0.004990074154169543,0.03944955647744413
0.3458077,0.03571393503421693,0.025825346246451126,0.037785214414692465,0.0176631806272205,0.02158415452750719,0.01600399618203545,0.00496292195810157,0.03941677818206598
0.3463269,0.03563925389086937,0.02589089838798317,0.03786832545841342,0.017564170793430083,0.021530991660467576,0.016042203707808494,0.004935568653753624,0.03938287072309104
0.3468462,0.035562397357749354,0.02595586035265118,0.037950884784918704,0.017465312373154945,0.021477566275699748,0.01608040789682419,0.00490802556885554,0.03934783170620745
0.3473654,0.03548338279346279,0.02602022631304434,0.038032869845444975,0.01736661048585496,0.021423892538571212,0.016118608292167977,0.004880304156457724,0.03931165891891553
0.3478846,0.035402227912079365,0.02608399062910536,0.038114258047674085,0.017268070249681768,0.021369984736473696,0.016156804465823748,0.00485241599279928,0.03927435033497324
0.3484038,0.035318950775867324,0.02614714785119473,0.03819502676860888,0.01716969678458022,0.02131585727698261,0.016194996020256463,0.004824372775164933,0.03923590411877775
0.3489231,0.03523356978798596,0.026209692723075797,0.03827515336754233,0.017071495215406435,0.021261524685991205,0.016233182589984373,0.004796186319730485,0.03919631862967636
0.3494423,0.03514610368514101,0.026271620184818534,0.03835461519911331,0.01697347067505992,0.02120700160581934,0.01627136384313889,0.004767868559396592,0.039155592426200446
0.3499615,0.03505657153020796,0.026332925375619754,0.03843338962644229,0.016875628307627052,0.021152302793297016,0.01630953948301019,0.004739431541610626,0.03911372427021533
0.3504808,0.034964992704828196,0.026393603636537633,0.03851145403434022,0.01677797327153337,0.02109744311782273,0.016347709249576476,0.004710887426176452,0.039070713130979436
0.351,0.034871386901982944,0.02645365051313844,0.0385887858425839,0.0166805107427019,0.02104243755939677,0.016385872921014934,0.0046822484830519265,0.0390265581891058
0.3515192,0.034775774118549624,0.02651306175805339,0.03866536251925094,0.01658324591771494,0.020987301206629522,0.016424030315192496,0.004653527090133916,0.038981258840419565
0.3520385,0.03467817464784519,0.026571833333443887,0.0387411615941073,0.01648618401697665,0.020932049254724864,0.0164621812911346,0.004624735731030636,0.038934814699705014
