Time,Rectus Femoris right,Rectus Femoris left,Hamstrings right,Hamstrings left,TibilaisÂ Anterior right,TibilaisÂ Anterior left,Gastrocnemius right,Gastrocnemius left
0.0,0.01841839457509496,-0.003896134038915142,-0.026682372557193343,-0.017989906596108485,-0.02047108786615574,-0.020866801058372714,-0.005113280211674543,-0.045004235210118586
0.0004655,0.017167807035111515,-0.0070749087438215725,-0.025632622814044607,-0.018307665701226265,-0.020932922814044606,-0.016590721105334553,-0.0045560385929776966,-0.04450190548181511
0.000931,0.01578916779661702,-0.009280731525412773,-0.025081167118646806,-0.018445488557478504,-0.020381467118646805,-0.012454803389851053,-0.004831766440676596,-0.04091752559692384
0.0013966,0.015022235563870596,-0.011686138226392917,-0.023457082218064702,-0.018045851052905824,-0.018358861773607085,-0.01048970669161179,-0.0049744661723188,-0.03856411109032351
0.0018621,0.015589987834348569,-0.011857263503045707,-0.022188415695190016,-0.0188446265787164,-0.017789793611300692,-0.013094500427375018,-0.005163275668697139,-0.033166360828257156
0.0023276,0.017037028700702544,-0.012798616859398062,-0.02148535238331151,-0.02094750851971898,-0.017876881084014057,-0.015232745560100607,-0.005321220180983563,-0.023994632022288048
0.0027931,0.018476056654934202,-0.014432484566836032,-0.020262504710010416,-0.01935662779664321,-0.01566733651175982,-0.019321273265004574,-0.005896689518331386,-0.014469646173265589
0.0032586,0.018572574767602545,-0.0176242,-0.019214612151403816,-0.015704397832844885,-0.015844900929589824,-0.02684121431855893,-0.004970373530037251,-0.008719824302807632
0.0037241,0.017998526052901916,-0.01741817392716308,-0.01846299234842499,-0.015286265162157295,-0.018115327186267696,-0.02609568271210387,-0.006016846740895385,-0.007448371700301526
0.0041897,0.01722427330274925,-0.015186132877312174,-0.019170764464361816,-0.014733911174147813,-0.018659554580476533,-0.008276895005913613,-0.0071386914841781975,-0.005588637226267296
0.0046552,0.0161799608211323,-0.014470078357735394,-0.021652814552590046,-0.0135958,-0.014704339178867697,0.007838223432287296,-0.005937021865056014,-0.007568669700829553
0.0051207,0.01582795076128588,-0.014824885086547852,-0.021756835847833732,-0.012675953347720098,-0.006276733699513752,0.003094340394953948,-0.0069054920183845665,-0.021099651623430617
0.0055862,0.01537907639993872,-0.014845660502617588,-0.02271675231131359,-0.01624916974787196,0.0021153251409370077,-0.012614964638319418,-0.007017469747871959,-0.04294082668181273
0.0060517,0.016354818174210462,-0.015524698179758522,-0.022751372717763074,-0.019357763630657845,0.005093172738684309,-0.025073743636205906,-0.007666036369342154,-0.06369217449616209
0.0065172,0.01715065855293277,-0.015682136229378276,-0.0236667,-0.020585386475518105,0.003201122704896379,-0.029936795655932585,-0.007457018360828966,-0.07277954117666312
0.0069828,0.01761808588717109,-0.016936497317897814,-0.024329948658948906,-0.020313875670525547,0.0031891,-0.026231369604003196,-0.006724188569273277,-0.07086092969367883
0.0074483,0.01792854413515013,-0.017583436441650932,-0.023647886481090074,-0.018973271172969975,0.003556155864849874,-0.02698607296218015,-0.0049209059042890175,-0.061961484691879905
0.0079138,0.01666075782922659,-0.01632505782922659,-0.024316271085386705,-0.01539435903037312,-0.006543455074747223,-0.019228943724106246,-0.005517171085386705,-0.06453468434154681
0.0083793,0.015658617104423338,-0.014590168257523744,-0.02444807664103456,-0.011627907238941654,-0.022949003450769976,0.017785678783906057,-0.005167414638052917,-0.05728752696990502
0.0088448,0.016384357515488696,-0.015232819708457485,-0.024840544913144958,-0.009173908188574928,-0.03677752721257166,0.041714395563482165,-0.005015817700573295,-0.019395336062858308
0.0093103,0.017297121506132888,-0.014249956987734225,-0.024355343012265777,-0.00888091300632182,-0.04315454172815703,0.026704705557191906,-0.0043619439814124045,0.027260790134545663
0.0097759,0.017993499761838054,-0.012543564884143824,-0.026039333050217578,-0.007900316525108789,-0.043449511653864153,0.0005914600128991906,-0.0044426227220245845,0.045599110328193
0.0102414,0.017129991509009134,-0.01271670191436215,-0.026588560037233845,-0.005832383940425843,-0.03261004496961427,-0.01341560309248596,-0.0038319380484040017,0.04795513001861692
0.0107069,0.0170649558825215,-0.014493420537713705,-0.027851867198135555,-0.007998379462286296,-0.012913267198135557,-0.022813597408514925,-0.004908487139658072,0.039847076919342944
0.0111724,0.018599822989128784,-0.016881976725539767,-0.028360598646494765,-0.009914903879076705,0.003118277897606003,-0.0342694213502921,-0.002880942384512313,0.011846476725539765
0.0116379,0.018117250933847105,-0.01752406758755184,-0.026487739436238732,-0.011066637568544526,0.008756348316913139,-0.052726154814957085,-0.0016822555641968398,-0.02612343017553926
0.0121034,0.017807610124866438,-0.016263560616450505,-0.02601214015411263,-0.012937779537662121,0.015001037842423232,-0.06586222354459041,-0.001197199229436869,-0.041325004623378785
0.012569,0.01888279257292974,-0.015034832964314845,-0.025704958241078713,-0.013859325276763866,0.01930158462489804,-0.058797039544810366,-0.0027331087946064433,-0.03210954723236134
0.0130345,0.018721245551973253,-0.01330352243663858,-0.024760644873277157,-0.014161745511020596,0.017500135895318347,-0.037769200678696095,-0.003515496116069822,-0.017779278283010173
0.0135,0.01750732545806106,-0.012647447227147073,-0.024352713669639224,-0.014237981364515265,0.015813901832244234,-0.021667204965845514,-0.003655969551606852,-0.013815254074209974
0.0139655,0.01710524767843169,-0.010187984107189435,-0.02516194767843169,-0.01329090464313662,0.016490060267973592,-0.013989619384958601,-0.0037534715176475355,-0.021375019384958602
0.014431,0.01748414087017703,-0.009259540870177031,-0.0263523,-0.012379611802628684,0.01317772360525737,-0.010930794098685657,-0.002935776394742629,-0.034743747649538116
0.0148966,0.017560949428894544,-0.010587150114221091,-0.026162552054963113,-0.011961573515634078,0.012208252627085097,-0.012949700228442183,-0.0015865006853265466,-0.047133976598587014
0.0153621,0.0176242,-0.011160657816428285,-0.025473063275357567,-0.012503457816428285,0.011331142183571714,-0.016148267990355573,-0.0018036789082141432,-0.052441020347854576
0.0158276,0.017035277950901578,-0.009691116926352368,-0.025763377950901577,-0.011622838975450788,0.006028079509015781,-0.017194040998199996,-0.0032773661472952657,-0.05128805434368895
0.0162931,0.016744327326616144,-0.006675940290323743,-0.027218460435485616,-0.010319950181452339,-0.006113019782257192,-0.018490355600800985,-0.0032053300362904678,-0.04259573545563912
0.0167586,0.017932538808825574,-0.0036826563326106698,-0.02699322932636319,-0.010139398902691625,-0.01582568412217747,-0.017223206504526318,-0.001188580595587213,-0.032634835830889504
0.0172241,0.019216817491929435,-0.003682251264796034,-0.027752355005380376,-0.01071763751345094,-0.018352855005380374,-0.015531272235675957,0.0008711214941476336,-0.027277482508070564
0.0176897,0.01967796556569741,-0.005611538834776784,-0.026970945912403455,-0.012062373740890508,-0.025733654087596546,-0.01372768521899137,0.0010430187096716918,-0.023321462262789642
0.0181552,0.01971370816548261,-0.008938379743775909,-0.026704735701808893,-0.0146029,-0.03516417850904446,-0.014015178509044457,-0.0013924641235155916,-0.02401869271989781
0.0186207,0.02004124416080901,-0.010826269798988737,-0.02709084416080901,-0.01748991167838198,-0.03325928156045831,-0.014804332482427029,-0.0031051697989887377,-0.03176546760066056
0.0190862,0.01985887825198057,-0.011855257520297228,-0.027624194308911117,-0.020261051017267457,-0.01932928963415833,-0.015022200811940887,-0.0032334160569305517,-0.03849067926831666
0.0195517,0.02088149560924078,-0.0115816,-0.026996423381362888,-0.02257777826938465,-0.0004027822271021764,-0.017643096042282473,-0.0013196717948361963,-0.039218006474548456
0.0200172,0.02180944605385303,-0.0115816,-0.02653115394614697,-0.02322143442662051,0.009238683695929204,-0.019456100941899705,0.00021162884054277286,-0.038725832575481345
0.0204828,0.02148347451502119,-0.01145859964728814,-0.026595749735466103,-0.021598785055690933,0.004224403698215609,-0.021714095596360672,0.0007162042272834,-0.04051320017635593
0.0209483,0.021896739559972577,-0.010092303295956125,-0.026596439559972578,-0.018939529140543455,-0.008242912088005485,-0.022446022507434608,0.0006743966628472771,-0.040177018679917735
0.0214138,0.0219883,-0.010347399629408538,-0.026719028465545296,-0.01569247403047918,-0.018200368297247308,-0.02331548576722735,-0.00017555942711506596,-0.03527657190504617
0.0218793,0.021976636402462595,-0.012584034838921355,-0.027373395483235932,-0.0139315,-0.02324017446295683,-0.02296731042320972,-0.00034269704677717387,-0.032413560644314575
0.0223448,0.02115402227081417,-0.012162626046391593,-0.0283665,-0.013961624651202802,-0.028852823256014012,-0.02091090914719346,-0.0008592831008018681,-0.03370255606921044
0.0228103,0.021293466846837143,-0.009653371147414786,-0.0283665,-0.014798042950861737,-0.0330349147543087,-0.018959266447989277,-0.0014168953005744922,-0.03272677624568816
0.0232759,0.021004719169719924,-0.005968804711263154,-0.02904423351057896,-0.014025604711263153,-0.035027114133789464,-0.017486166696490613,-0.002363875911947346,-0.027671580830280075
0.0237414,0.019901116566550886,-0.002898311853001913,-0.030894908514493304,-0.0149386,-0.02983280759575526,-0.018664983889751435,-0.0008448156539462475,-0.02311880759575526
0.0242069,0.018558685372123355,-0.0006033717368076161,-0.03165085149674286,-0.014385114131596191,-0.023367370196931882,-0.019302574234012878,-0.0003673919416409922,-0.022700438905022397
0.0246724,0.0193027,0.0020808496549313644,-0.03217965789201941,-0.011215151127431345,-0.02149885563715672,-0.018172604509725375,0.0003664488725686557,-0.02927366845405897
0.0251379,0.020011295678166383,0.00471839229906559,-0.031053038896502575,-0.008036743816162947,-0.01986439075850601,-0.015237104321833618,0.002182949976537775,-0.04188603085066209
0.0256034,0.02048351170628075,0.0065638315978736456,-0.030333420433628414,-0.005586279566371587,-0.01821286075884972,-0.0125887,0.004137100542035516,-0.05390323978318579
0.026069,0.02062348040751581,0.006906569369199412,-0.02899386081503161,-0.007212093887262894,-0.01579156285261065,-0.01274283714738935,0.002319530226948931,-0.054033542856274805
0.0265345,0.020290233599029973,0.004857819713783823,-0.028542597608730236,-0.011662936787389661,-0.01400669442037055,-0.014958166400970026,-0.0003274082198074385,-0.04634903758447958
0.027,0.02062236443831165,0.003148542143417332,-0.0283665,-0.01426148673320597,-0.010626484390170726,-0.016188857753246605,-0.002066322191558256,-0.05791432667095662
0.0274655,0.020754947812571575,0.0006577569571019334,-0.02708834348212241,-0.010780913035755188,-0.004520143690632658,-0.0176080391294694,-0.001670417157694108,-0.08779768258938797
0.027931,0.02083481682023285,-0.0007789712833602994,-0.0263523,-0.004345439405921006,0.002775876207186299,-0.018002929367864386,-0.00098558317976715,-0.10478524683932192
0.0283966,0.02131058288953528,-0.0032185769219242283,-0.026369143955385272,-0.00015095729900520797,0.008566617110464718,-0.018975421977692638,-0.0004950792766978448,-0.10982667503284599
0.0288621,0.0208133,-0.004992175785457107,-0.027544250391304093,0.0005338003970019358,0.008328502540627685,-0.019449837989130116,3.581220937085136e-05,-0.12468412970419589
0.0293276,0.020104348637854708,-0.0071298919269722075,-0.02817112704321794,0.0010446610619246999,0.0018912675082008797,-0.019876413521608974,0.0014668508133758064,-0.122337299002305
0.0297931,0.0202761938424459,-0.009382927708993455,-0.029340355417986907,0.0008720880118574801,-0.013511784606114748,-0.019537581527337696,0.0006540095632968332,-0.06739151539388526
0.0302586,0.020124749252878656,-0.009952707191085432,-0.029238164966240196,0.0024604814382170864,-0.02643812784267437,-0.018438646404457283,-0.0015535181824752385,-0.019731830691095742
0.0307241,0.020778934022731614,-0.009735769370462284,-0.028819227566583946,0.0024170938740924568,-0.031640354055693425,-0.020259496937046227,-0.003441184685231142,-0.019201040148639156
0.0311897,0.019813582050845838,-0.009332021725892523,-0.027668347008474307,0.001848879196515316,-0.03264905341949409,-0.02388870177834463,-0.006069948786818938,-3.403902702919082e-05
0.0316552,0.019339699752843793,-0.007889575556101468,-0.02829170048804008,0.0013977985233350882,-0.033010299264803714,-0.024224747417404487,-0.007403512098371163,0.0397813022118612
0.0321207,0.019423248610738308,-0.005617752315436158,-0.02977230185234893,-0.0012880905438995823,-0.03303722155732308,-0.0242121009871291,-0.0078889,0.04940524675838937
0.0325862,0.01853992932450326,-0.0072175,-0.030888118825275014,-0.009575845548120604,-0.029300275090067177,-0.021914968576933178,-0.0078889,0.04661899174216071
0.0330517,0.017535461688531016,-0.008441982251374687,-0.03148174700147362,-0.02370520649175188,-0.025927861688531017,-0.019579241125687343,-0.008683826438629947,0.05951039829644636
0.0335172,0.016495694361134433,-0.006780465737275662,-0.03040077137614123,-0.030396555838466743,-0.023455614864308857,-0.018869881274950148,-0.0075933282871759565,0.07358025019960118
0.0339828,0.016301019558336103,-0.005637097791680511,-0.029294085090326234,-0.031368180441663895,-0.023429097791680512,-0.018334839116672202,-0.006012036908352716,0.08004664794995016
0.0344483,0.015620502689241594,-0.004151255998619799,-0.02851192130523761,-0.02582357467267919,-0.013098655964114789,-0.0182956,-0.003950388002760401,0.06768263734811877
0.0349138,0.01457229087513323,-0.003875804562433386,-0.02834354315634992,-0.02123272490661638,-0.005539,-0.01825351131355823,-0.0045242477187833075,0.05892175190768221
0.0353793,0.013804671916741746,-0.00557566284042168,-0.026406412664019805,-0.01646699143608272,-0.00513057106244369,-0.017061850165493397,-0.005013057875112619,0.04540565290980356
0.0358448,0.012753060597079521,-0.005882918029853976,-0.02590976805992627,-0.012580481970146024,-0.0033329167464585595,-0.01497969014926988,-0.0020517507463494013,0.013898627880584095
0.0363103,0.013290363963155102,-0.0072175,-0.0250095,-0.008136530042455594,0.013243780463694387,-0.012761944217888663,-0.00034393991508881313,-0.017536390336327607
0.0367759,0.01442378431442392,-0.00830609411854504,-0.024545964787825163,-0.008202168628847838,0.02439010584063322,-0.011471284396067401,0.00022538439606740058,-0.027962752902450018
0.0372414,0.014592475735014007,-0.007231397640015084,-0.0250095,-0.0075532,0.019903483480105587,-0.010598819835051718,-0.0014689091499041095,-0.025866171015044175
0.0377069,0.015818711002784428,-0.007447088320250917,-0.02473557588587482,-0.008158455690886789,0.008409840092000558,-0.012967904596101804,-0.003441315598886229,-0.033484553203341316
0.0381724,0.017100246526387683,-0.007649859810859487,-0.02387023473612315,-0.01276157221110148,0.0005695033488326379,-0.018610946526387683,-0.0036621667580841173,-0.0424659
0.0386379,0.018509433962655454,-0.009295661063749421,-0.024973545797812066,-0.02065245915620553,-0.0011828622222567614,-0.022795484349755604,-0.0014466538178808937,-0.04159466946812529
0.0391034,0.016997693409045236,-0.010344152989829384,-0.02723440597965877,-0.025079735326552922,-0.006829128735598158,-0.022113204481366933,0.0006966523785333878,-0.035047469766110007
0.039569,0.016024526015421488,-0.011288897172794767,-0.02920988869117907,-0.02553757609068411,-0.0066434470975321475,-0.020402958406353075,0.002457390797284665,-0.03179823732424242
0.0400345,0.016662354727360468,-0.01096192188943709,-0.03048414377887418,-0.021032918037643115,-0.01387977811056291,-0.018457228978593917,0.003576521889437089,-0.030516271893204834
0.0405,0.01754483198831711,-0.011117734005841444,-0.03056687300681502,-0.0149386,-0.03153732699318498,-0.01611658799221141,0.0027329296947040224,-0.031148227677179688
0.0409655,0.017317921983990427,-0.013478112064038289,-0.0296330966063181,-0.012953821983990428,-0.04767390487119973,-0.014778057687089651,0.0011749,-0.03483434455100829
0.041431,0.016945801857654468,-0.014980747417294698,-0.027291836429424118,-0.015144218885407318,-0.06553071568636233,-0.0142672,0.00045781371999671264,-0.037332015686362324
0.0418966,0.016234884421915563,-0.01398179968561279,-0.025970084421915562,-0.01841377388295691,-0.08203237222252198,-0.013788169158218335,0.00040796033751560825,-0.03681308379314114
0.0423621,0.015662236751854373,-0.013700273503708747,-0.025685892877163437,-0.019274078148869903,-0.08348078310422072,-0.01407822450123625,-0.0004562561253090623,-0.03683120826050812
0.0428276,0.01582315772160622,-0.0135958,-0.0257955510430089,-0.016441221468145074,-0.05899492343760249,-0.014331140966832728,-0.0008764918890495704,-0.038533367802014065
0.0432931,0.015564223872056072,-0.012214814242263632,-0.02346073801362422,-0.013977276127943928,-0.017280872222409222,-0.01273364252539994,-0.0014877425253999395,-0.0367742671043925
0.0437586,0.016514246646969852,-0.011274439522731942,-0.021626582891233433,-0.012200965782466865,0.02364068289123343,-0.010502800833560299,-0.001406531564933731,-0.03569855845053761
0.0442241,0.015818728038993934,-0.010701471961006067,-0.022450871961006067,-0.010973685980503033,0.06649673542970068,-0.009503914019496967,-0.003125614019496966,-0.03785074797400404
0.0446897,0.014082179763632534,-0.012429153925189958,-0.024196286547544976,-0.012023664049873362,0.07953451873316449,-0.0084716632917722,-0.0020933632917721984,-0.038470715700759835
0.0451552,0.01405876302514899,-0.016337961344510665,-0.02561019831936167,-0.013793764705787321,0.041798163854869716,-0.007784729406477366,-0.0005035,-0.037361218492926666
0.0456207,0.01610836262395613,-0.01904301069646408,-0.025085967505710263,-0.014071985882795934,-0.005430528140593931,-0.010021856281187862,-0.0015106,-0.03586037185940607
0.0460862,0.018303518373998223,-0.019962222439002666,-0.024669840813000887,-0.013629452499801211,-0.02090993463401598,-0.013627473495992897,-0.005231014308993785,-0.034586798557189026
0.0465517,0.018816324525431055,-0.018766099367241405,-0.024049309080740038,-0.016085071343455565,-0.015039050316379298,-0.0162814,-0.007427637104525878,-0.03513996162995693
0.0470172,0.018623661300537782,-0.01828796130053778,-0.024847428455733137,-0.025101164393546625,-0.007228958049193328,-0.01779391024372908,-0.0060292317070775895,-0.03861866829292241
0.0474828,0.01802353690128007,-0.01749692619743986,-0.025377018450640033,-0.033034481549359965,-0.008876873499000872,-0.017928081549359966,-0.0048039630987199294,-0.03947801997979982
0.0479483,0.0186313,-0.016184985209863566,-0.02562580817864034,-0.03226231951844287,-0.015588457539654075,-0.0176242,-0.004333929553399156,-0.036136596576539816
0.0484138,0.0186313,-0.015040455378607978,-0.024994845154639678,-0.02673060745825242,-0.021054469861342757,-0.0176242,-0.005947974226801608,-0.03087624185567614
0.0488793,0.018438488766375025,-0.013499388639629763,-0.024288189019865545,-0.02038692449344999,-0.02208117778624057,-0.017334977406004787,-0.007283264272925034,-0.026657364399670296
0.0493448,0.017071589104152657,-0.010969551013526905,-0.025388582179169467,-0.016486953462491596,-0.020634142566644254,-0.016866035641661063,-0.00769368665518797,-0.029163435136506717
0.0498103,0.015646815908186736,-0.010294022034462202,-0.025729987877582315,-0.015475008336648634,-0.018246512122417683,-0.016355031816373475,-0.006310802340506415,-0.03350017575516463
0.0502759,0.015312714932415847,-0.011025444797247543,-0.02524916266896038,-0.014151955202752458,-0.014943139398040841,-0.015854629864831698,-0.004551107466207924,-0.034667970135168306
0.0507414,0.0156968739881768,-0.0127688837426105,-0.023371223743556237,-0.012253,-0.0125018260118232,-0.01719836276129104,-0.004727640000945738,-0.0334331032514779
0.0512069,0.01694027055061824,-0.012526052753091196,-0.022374017797527044,-0.011656776696290562,-0.01160665889876352,-0.01974489845357735,-0.005520207692094976,-0.03336441165185472
0.0516724,0.016570783645688435,-0.010863883645688435,-0.02406039591012228,-0.01378106541724626,-0.012484581771557824,-0.023001279897427215,-0.005012334924370236,-0.0323949
0.0521379,0.01659469155330252,-0.010462616825596207,-0.026990130663892387,-0.014625308446697481,-0.014065767808558222,-0.025960720319069628,-0.0045990643828835555,-0.03192496933610761
0.0526034,0.01664712759429851,-0.011764414691626297,-0.02767107792456119,-0.01359880186495281,-0.013604807383812511,-0.030440755188597023,-0.0043731073838125115,-0.0337377
0.053069,0.018401777589760207,-0.012652406553856124,-0.026288593446143874,-0.013816691957751412,-0.014173627475703452,-0.03378017103590408,-0.004878220921847327,-0.03378017103590408
0.0535345,0.01988187809881163,-0.013734132851782556,-0.025299089049405813,-0.014418456197623261,-0.015228189049405814,-0.0344091,-0.005012437656822271,-0.03505465330831859
0.054,0.019381446670670512,-0.014484779993994234,-0.025048873335335255,-0.013417593341341023,-0.014977973335335255,-0.0344091,-0.0048872925320309485,-0.03855767330530642
0.0544655,0.018997800725624382,-0.015061802902497524,-0.0250095,-0.011569307619056,-0.01423639927437562,-0.03395019709750247,-0.005693003628121905,-0.04624779878254228
0.054931,0.0186313,-0.012107088364704846,-0.025597521922688483,-0.00936938017102014,-0.011763156900429833,-0.031442102093708624,-0.004825910961344241,-0.05008267740336061
0.0553966,0.018416639316793455,-0.009849434829198363,-0.024874751708016368,-0.006821033662600932,-0.00435067971078702,-0.026802523515175564,-0.004142534829198363,-0.04824007414599182
0.0558621,0.01847907707869092,-0.0065773541573818355,-0.022727448769993143,-0.0035414390450909422,-0.01221439511835679,-0.02015555314589087,-0.005889315112290894,-0.04215943022458179
0.0563276,0.01858247003693428,-0.002389522623732825,-0.022470389889197164,-0.001559429963065721,-0.03678643656371303,-0.014450300369342792,-0.008322259926131443,-0.03564813033240851
0.0567931,0.018319608513377224,0.00010762269880454934,-0.023258974459868322,-0.0018222914866227735,-0.045066535404505566,-0.011821685133772264,-0.008847982973245547,-0.033282376620395036
0.0572586,0.01895923898447593,0.0016590963052447092,-0.02509487117076476,-0.001974357912092258,-0.04034304578266303,-0.008201316953427793,-0.007710396642946412,-0.0318487132586725
0.0577241,0.018583466475882347,0.0023104467243353515,-0.02715124339989115,-0.0015566363735461906,-0.028325340075446948,0.0032715198491061028,-0.007091763248997253,-0.0281114132002177
0.0581897,0.018693046341066815,0.0030058588164058415,-0.029435346341066815,0.0005652463410668147,-0.015783524395598002,0.018137329271465483,-0.007186626829466592,-0.024747082648793495
0.0586552,0.019263415367023574,0.002696269269371775,-0.030149755554036033,0.0010876063053957986,-0.007797629626084082,0.013504527025658254,-0.006829422222981983,-0.02216046351453859
0.0591207,0.021186658568177155,0.0035465069053038072,-0.02911897237878477,0.00027558072739094504,-0.001240780981201355,-0.014527682863645688,-0.007108211674352873,-0.023807044318427575
0.0595862,0.021871077018851288,0.004297454037702579,-0.031071637163524783,-0.0015461061069709167,-0.002713071635247851,-0.0372385965848308,-0.008462614182376075,-0.03378034254712822
0.0600517,0.021185824797048267,0.004138674391144798,-0.031236379519701596,-0.002706300811806936,-0.008298149594096532,-0.03733569405963627,-0.008699387195572398,-0.040094843653732795
0.0605172,0.019821126471593665,0.002644491628362387,-0.030623205687679594,-0.0032712167432752256,-0.009239115415998037,-0.02900805594690891,-0.007493511893817825,-0.037907722460358464
0.0609828,0.019964381011783286,0.0003739282863617627,-0.03132949186040674,-0.007592072093062175,-0.006023709690071671,-0.02877994418612435,-0.006894757364354059,-0.029034661623862656
0.0614483,0.021573018655718514,-0.0027183908229911208,-0.03210420305900296,-0.014826048537797103,-0.002514225075425189,-0.026684525075425188,-0.004286206118005919,-0.01828863778024137
0.0619138,0.022529458427259657,-0.002377238206493383,-0.0323949,-0.020375929222755305,-0.0006109101058203984,-0.01042616908145598,-0.003481415167856074,-0.010877135388622347
0.0623793,0.021665979142240117,-0.00405404049295585,-0.03251534417322957,-0.025264901226757907,0.0035638276084630953,-0.0007879190140883006,-0.0033630846619914292,-0.009048269328176853
0.0628448,0.02147789375574592,-0.005727382761862764,-0.03269034856348856,-0.029979011712399556,0.005620328950536791,-0.011010822596128678,-0.0033771197231058057,-0.0079959658016258
0.0633103,0.02116414703220669,-0.008408260090497255,-0.03367659881288268,-0.03186062569215073,0.006530472724357419,-0.01796025652914528,-0.004455884595530658,-0.012208371961670492
0.0637759,0.021818253831928126,-0.00816663683501232,-0.03388617937133864,-0.02435098084544211,0.007828789387936826,0.0074372736700246385,-0.005343290862040288,-0.016511907068391254
0.0642414,0.021471309253534725,-0.009074244939382208,-0.03253156518185338,-0.016302189878764417,0.004745824233328795,0.044361178889827976,-0.005972740080823722,-0.019867133458627544
0.0647069,0.02226581248415091,-0.011346235699057646,-0.03167069173733808,-0.012234516321528818,-0.005154317804449809,0.0488520220259388,-0.006102143848082575,-0.020288676694935233
0.0651724,0.021942926785658907,-0.01404712147930778,-0.031006726785658908,-0.010624410535775201,-0.020963050714263562,0.0195884894642248,-0.006133265535620145,-0.023639477422995415
0.0656379,0.01980436154939224,-0.01665592760566785,-0.03187193619716608,-0.007256327605667849,-0.03140189560896001,-0.014101238450607761,-0.006733363802833925,-0.028801157464777384
0.0661034,0.02011320840333437,-0.018830242399625653,-0.03220685829948527,-0.004995812796478455,-0.03503157179507464,-0.036616048398689774,-0.007519010599906413,-0.033652226499766034
0.066569,0.01937771619332302,-0.018368743323369425,-0.0315528462816196,-0.004796329546584172,-0.03182854398327013,-0.050151264773292084,-0.006914670335227524,-0.039142662356754315
0.0670345,0.01967320393425457,-0.0162814,-0.03113805278894517,-0.0035494786850913855,-0.030112404142697155,-0.048926047211054834,-0.007424109512144906,-0.042197593775126635
0.0675,0.02089748213904454,-0.011513860662698614,-0.030605604741570896,-0.0013838262179168253,-0.05017257858870227,-0.05027144641713363,-0.006266211907303637,-0.036914144013824084
0.0679655,0.020942233041405578,-0.009450499124216735,-0.03067743304140558,-0.0008716744001075347,-0.07446463785556891,-0.05620150838645207,-0.0037251705308831685,-0.0211720075106688
0.068431,0.020053015737588824,-0.006782847212766463,-0.029788215737588823,-0.0016127329673733517,-0.06542430608085038,-0.04790214688416233,-0.004466140803311947,-0.010204994096928795
0.0688966,0.019657181308392786,-0.0018921242927820625,-0.028310156074821638,-0.0029473065419639358,-0.04520774392517836,-0.03683648878464132,-0.006266743925178361,-0.013544177582291619
0.0693621,0.020141821269892505,-0.0008049733730458807,-0.02814768497232945,-0.005035063809677514,-0.046091411492042995,-0.043942867023583354,-0.0065466149204299814,-0.024119809885090077
0.0698276,0.0199741,-0.0014913679309482765,-0.02570013321490903,-0.005527460071054581,-0.051800007069309296,-0.04745898807305744,-0.006885646642981806,-0.031137296602962515
0.0702931,0.019291938365280568,-0.004585708173597149,-0.025150494310336557,-0.007346639616633157,-0.03727764779023031,-0.02130613836528057,-0.0054260044383108545,-0.032925402483933705
0.0707586,0.0191348,-0.008185047315142194,-0.026411629027286707,-0.007326070972713292,-0.02455465001521133,0.012895230362109943,-0.0031297709727132923,-0.030282316109146827
0.0712241,0.01917708541754591,-0.010883764305788092,-0.02822545512760105,-0.0055676522945467604,-0.01787615971669457,0.026353038866778283,-0.0019436734063045808,-0.022016205112776587
0.0716897,0.019653402380993737,-0.013018544285788724,-0.02771216738090689,-0.005692925342412068,0.009886032619093108,0.019077174390188262,-0.00015074217219465815,-0.01770540690470814
0.0721552,0.019600947133921187,-0.014852993448962716,-0.025979147133921188,-0.005353111464315247,0.05091983050546145,0.005308933987894103,-0.0008392,-0.0208046364884856
0.0726207,0.019336587692131597,-0.0152743,-0.0253113123078684,-0.0064476138449211864,0.08395377231015762,0.0015879061482111394,0.00033723846065799055,-0.02698663538655242
0.0730862,0.019346448697429287,-0.015566251302570713,-0.02515551913524463,-0.007684446092287864,0.0881949008066321,0.007450533066580744,0.001262397394858576,-0.02804596953856068
0.0735517,0.01963319465802915,-0.0152743,-0.02501470534197085,-0.008523862606204056,0.07980127478759189,0.011079329056932829,0.0018202732901457545,-0.023723958761679338
0.0740172,0.01996247208358289,-0.014944413958208556,-0.02567508604179144,-0.008849488334331544,0.07486150478804816,0.002482816250748658,0.0018172302089572152,-0.0182875829847898
0.0744828,0.019188482309252193,-0.016196957145749643,-0.02592523129087564,-0.010069927900183994,0.07371761903612946,-0.010474147627684912,0.0037691312908756376,-0.017341110209436187
0.0749483,0.01857899987733944,-0.017573655729131953,-0.025370888011400573,-0.012926155851792517,0.07004272017100863,-0.01282775491378205,0.0030863479543976973,-0.01967775994299712
0.0754138,0.01702680783466371,-0.017585586716596387,-0.023873690972374382,-0.0182055023387249,0.04945758007489458,-0.009431201964252001,-0.0005002831849095789,-0.024518295322550197
0.0758793,0.0171013431639762,-0.01588512218587244,-0.02396943228035973,-0.019242122185872443,0.02137189763020837,-0.006463603554687442,-0.0035248,-0.024844384550608677
0.0763448,0.01737746149375037,-0.01512603084374938,-0.02448636915625062,-0.017505584674999505,-0.0014915842875027256,-0.00864455314891005,-0.005509346168749876,-0.02424913850624963
0.0768103,0.017723022847721936,-0.014618103863418998,-0.0243381,-0.01624395010834508,-0.017059227043932985,-0.01988982351330604,-0.005402165229229017,-0.024467335103563036
0.0772759,0.01718920749581185,-0.0134381950027921,-0.02323170749581185,-0.016636005375196883,-0.025839742002868166,-0.03934609687674506,-0.00358434363015912,-0.029758554495887917
0.0777414,0.01512017044642743,-0.012236476448710754,-0.021349945461872376,-0.01464145495300824,-0.03386419194212994,-0.04974655248254089,-0.0007841231364086296,-0.03850891343783246
0.0782069,0.014105301666490258,-0.011558219892624459,-0.02142117754836667,-0.012542352888935931,-0.04733908856280325,-0.032325066229716884,0.00041660089251861337,-0.03730294544457381
0.0786724,0.014858872505437801,-0.011878964624571997,-0.022575264457965177,-0.0122376658498288,-0.0632868670750856,0.00152045273472215,-0.00017546707508560075,-0.023712702450513604
0.0791379,0.015677556643965883,-0.010455620136956806,-0.0236434057541227,-0.013735572414684037,-0.06782515020505915,0.016456360820988725,-0.0011189918668568148,-0.012322886901284042
0.0796034,0.015678891605997534,-0.009798186252672427,-0.024930124104439066,-0.015280305353325106,-0.05692185875801728,-0.0029972983864296914,-0.0010759916059975318,-0.012465760371587586
0.080069,0.015346946110504966,-0.010017258173650663,-0.027252016347301327,-0.017437395715844368,-0.03965576381056291,-0.034654736664125885,-0.002500379683175446,-0.01885284182634934
0.0805345,0.015263887719494449,-0.010691875862926636,-0.028054034837106747,-0.0174086286483936,-0.025460172508140824,-0.05103135614025278,-0.004033556140252775,-0.026278641025819893
0.081,0.014843163504824048,-0.010144578467379142,-0.028040222153262087,-0.016519867552824783,-0.012321868794107238,-0.06340761262823412,-0.004886444306524171,-0.028520265366747732
0.0814655,0.015327300707860848,-0.008441052354342272,-0.028472501415721697,-0.015689501061791275,-0.001364852000411848,-0.08144664775324675,-0.004390600353930425,-0.02784529752248703
0.081931,0.016172340425101035,-0.007255736750091848,-0.02966809264998163,-0.01630804487486223,-0.00047814209409976626,-0.07574724854987142,-0.004596781624954076,-0.026051766150165325
0.0823966,0.014875661749123692,-0.006535595627190768,-0.030614114344078618,-0.018947281375704842,-0.008059376093202309,-0.04119782859556454,-0.005169204781359539,-0.024566272314128765
0.0828621,0.014735269061234913,-0.00810688834841781,-0.03066052334929435,-0.022029506962458627,-0.015645273169476337,-0.005403450133688042,-0.005038423035788295,-0.026785108170352873
0.0833276,0.01457328248066598,-0.00894209546789484,-0.030657138881870685,-0.022600216725427953,-0.01598520871975906,0.012957321971623277,-0.0029488653855991196,-0.02893254341397584
0.0837931,0.01545395685390021,-0.007731527435389615,-0.031007518141152594,-0.021394193583526844,-0.01681905442345779,0.00593756461233769,-0.0017112250049471935,-0.030784608846915577
0.0842586,0.015408459744673185,-0.007530840042554469,-0.030291260170217875,-0.01784820386227901,-0.020578420127663408,-0.012353616478156745,-0.002182,-0.031085840255326815
0.0847241,0.014714755289953972,-0.008364419112442463,-0.029765227644976987,-0.01668713952135746,-0.024058327644976986,-0.019890208532534523,-0.0045876935148388975,-0.031135991467465478
0.0851897,0.01503791638657044,-0.008808590966426102,-0.028398339767574544,-0.017326250840288677,-0.021156018067147796,-0.019141818067147796,-0.003374818425710675,-0.032257832773140885
0.0856552,0.01519631236745504,-0.007802407244087199,-0.02755862745088312,-0.017944655653547678,-0.01486061236745504,-0.019642646753847123,-0.00222099381627248,-0.02995176802100272
0.0861207,0.015840259055924424,-0.006168764763554748,-0.026416105707630325,-0.0176242,-0.012331034256014532,-0.022407170472890505,-0.0028950352364452516,-0.02526454763554748
0.0865862,0.016230189073439774,-0.005541828977358513,-0.025732110926560227,-0.017368145367198856,-0.0174449617570392,-0.023200143706240916,-0.0030738792289814096,-0.02196543114156225
0.0870517,0.0172885,-0.005129605293825487,-0.024479678894041335,-0.017052170769448576,-0.02756876621798655,-0.021626278894041336,-0.001605350336510088,-0.024595484860886998
0.0875172,0.017757348006008773,-0.004473443480822741,-0.02652558061662583,-0.01498480724680379,-0.033378896376598105,-0.019372704889766588,-0.0011572701110007001,-0.026803518117009477
0.0879828,0.018570765342664098,-0.0029502496817236396,-0.028844200636552717,-0.01213521178387819,-0.03449216013475044,-0.01590054904517092,-0.0020972601347504435,-0.02731097515913818
0.0884483,0.018940689644286017,-0.0013264353474628455,-0.029320979288572028,-0.009705776250875481,-0.03327678284571188,-0.009692617154288118,-0.0009413201919846652,-0.026332324268567825
0.0889138,0.018139646160433967,0.00030942072440220204,-0.02838083453851191,-0.008414001096093828,-0.03273537817950397,-0.005601116333551617,0.00048199890390617265,-0.02568567817950397
0.0893793,0.018606705846735228,0.0009621414701317574,-0.02766956782099269,-0.008000063406370642,-0.03511264244036459,-0.007414194633733973,-0.0004136682921674666,-0.03034004195060096
0.0898448,0.01861178611641568,0.0010656184061030676,-0.029319138551563064,-0.007561325537657206,-0.04558464617327171,-0.012393619275781531,-0.001229361448436938,-0.03996724356423632
0.0903103,0.0184634,-3.903469406886577e-06,-0.028775649926977558,-0.00948483104006048,-0.04980992040255319,-0.01711998907040295,-0.002378687554766831,-0.04467668755476683
0.0907759,0.01829497358742562,-0.0019407137784587525,-0.02676085980896687,-0.012111962862911246,-0.037382609580171255,-0.020597083167596873,-0.004099452099143751,-0.03764896519085062
0.0912414,0.0172885,-0.0029196943894194203,-0.02369037797822874,-0.015000157665310513,-0.023780347524719005,-0.02083697797822874,-0.004446664356460745,-0.02727890108056965
0.0917069,0.016059280257253786,-0.0033144031742977312,-0.022744785192940337,-0.016167819742746215,-0.026125139485492426,-0.020966998238611177,-0.0045319,-0.0319689740352983
0.0921724,0.01677597209461429,-0.003657193412178574,-0.02449697209461429,-0.01834855736487143,-0.033030388378457155,-0.0213169,-0.004607120667673622,-0.04737742945948572
0.0926379,0.018514101935472416,-0.005105634946227012,-0.026235101935472415,-0.018927933978490807,-0.03998290774188966,-0.0213169,-0.0035931684469367054,-0.04969493591396322
0.0931034,0.01982570272420676,-0.00782615682914512,-0.026176833560531673,-0.017429230836324916,-0.05330143216008519,-0.01914672466905993,-0.002845821944853172,-0.05512740264752054
0.093569,0.019945061899346833,-0.009932138100653166,-0.024747324010373436,-0.01590214284902025,-0.055882808959658116,-0.01791634284902025,-0.0014234900230480428,-0.06454214306070001
0.0940345,0.01827532011241247,-0.010172481783117924,-0.022257595089251604,-0.013419864514001043,-0.04067572162002148,-0.016640119164647273,-0.00016651705533644737,-0.0629319470707432
0.0945,0.018019139275087373,-0.010633750049592267,-0.02086270479315622,-0.013457575024796133,-0.04058992497520387,-0.01529403565052423,0.0009873119033053954,-0.040056771499417526
0.0949655,0.018658714532286756,-0.010311912679155226,-0.019113225358310455,-0.012111666923875396,-0.06323105843443506,-0.012274580086482452,4.48396488712964e-05,-0.025772290848944033
0.095431,0.02040060593518471,-0.010224496618517188,-0.018173637183678495,-0.011532621187036941,-0.0448085628993131,-0.015390094147806881,-0.002874363561110826,-0.029723603381482812
0.0958966,0.020867323234934627,-0.013224117843376914,-0.016843370956331715,-0.010537820976386482,0.030786881739447144,-0.01904192946084423,-0.002553682156623086,-0.03739066698897026
0.0963621,0.020797745311842825,-0.015044981639803532,-0.018082203125438116,-0.00808764257883694,0.08121543684604232,-0.0216206615827644,-0.0013730135379156846,-0.06160671678900318
0.0968276,0.019800925663016694,-0.01615950575273748,-0.01884510575273748,-0.004643145573295912,0.06519852541912173,-0.02320910575273748,-0.0022483154088695917,-0.07866858423701038
0.0972931,0.01813528783647794,-0.0146637791482479,-0.020378505212938023,-0.003239101324807015,0.02182798783647794,-0.023605251217412228,-0.00540158957412395,-0.05852543905389017
0.0977586,0.01821604657056186,-0.012397034661078096,-0.02167430565336375,-0.005379902118013416,0.0009296062561200146,-0.023729121546081804,-0.008545236779091511,-0.0009534715950419183
0.0982241,0.017245552538870418,-0.012095525975858203,-0.020338431640753052,-0.009378843783815205,-0.0029328587909192823,-0.0209812,-0.010467853126024431,0.049444640544731557
0.0986897,0.01697153966904251,-0.013149343035669961,-0.021749749787942373,-0.010237085446495061,0.0013895668825002982,-0.017552636927259915,-0.010160389881100134,0.04484977256679509
0.0991552,0.01706632856466816,-0.013900407001676836,-0.022507299100641066,-0.009315191998083616,0.015501362332295291,-0.016682069233091512,-0.009905067232612417,0.016155295999041808
0.0996207,0.01684070260719147,-0.013803394145478045,-0.024562285245413422,-0.008881720372545147,0.02595370280897928,-0.018775987414253684,-0.00900751475458658,0.003939988290956091
0.1000862,0.015959857795987215,-0.013605238530658143,-0.02530272661203835,-0.007572077061316287,0.02851343079263556,-0.017614761469341857,-0.008581537396880038,0.011973931183948862
0.1005517,0.01626166575647113,-0.013121804304561035,-0.025187264182496706,-0.007237234243528871,0.026174473948230966,-0.013990546739849744,-0.007612402730586613,0.02392390462443837
0.1010172,0.016317641122685692,-0.01300013576770474,-0.025700481986923873,-0.00953910777402392,0.01696947079864861,-0.00863569343364665,-0.0068818,0.02397744963347048
0.1014828,0.015878595068071995,-0.01364948074740434,-0.028110930463660755,-0.010386816710480267,0.0025309248581282086,0.0002887850057278009,-0.006451572705873776,0.01116498822144774
0.1019483,0.015989835064120734,-0.012235345974351707,-0.0270457688467778,-0.012288308051296588,-0.010971989089769029,0.007579681038472441,-0.005450729871758531,-0.006793529871758532
0.1024138,0.016409625807004016,-0.01173990620339314,-0.02549093727163283,-0.012916482331978044,-0.015966368437503216,0.0049484292302814726,-0.005922191861017943,-0.020021591861017943
0.1028793,0.01630287266150974,-0.01157444244616342,-0.02671663021534632,-0.012517428042857843,-0.016252769784653683,-0.006867484892326842,-0.005596260430692635,-0.02981666330754869
0.1033448,0.015991928132046897,-0.011593153590344756,-0.02889921560385931,-0.010979542198070345,-0.015702456264093795,-0.02329688182895876,-0.004844485933976551,-0.037025357801929656
0.1038103,0.016384314869707074,-0.011314509913138048,-0.02953777521715488,-0.009781803423823263,-0.016169906336417537,-0.034215473837306366,-0.003911957434853536,-0.034693342565146466
0.1042759,0.016596862481381813,-0.01219228744414544,-0.02907837503723637,-0.007359162630327304,-0.017858712406909068,-0.0337680532637005,-0.0022831875930909317,-0.026542775484072845
0.1047414,0.01617311095935447,-0.012937936130080693,-0.028634519349596543,-0.005982989040645534,-0.0176242,-0.021584919349596544,-0.0027721832195158496,-0.024619655479677233
0.1052069,0.01615921865289649,-0.0125887,-0.030345478357915113,-0.007729308210424428,-0.01607007014749069,-0.0039496485054058015,-0.0035694190067031865,-0.034446510442472066
0.1056724,0.017627637756971345,-0.012513197549338695,-0.031022286710523286,-0.010486652629543899,-0.014595931291115579,0.009643921677630821,-0.004799066258223116,-0.043091610838815415
0.1061379,0.01815116202591216,-0.014012571080909562,-0.030698695812268716,-0.013514728919090438,-0.014539533106821722,0.011471409054997404,-0.00357675121681653,-0.039404064459545224
0.1066034,0.017235682135266998,-0.016105887389600233,-0.03238979159306682,-0.014214382135266997,-0.01309480420346659,-0.0008204973329258977,-0.0029573920785926616,-0.03138269159306682
0.107069,0.018121446429558277,-0.01832582145028207,-0.03435907143646621,-0.014609153570441725,-0.013241339288674828,-0.02559960544710252,-0.0029096821339755163,-0.029000378577349654
0.1075345,0.01725676442891337,-0.0175835577495969,-0.03515565536510555,-0.014429203576737031,-0.0149386,-0.04248927706945822,-0.0026941825904724364,-0.03335579403877161
0.108,0.015395792921101893,-0.01508353067522513,-0.03590854955228675,-0.015471447192654048,-0.017462209438530808,-0.03675046402505784,-0.0031225380690981124,-0.03976324011375594
0.1084655,0.01543334480879497,-0.014621582401496643,-0.03728035756108731,-0.01894831759850336,-0.01993615197006716,-0.02385294635323434,-0.002965494408979851,-0.045431052795510074
0.108931,0.01586441578541125,-0.014299711748882931,-0.0385240254701741,-0.02048294125558535,-0.02152255300446828,-0.014906842781725063,-0.0027018510320600407,-0.045335551032060044
0.1093966,0.016526940414729217,-0.01310471917054157,-0.03831467979263539,-0.020936120207364607,-0.016130816060072446,-0.012769019170541568,-0.0031214870253442957,-0.043430311937832665
0.1098621,0.017104473602271027,-0.010348663158383108,-0.036917251962057356,-0.020916675188109458,-0.0070884503762189185,-0.021187372930795947,-0.0036120391798931625,-0.03963511436800262
0.1103276,0.016976550681318023,-0.008093971252750883,-0.035159236713800446,-0.020238547956045936,-0.006005328747249117,-0.027762057835655385,-0.002841524659340989,-0.03831116546104956
0.1107931,0.017277008486049326,-0.005375079391023062,-0.0327306,-0.017898809698342087,-0.010063387877072389,-0.024587917691856313,-0.0027160951508289556,-0.03894861212292761
0.1112586,0.0175072173514943,-0.001184096173175666,-0.029958775956706082,-0.018985379503926057,-0.015231187978353041,-0.0162814,-0.004023751913412167,-0.04101848361035475
0.1117241,0.018306821370894958,0.0017554675337173582,-0.02760530228344606,-0.018899651712584547,-0.024896785479443226,-0.014738638011908178,-0.0055165505708615154,-0.042656716804002834
0.1121897,0.01914877337522077,0.002865155637095028,-0.026440254328405764,-0.01905057955173945,-0.0374304,-0.02149867337522077,-0.005319114178985583,-0.04091710065434463
0.1126552,0.019773474825658312,0.0032768897996606075,-0.025826805266521893,-0.01860964998402101,-0.0443124555832473,-0.026761297350760067,-0.005057394733478108,-0.040831289466956217
0.1131207,0.020430061202533826,0.004316551760866007,-0.02446488271546689,-0.016870665430933778,-0.04332746463153252,-0.02494321799120105,-0.004291287036600167,-0.04355513456906622
0.1135862,0.019775880032695977,0.004944528054406775,-0.02319745318816208,-0.013664406376324162,-0.034275553188162076,-0.01660484510105933,-0.00396157659408104,-0.04428795748216631
0.1140517,0.018609794950054513,0.0047518348418829565,-0.02209161046666139,-0.010410789166568192,-0.029046178333136385,-0.009145705416715904,-0.004773327083579518,-0.03762055145880108
0.1145172,0.017966929286825754,0.0038300374302804546,-0.020990573313157516,-0.009595519939472552,-0.03105678665657876,-0.00624320659605131,-0.004659962721038165,-0.03255576931708948
0.1149828,0.018453120270682157,0.0017230488964677935,-0.021638892333140022,-0.01154047699942006,-0.03138094616657001,-0.00851232316599007,-0.0019045586049820568,-0.03206948177097213
0.1154483,0.018767161796804425,-0.0012708060619265964,-0.0224718102267998,-0.01352379415616531,-0.021388785390413275,-0.018603292695117547,0.0008551707806483664,-0.03392948831233062
0.1159138,0.01854908932208196,-0.005190573465191908,-0.022383223980967516,-0.0142672,-0.020941651988328334,-0.0337377,0.0010562598919050417,-0.033658603976656674
0.1163793,0.01709517444842049,-0.008275542243548938,-0.022234683726483403,-0.01613269144478887,-0.03467044129258939,-0.04434404193914999,0.0013024168823144988,-0.030191492623856175
0.1168448,0.015996274074131185,-0.011363906172972766,-0.023314141975289606,-0.01691908395057921,-0.03112650312786536,-0.04327070370347526,0.0022058290537341737,-0.032578877777606444
0.1173103,0.015826395773024096,-0.01426628435307363,-0.02371478794956091,-0.01619541837558558,-0.003273257492901503,-0.03217809640351272,0.0026601397171698116,-0.04819674397478045
0.1177759,0.017146134719768086,-0.01481029667255659,-0.02400064054279405,-0.016437827233020418,0.015597697504417444,-0.019237668607675323,0.003473830560463827,-0.06683740118391694
0.1182414,0.01839642740139306,-0.013830672598606939,-0.021840484085879977,-0.01570046685497042,0.00786138655219886,-0.011460137512756083,0.00429363122391513,-0.07671452936192116
0.1187069,0.019579215320546073,-0.011146938717815707,-0.02011186862051681,-0.012007037468464139,-0.01843336862051681,-0.009230739550716753,0.0040778306410921466,-0.07782238509590446
0.1191724,0.01979006311556249,-0.0109102,-0.01994181661438813,-0.011710733542447496,-0.02463497513327562,-0.00746610365566126,0.0038927833856118744,-0.07131016771223748
0.1196379,0.017987419082943025,-0.01117979189374552,-0.020920682631907783,-0.01103121834113949,-0.004570525151834968,-0.007261596156518662,0.0037504236682278985,-0.061628219082943025
0.1201034,0.016930547661944698,-0.011482923740888482,-0.02148232261041361,-0.01149646663663871,0.0384597523380553,-0.00607157911736232,0.003095267857197447,-0.05517837938761392
0.120569,0.016817929396297567,-0.01028375686790081,-0.020870270947526724,-0.012073172528396755,0.07260684856235786,-0.007241454943206489,0.0008812172413659755,-0.04329021950988459
0.1210345,0.016896070590141126,-0.009819381666882359,-0.021815642545537823,-0.013590583627159161,0.08218205715695157,-0.006555710493538299,-0.0004738595133998971,-0.027038522450993082
0.1215,0.017157969007227096,-0.007826999724103618,-0.0237537206618486,-0.013602162388741087,0.054958200339545835,-0.008504407021681294,-0.0016658962875617108,-0.011251920258653318
0.1219655,0.0186773771183931,-0.008834753728964142,-0.02610808457632138,-0.013381822881606904,0.010970850345334427,-0.017257482950288158,4.608620235460305e-05,0.010544005141226206
0.122431,0.020683546283393427,-0.008636400123148999,-0.0270237,-0.010859466584567334,-0.017257200492596,-0.02618823415432666,0.0015486538397555714,0.03028224579079743
0.1228966,0.020692605473447184,-0.009754640210279442,-0.02707051005256986,-0.010578169395128168,-0.021226949289988445,-0.03157573105203408,0.0017450456837266224,0.026227936078319015
0.1233621,0.02102734096778134,-0.00962613254988303,-0.027489542111107584,-0.010931174660990611,-0.018442430125025673,-0.03816472169631935,0.002098189071929872,0.006030013203914595
0.1238276,0.0212790753450894,-0.007752739354365075,-0.027664842078747795,-0.010864813118121692,-0.015615725732451477,-0.04284698688187831,0.003715391187593812,-0.0040146524724867655
0.1242931,0.02045408140315729,-0.005244009676285928,-0.027258956047678706,-0.009808997580928517,-0.001651753628607223,-0.04477324278755753,0.0055371524638434585,-0.0005677422889789608
0.1247586,0.020048528799330327,-0.0032263143996651626,-0.027744719199553552,-0.009598413847322977,0.01976864855122606,-0.034857213602009024,0.003413156801004511,0.0052033
0.1252241,0.021154350441653275,-0.004976913787325883,-0.02882497805800203,-0.011205151996971032,0.02247120897402795,-0.02847010815467208,-2.8794283952223885e-05,0.00573560485499492
0.1256897,0.022537120202906543,-0.00559206863410095,-0.029297047276327922,-0.011489736731593507,0.008905400968211984,-0.045973646039811744,-0.0009605569345000531,0.001358626536812985
0.1261552,0.0198144060169448,-0.006462605276581962,-0.028482622755400963,-0.012053382521180999,-0.008989154823448867,-0.0774184234957638,-0.0004871879661104025,-0.0032526349576380027
0.1266207,0.01842756419085876,-0.005067348704692635,-0.0283665,-0.01170598685776888,-0.018510488762704683,-0.08514106228592297,0.0009145618469237539,-0.007215704885679362
0.1270862,0.019530605488565354,-0.00937747875952887,-0.027992815751905775,-0.012101063007623095,-0.024021920864488486,-0.05143526812020581,0.0007155424809422612,-0.011341378045738574
0.1275517,0.02016789892475976,-0.012960348670859647,-0.0283665,-0.009542142580945424,-0.026590116034473213,0.0012987828902865492,-0.0035301456259025357,-0.022954005703237818
0.1280172,0.02074839174334239,-0.013944357636679217,-0.028572283486684773,-0.009024614679177983,-0.02656069481743642,0.026767780138258434,-0.0071403311924932095,-0.0315711613049537
0.1284828,0.02001806972268429,-0.014733387584238712,-0.0283665,-0.01088088394060553,-0.02855561970302765,0.0011749,-0.009069026990294016,-0.0331059700399825
0.1289483,0.018714180577668365,-0.013463191075730619,-0.028101282151461238,-0.01272130892426938,-0.032063377689326544,-0.03383715669320204,-0.011059385039803055,-0.027821557242277594
0.1294138,0.01848053308597927,-0.009671150901506567,-0.027232189364882326,-0.012495920360602627,-0.03803221527045197,0.00010981618008469208,-0.011604168717033866,-0.018209243553526416
0.1298793,0.018702078251189733,-0.0042751304928616025,-0.026764183259601067,-0.011875515993654757,-0.03722346674087871,0.08982829775880792,-0.013359872496034224,-0.013664322440135298
0.1303448,0.018566875313564355,6.373082892309735e-05,-0.028173227416935284,-0.01272557758617059,-0.025825804551369395,0.12340260102450575,-0.01569424766687738,-0.021030755974862127
0.1308103,0.01889515982429745,0.0012592093850410818,-0.026785578934109412,-0.01230436441683238,-0.020865370086933198,0.07528070938504108,-0.015050054153278558,-0.03783357751589565
0.1312759,0.0191541976246545,-0.002166482824743202,-0.027015941412371604,-0.013549248474229607,-0.0251657609629739,0.017117811072175224,-0.015158912707146944,-0.050413979773202416
0.1317414,0.01923856146195758,-0.0052524312282545066,-0.026959561461957583,-0.011709877076084835,-0.01612105365489396,-0.001670480294506016,-0.013308203903531813,-0.04918884225373932
0.1322069,0.01871877056030776,-0.007859346961077162,-0.028191558879384477,-0.01104140584046164,0.004919020678999779,-0.0032804600027095485,-0.010560317758768959,-0.04099957955838426
0.1326724,0.018229758731427254,-0.0072175,-0.028820972343857082,-0.01063532310275506,0.011573707972529277,-0.012335463069173483,-0.008456196964408094,-0.034466949241102024
0.1331379,0.01963941210230748,-0.002988088853102113,-0.02964399983895951,-0.009382207842208496,-0.004396189014142603,-0.026117616639826587,-0.008359288853102114,-0.030883738933622357
0.1336034,0.021311215331880348,0.0031891,-0.028332402148521136,-0.007478916861337949,-0.02505496380197182,-0.03494410859408455,-0.006680308301852159,-0.0330663
0.134069,0.0219556415394733,0.0080195338421068,-0.027261424618419898,-0.007131341287083725,-0.03352993256817598,-0.04370691177154855,-0.0067511661578932005,-0.04028189357656432
0.1345345,0.021419581740736517,0.008719059829620335,-0.025979470785178423,-0.007795692696294607,-0.029532359829620335,-0.05620107668890663,-0.005072963481473031,-0.047752498600022814
0.135,0.019970000657886816,0.005416056359672737,-0.023601132500030014,-0.007242088728065452,-0.026598187280654526,-0.062284393143263776,-0.0021000400146530453,-0.05590233975137845
0.1354655,0.019760042572666815,0.00010343840539816992,-0.020858101304025815,-0.008486180145288007,-0.03771582714041466,-0.06269866789867327,0.0011749,-0.07104226032970956
0.135931,0.019357150159297964,-0.0033885625716458525,-0.01978361484390329,-0.010769423863871282,-0.04899785495334701,-0.062027153870273785,0.0011749,-0.08313023300608802
0.1363966,0.019142326941891115,-0.007548029649405402,-0.020921002396835094,-0.010917722458900112,-0.054370407190505295,-0.054561436218198194,0.0018162011984175484,-0.09534527425688054
0.1368621,0.018990810777360166,-0.011321860286300781,-0.022133371211194904,-0.007741493191644132,-0.047061329362067944,-0.040100237300076544,0.0027104927659152363,-0.09785834978713555
0.1373276,0.01901384564014694,-0.013443551669522448,-0.025150036920440818,-0.0023771665682127538,-0.022991372597588263,-0.0196384,0.0027948429498163264,-0.08188698654834693
0.1377931,0.01892320740266911,-0.012375234266775966,-0.027177589692734615,-0.0021559525213623726,0.0099031,0.0033603699589709133,0.001021021767623796,-0.03990776590128162
0.1382586,0.018457274770600926,-0.011929554109113644,-0.027670591781772714,-0.0043922657458182945,0.021680564747006963,0.04194896071423024,-0.0004092246546818605,0.02187574266466498
0.1387241,0.018384523977498818,-0.012621399335352244,-0.027074513701427896,-0.009853225178451878,0.005468351557856819,0.053819616054174256,-0.002597614902380957,0.04517586797083418
0.1391897,0.017304509026283162,-0.012860363894867341,-0.026424343002698768,-0.0135958,-0.01933422850061987,0.021188045846239522,-0.005378909737168352,0.014058108323274995
0.1396552,0.01660610203992772,-0.013565554790769348,-0.02570289592014456,-0.01360679796007228,-0.03282958164065053,-0.019002742551203034,-0.008133867648435562,-0.002424218977449371
0.1401207,0.016542599962844923,-0.01179120217094887,-0.026097665573151005,-0.011704367744099874,-0.023855058110418877,-0.03429857201168745,-0.0071806807326380145,0.005566023646414804
0.1405862,0.016160152585759917,-0.011124652585759917,-0.02713029232217129,-0.010266842242720252,-0.002460247573142158,-0.02263476839050661,-0.005560720976266527,0.005213476517424595
0.1410517,0.01663918789453679,-0.0109102,-0.02832223450056542,-0.011769407546174173,0.00027681001824817896,-0.00011825143670849065,-0.003085473045608751,-0.0054818086037669465
0.1415172,0.01766311890413836,-0.011270248766893125,-0.027648940230559825,-0.01312877315033969,-0.013610370137245233,0.008754894520691796,-0.0035052427407042093,-0.004556145162987317
0.1419828,0.018262272742964887,-0.01121257274296489,-0.0270237,-0.01262202725703511,-0.028628263196983087,-0.00596497205250974,-0.0022486545140702205,0.015334835939947977
0.1424483,0.017939328260968095,-0.010920485869515953,-0.027013414130484047,-0.012944971739031906,-0.03724384357597811,-0.019095571836946205,-0.0028739717390319055,0.02297946512144759
0.1429138,0.01722452055249103,-0.011469828066281393,-0.026592030828736547,-0.0135958,-0.04108258736138136,-0.02276333321769863,-0.003972656132562787,0.005682386987888296
0.1433793,0.015970141800974304,-0.011740235234740421,-0.027017589549756426,-0.014254979099512849,-0.038831248367208186,-0.02118566270146146,-0.0027008752155031545,0.003250204502435761
0.1438448,0.014623934176821247,-0.012147829115893767,-0.027653031646357507,-0.015064331646357508,-0.024232555701323794,-0.021013594961488764,-0.0020671588566230897,0.01570465379569561
0.1443103,0.014228739264319685,-0.011694377930353831,-0.027469558896479528,-0.016482163786233572,-0.004675296321598423,-0.023248581579192625,-0.003668196321598423,0.018504838651252756
0.1447759,0.01416577233196978,-0.011644161098558975,-0.026914218077521795,-0.017748756292363457,0.01658581945072051,-0.023510299583104292,-0.004660933430528755,0.010371742334437823
0.1452414,0.016090824234196617,-0.012973951768185889,-0.026543530586930292,-0.01853638235511618,0.029652786091092006,-0.024053347065348542,-0.006689174115907056,0.0013661305869302914
0.1457069,0.016703702770424184,-0.014109426592554155,-0.02705693009282453,-0.01832646426680504,0.040177728533610076,-0.023186303500270372,-0.006470208311272547,-0.0070442944591516355
0.1461724,0.016637398293003765,-0.015193106827984935,-0.0283056051209887,-0.01833619658600753,0.031208291499343725,-0.02508605465820438,-0.008163705120988702,-0.01380033926091338
0.1466379,0.015291153937050139,-0.015493315132319583,-0.028405394955893472,-0.01770708278669243,-0.008616143099831325,-0.026376846145964507,-0.008662630264639164,-0.019891211420195287
0.1471034,0.015699955263001476,-0.013921504970777614,-0.02934361491233284,-0.01845138947399705,-0.03597765467855375,-0.029177830409113405,-0.0109102,-0.02314022941240932
0.147569,0.017265073304299033,-0.01344750240073428,-0.031779720720220284,-0.020253579279779714,-0.025577831470814508,-0.029928734264592746,-0.01013104501518697,-0.026515513544372465
0.1480345,0.018065986631368745,-0.013851935026473442,-0.03304436516792978,-0.01921405347452503,-0.012279521657842185,-0.029554353280121806,-0.007668056684315629,-0.03136586516792978
0.1485,0.018304023718479417,-0.015544544743695885,-0.029914089487391767,-0.018181536924350605,-0.022299605839397406,-0.029500827401716306,-0.0075532,-0.03622693423108765
0.1489655,0.01895645634703189,-0.017560938082191332,-0.026468280182649226,-0.01912952974391406,-0.03208913406392476,-0.030364886090945953,-0.00950413808219133,-0.03967486347031888
0.149431,0.01968765285029539,-0.017033165796455335,-0.02505875285029539,-0.017753818646750723,-0.013842064251476945,-0.0318310756526585,-0.008329599557446088,-0.040138042994092224
0.1498966,0.02095573128635635,-0.01584382514542541,-0.02557902514542541,-0.018618561849804087,0.01852942514542541,-0.031430613586472145,-0.005930244149919878,-0.040197012863563523
0.1503621,0.02146242617835748,-0.014088956330741522,-0.024724346671905612,-0.01681167309310795,0.03288805633074152,-0.029739059333388655,-0.0034356781653707602,-0.03895293015238404
0.1508276,0.020556944495415674,-0.014415949490321982,-0.02450537150865928,-0.018291210206605922,0.017185183779131735,-0.027651452204568442,-0.002468502497453153,-0.03707502099898126
0.1512931,0.020884886049141176,-0.015496234895992163,-0.021318294046258738,-0.019731916294847066,-0.009297303346831287,-0.021459972098282355,-0.005579875445113643,-0.035687690699427455
0.1517586,0.02203769351845926,-0.01676199188971437,-0.01916734567385606,-0.021194660535314484,-0.023790728113629513,-0.016598019188971438,-0.01191158973568664,-0.0344091
0.1522241,0.021022611697545622,-0.01727814630456091,-0.01961769260912182,-0.020839185780703092,-0.027570855654730927,-0.01840645621719038,-0.017443008787710566,-0.03408375369543909
0.1526897,0.018083766869141434,-0.01758654142813204,-0.020284694285421363,-0.018232835713553403,-0.026226771427106808,-0.021658874558990612,-0.01932614401082688,-0.03913722912208215
0.1531552,0.01692733072999706,-0.01653432297576196,-0.01961293072999706,-0.016585261515767846,-0.02289979213421745,-0.021686688229213037,-0.015361676514199799,-0.0486930541042498
0.1536207,0.016273796146821794,-0.014425495749795724,-0.01897650425020428,-0.015787305382741243,-0.020422472630726482,-0.01826518458728717,-0.009008771498189518,-0.053315269174574347
0.1540862,0.015675221495228233,-0.013677322011908745,-0.019724677988091254,-0.016535568273838168,-0.016082850983278132,-0.015870885980912925,-0.0046690606975312195,-0.048526671961825855
0.1545517,0.015714395456931797,-0.014542282700588466,-0.021102432592491373,-0.018383156315040523,-0.0037998827005884662,-0.015972641021960683,-0.0031554237225491478,-0.039766829489019655
0.1550172,0.016090883229026645,-0.015600952752602771,-0.02233294724739723,-0.017592533286589978,0.008388402299452648,-0.014539569268219397,-0.0010110977005473515,-0.04084620576056227
0.1554828,0.01596180025947542,-0.01621697977227774,-0.02353785954455548,-0.01580326068316678,0.0073463404554445205,-0.004284243871278421,0.005837487089965434,-0.04488446826032989
0.1559483,0.01597885680100396,-0.016923775188956422,-0.02508208433805017,-0.014416405604517827,-0.008796529596988114,0.01247678318644652,0.011453104785944539,-0.046262107331429374
0.1564138,0.016959857801153482,-0.01622493759077216,-0.024838170048216656,-0.014288373403460442,-0.027549960631143972,0.026140112571392513,0.004620579062041397,-0.045165515602306965
0.1568793,0.01727525389372402,-0.013701768850207824,-0.024680425026046282,-0.015234561681172066,-0.036065655130548595,0.031659591167262094,-0.006418190226157356,-0.04579630778744804
0.1573448,0.01620250674224532,-0.011442018625583203,-0.02455436169984448,-0.015447803725116642,-0.03397437172062404,0.02407908837806768,-0.013590096274883359,-0.049596598137441675
0.1578103,0.01646412297402775,-0.011003882490381884,-0.024550520241822932,-0.01596554043728314,-0.029338999976818637,0.007943277072334975,-0.01636030819661445,-0.04732827046835476
0.1582759,0.01713406547555612,-0.01081680638057002,-0.023572473750858334,-0.014213354137651107,-0.026311919613207228,-0.010105858623488931,-0.020932783920892744,-0.03904075603238331
0.1587414,0.01841516222589328,-0.00993988922019466,-0.02303208922019466,-0.013703818887053361,-0.024425475503425408,-0.023993202694951334,-0.023257424299350047,-0.025745281135340654
0.1592069,0.0186313,-0.009808503973685186,-0.022801587328332845,-0.014066675769349673,-0.02368923600603099,-0.036378241410216776,-0.018358702326787095,-0.020778429634836112
0.1596724,0.0179599,-0.009544402755170977,-0.022530875203461212,-0.013434819286196836,-0.01848405785859051,-0.04616775867243535,-0.013147357151101368,-0.024494497952318162
0.1601379,0.017738517557386563,-0.0092317,-0.025418994147537812,-0.011098311704924375,-0.012111006889515401,-0.05073838725802241,-0.007160391221306718,-0.024458018237520304
0.1606034,0.0186313,-0.010331127153993416,-0.028373774864253607,-0.008595178975855015,-0.0037340738551300944,-0.056703935918441535,0.0014169094127414311,-0.016351157951710032
0.161069,0.01949565472469266,-0.009181490550614676,-0.028940480068757424,-0.0075532,0.0032816501955023458,-0.06951662549290483,0.012067928348155973,-0.026573322786493728
0.1615345,0.020875811484248465,-0.006938758221722233,-0.027524421728256178,-0.006199086913024704,0.002563355303246892,-0.07930448767663424,0.018665435654348764,-0.04160685209779323
0.162,0.020601738735854195,-0.006940142559069686,-0.027388571279534844,-0.0074948574409303146,0.00018224666473103189,-0.07327670688562074,0.018937828720465157,-0.03283946224003885
0.1624655,0.020322238415417474,-0.0073541260521741685,-0.028577778782608854,-0.009281468486956459,-0.002443047269565313,-0.050180376715017946,0.013054402767192113,-0.002809780224113416
0.162931,0.019049014851480313,-0.008117216633667717,-0.02801811952102425,-0.009358542574259844,-0.0037843944554440947,-0.025595114851480315,0.008140861418265819,0.014563981584144882
0.1633966,0.01920681496679827,-0.007960810680250436,-0.026544192926956194,-0.009111840613846973,-0.012109129593925934,-0.00810487156645532,0.005970435506588488,0.007840787480027103
0.1638621,0.0186313,-0.008557849789679153,-0.02365199435748435,-0.0077088445678052,-0.02371571880838549,-0.0029269282125782376,0.006195694357484352,-0.0009176300934167871
0.1643276,0.0186313,-0.008400719843261436,-0.022708933755355133,-0.006922913912093699,-0.02685925414881622,-0.007642231223224327,0.005252633755355135,-0.005947286638105948
0.1647931,0.018672445769971915,-0.007107130370533595,-0.022933587473396307,-0.0077252821560700995,-0.021693745769971916,-0.014781515996294771,0.003973209056912616,-0.03676553384022467
0.1652586,0.018711282601532587,-0.008310890439080447,-0.02362829804118253,-0.005698965203065176,-0.015366898276628307,-0.014858617398467411,0.002683973040613035,-0.06131287609770112
0.1657241,0.0172885,-0.00865036459564737,-0.02440828154410075,-0.003805526176403004,-0.013074654613974812,-0.0038757077205037547,-0.00015025984048241584,-0.05236368903177716
0.1661897,0.01705908982617885,-0.007799415364058146,-0.02391736307281163,-0.005245818463594186,-0.007430092317970927,0.0067878676553046625,0.0007586107815651126,-0.02972264312626045
0.1666552,0.016469967926053035,-0.006063267926053034,-0.023813832073946963,-0.00886841547541246,-0.0036212977279416947,-0.0017543424537831466,0.0031339254722698878,-0.013821150944539775
0.1671207,0.01769748089126216,-0.006345433044528442,-0.02304167428235647,-0.010721153737660182,-0.003632826435622753,-0.02253995287124551,0.004140308193299587,-0.012156385767338499
0.1675862,0.018446885365312055,-0.007506340856063379,-0.022929221777535837,-0.01015088841331251,-0.013089595556160405,-0.03076334930208043,0.001667294252991247,-0.014421777780802019
0.1680517,0.017265494397925924,-0.008190091596888887,-0.0240024,-0.008896,-0.026582356020740754,-0.02763183630755233,-0.002575214005185189,-0.01677813921451853
0.1685172,0.016648344924801353,-0.007264367387202028,-0.0240024,-0.008896,-0.03275385075198648,-0.025934721216354983,-0.00411808768799662,-0.021098185526390537
0.1689828,0.017935260812096485,-0.0059148177946679115,-0.02434724590622077,-0.010928491812441538,-0.03597992669200187,-0.026512785853589994,-0.003441765879905382,-0.028120181495556593
0.1694483,0.018944333242053347,-0.006083473717386285,-0.024410629304350697,-0.011291230815219183,-0.04265654139129861,-0.02096759940509718,-0.0020640625464040385,-0.03386462628261372
0.1699138,0.01831104166049814,-0.005398066790037222,-0.026026376795808954,-0.01110692505551675,-0.04612761667900372,-0.002020174796438584,0.0004417379578467349,-0.03462528324697394
0.1703793,0.01721634676209232,-0.005782279508802179,-0.027802174083689415,-0.010067673729105501,-0.024076940627811728,0.012626859194896315,0.0007694462302164464,-0.03348309316960073
0.1708448,0.0172885,-0.005732711656182035,-0.02825580919518799,-0.009882882244227313,0.010087584674686683,-0.0010754024915287192,-0.00031538773974934683,-0.03445521842091065
0.1713103,0.017772565127562815,-0.007381343125786696,-0.027828011930407636,-0.010488571562893347,0.02337262859381556,-0.016645934245601565,-0.0006283857814466738,-0.03694899372137837
0.1717759,0.01774952069360276,-0.007973958612794483,-0.030420962080808276,-0.01288111495173977,0.014473750597082299,-0.021104996766157826,-0.0014658034680137925,-0.03594291022971557
0.1722414,0.01730173886052043,-0.007599945961583386,-0.03018202966327061,-0.01348478008185465,-0.0017427739565619642,-0.016558667548020767,-0.001574877437792347,-0.03226634860564569
0.1727069,0.017213424535496805,-0.007230012577417199,-0.029087950309668795,-0.014087905354060322,-0.019675937732251597,-0.01370729526527727,-0.002182,-0.029280875464503194
0.1731724,0.017340248686719652,-0.008206600223668656,-0.028845349637311442,-0.015583000335502984,-0.03309329966449701,-0.015757550921860198,-0.0032228502508542278,-0.028362000055917165
0.1736379,0.016983242542522786,-0.009445629829908856,-0.03039638728738607,-0.01622051491495443,-0.037339904404681,-0.01898304876932211,-0.004104872372431642,-0.0283665
0.1741034,0.017845720304905464,-0.010577919542641803,-0.03188198375607563,-0.014558595939018907,-0.035058347969509455,-0.019046191878037813,-0.0056088756341134425,-0.027224824746356836
0.174569,0.016984936217304687,-0.011090849078727325,-0.032756198157454654,-0.015396799209831795,-0.025564611809045495,-0.019857811809045497,-0.006075140164604323,-0.028495952763818024
0.1750345,0.015516852603683814,-0.010400501735789209,-0.03285187630184191,-0.015529149132105395,-0.01290418728302635,-0.022257163584868258,-0.00405252382178245,-0.03590568554723714
0.1755,0.015996899313875004,-0.009067852434053008,-0.03080632865107951,-0.01181489527128313,-0.004319085674460243,-0.022078134752046372,-0.0035043190542566258,-0.044987558535019866
0.1759655,0.01768879414259433,-0.008360152928702836,-0.03163313138086478,-0.0119173,-0.001872074476540894,-0.02116192377854165,-0.0036701011153517965,-0.047620826638810905
0.176431,0.01895135448489413,-0.007857623637729821,-0.032752894403492584,-0.018505976723497096,0.0007362857949312414,-0.015856201399126853,-0.003802277761397033,-0.04369217019073563
0.1768966,0.018446124401103495,-0.006583121451103601,-0.034290633709090676,-0.020524564926168963,0.010613988763636442,-0.01289478342727267,-0.004837983427272669,-0.03822517514090901
0.1773621,0.018667162651068256,-0.006569026510682552,-0.03242077228077141,-0.014364797582907915,0.018986359552051756,-0.023746371598846988,-0.00594642530213651,-0.03188140962970315
0.1778276,0.0186313,-0.006664157090732224,-0.031269742909267775,-0.0073844769642423215,0.017910980126489905,-0.04249792937333206,-0.00782650189734855,-0.026801078620174227
0.1782931,0.01710264103502721,-0.005977241823927302,-0.03204638227200909,-0.001364467573327195,0.0036554201703545095,-0.05518394681602726,-0.012150458176072697,-0.026121584714372682
0.1787586,0.016686690618490253,-0.007946208701365955,-0.03195946007671392,-0.0008816456342566377,-0.010843570465062395,-0.050274737939729405,-0.014696688931507737,-0.02544349496917323
0.1792241,0.017733644627055567,-0.0065262004380097745,-0.02994550219004887,-0.0013565886117458655,-0.016753804380097746,-0.03257274681710444,-0.016395612264273683,-0.023343545298719622
0.1796897,0.018704887886036678,-0.006283987886036679,-0.02917736563723552,-0.00025690084880280756,-0.01614193436276448,0.003515690974330114,-0.01822201211396332,-0.017854072683779924
0.1801552,0.018617219991054153,-0.008140124979093513,-0.030607731675839772,0.003098994988622612,-0.010021365029269083,0.03322178662206616,-0.018400401609522266,-0.018033110007196092
0.1806207,0.0177225790406846,-0.008981912581822475,-0.0319116363232468,0.006066761486891744,-0.0036935518937377372,0.0361281628779462,-0.017419672054246133,-0.031287717171839924
0.1810862,0.01624209674046788,-0.009524852152513962,-0.0318659282902933,0.0030203585098423445,-0.0067721740854788815,0.019550734666967256,-0.01320601199263269,-0.06213616088561453
0.1815517,0.017393004421040227,-0.010433847634098693,-0.03199262074131132,-0.0033639898219111524,-0.009024468375410015,-0.010088767350164006,-0.00861749897475399,-0.0896459836704351
0.1820172,0.016294263181859857,-0.010379795329017474,-0.03238523814721875,-0.008475309556319376,-0.008786285772698098,-0.04702780920566949,-0.00020218884201089732,-0.10671763863643309
0.1824828,0.017378725012342087,-0.0105745,-0.0340734,-0.011641750008228058,-0.010474525078166565,-0.0644260998354388,0.0058747,-0.09504450871205132
0.1829483,0.01823154693709781,-0.01051044693709781,-0.03389191950185174,-0.012124893874195622,-0.01637747641427867,-0.05072788591339888,0.005661189790326036,-0.07654697052281914
0.1834138,0.01727231722442662,-0.009462211958773031,-0.031151221998661546,-0.010408719143520487,-0.017723224408964726,-0.029159270816800347,0.0028413555114675977,-0.07421771865210182
0.1838793,0.016624317788513494,-0.010155259066023128,-0.027386749482828744,-0.009277840196857793,0.0029622458973404455,-0.016259746634459525,-0.0006533128251499173,-0.08094150427629805
0.1843448,0.0163747667084158,-0.010072000375742208,-0.026752516395297295,-0.008039967334652811,0.023893614712418607,-0.0169438834794553,-0.0014862649002897097,-0.07484528142083441
0.1848103,0.017573438656271402,-0.008019423615155072,-0.027434057089804217,-0.009683420991248953,0.029127055393595978,-0.0158379544658981,-0.002956036032365285,-0.04443138262654503
0.1852759,0.01879240280915218,-0.007920320937257823,-0.02583077344443782,-0.016051740633974996,0.019314018628230997,-0.011370960434511178,-0.0068818,0.020460666689411825
0.1857414,0.019205103307620798,-0.007272186769516808,-0.024033547612504137,-0.022617542825071658,0.007543128649213692,-0.008647415829668364,-0.01191055882873874,0.09849508547614459
0.1862069,0.017995478356525745,-0.008088981095649503,-0.02466936809751189,-0.02767726713377482,0.004723111330557242,-0.005827989259117608,-0.010464458377450797,0.15493376976509224
0.1866724,0.018606990187116926,-0.0078889,-0.02578802184702781,-0.02508242943864922,-0.0035155324808029353,-0.009538452806753889,-0.006526427567479962,0.162660942293686
0.1871379,0.0186313,-0.008928519356414774,-0.026760720949261494,-0.020122811278857792,-0.023433316106255958,-0.018793896782073872,-0.0022991919713010248,0.12099054347525336
0.1876034,0.018701255807665504,-0.011693320194630367,-0.027247571922147853,-0.0125324083697977,-0.054620316844346234,-0.026184396058389108,0.0010347726182254333,0.055823632367501826
0.188069,0.020098258725619062,-0.012203313958625103,-0.025566168726430406,-0.009889369259777962,-0.07894729261772003,-0.02717018328654988,0.003922162547139188,-0.017516321340905062
0.1885345,0.01914502523514281,-0.010869311239577826,-0.02317767019345411,-0.010951088760422174,-0.0881353701934541,-0.023660825813243025,0.009065529228445677,-0.07054780790549045
0.189,0.01931127574868483,-0.010234512125657584,-0.02086475449210898,-0.011637342366451395,-0.08539795620950341,-0.020942609130918263,0.014065671183200013,-0.07125014379044521
0.1894655,0.020226112928359935,-0.011183009209933741,-0.01893963952685592,-0.011721609499462852,-0.0704691322981737,-0.01983440912857479,0.01944206390204116,-0.04034648356138404
0.189931,0.021114237936678673,-0.01162504999037721,-0.017728486189963987,-0.010273562063321329,-0.058718448253285316,-0.022445567221624652,0.020914358661355482,-0.015366665556750697
0.1903966,0.020370938160704528,-0.01248175221627626,-0.01959268129860482,-0.011093056648828781,-0.06205736973321541,-0.02476522832441439,0.0156113884314417,-0.011763531027867648
0.1908621,0.020030487480430775,-0.013464210547157577,-0.020234609226690722,-0.011804513840036081,-0.0708042588261539,-0.025121001320466855,0.010058798506402067,-0.01508366458683505
0.1913276,0.019401972487781607,-0.013166661758782868,-0.019308534246564476,-0.012775491268327591,-0.07029091746334482,-0.025606453027110457,0.006084998682798836,-0.019614892585528752
0.1917931,0.019431207459073015,-0.012555152516084715,-0.018921854598180292,-0.012793411857108344,-0.047444043375206045,-0.025159435916133035,0.0032473403141683663,-0.025690638343036618
0.1922586,0.02028437825870404,-0.01358308912935202,-0.01666158804726793,-0.011635620253659437,-0.006302552865603378,-0.021361386154078975,0.0014534029752730445,-0.02965210108208409
0.1927241,0.021096421580223346,-0.014532046866560313,-0.01634297029984047,-0.011996754059968095,0.035663845013503497,-0.018189661253375875,-0.0003754230852883876,-0.03368473062668794
0.1931897,0.020863023408686503,-0.015344834816583658,-0.01718906305621887,-0.013280921281489031,0.045035801364801994,-0.019572108704145916,-0.000584287422656883,-0.0341520156622921
0.1936552,0.018340284127863107,-0.01632161603885515,-0.01849258441741631,-0.013464473795046733,0.05605057326857475,-0.022338673865247252,-0.002231247326857475,-0.032976836634287375
0.1941207,0.016217502700154887,-0.014601576618932983,-0.018547044154733246,-0.012126616232099869,0.08466651420518019,-0.02387338201924276,-0.0031469720773666227,-0.03436829545843364
0.1945862,0.014562117321164697,-0.012273391339417652,-0.018347329374660916,-0.011286682678835303,0.09689228369945754,-0.017704251156888087,-0.0028126173211646954,-0.03658643071534121
0.1950517,0.01419966248154326,-0.01165282430249352,-0.01744389654938109,-0.009996537264818021,0.08837880268970275,0.0033019620745889824,-0.0027951274994737103,-0.0372361519022904
0.1955172,0.01400059172681612,-0.013450253811069632,-0.019703426296921633,-0.010384346188930367,0.06032775621929694,0.022024013480539482,-0.004786316826180457,-0.037927038573347456
0.1959828,0.014543734739271,-0.0139475862889004,-0.022383065260729,-0.012865234739271,0.021454513273609675,0.01131665570654881,-0.006250273696354995,-0.03732236054453249
0.1964483,0.014518931674953644,-0.014272497489929961,-0.023614198134322847,-0.013417432296846027,-0.011413663349907285,-0.008014765837476822,-0.00895893291873841,-0.037000300621892385
0.1969138,0.014720545028156657,-0.014502121167739067,-0.02234070147546084,-0.012991585888173956,-0.025093487363634794,-0.009786143294452664,-0.012639159139982703,-0.03712806350321721
0.1973793,0.015569445556446649,-0.015251127018381515,-0.022648013509190757,-0.012600286490809243,-0.023064818944855455,-0.0007989572413566882,-0.016148153629972708,-0.0396991945643353
0.1978448,0.01597243943861781,-0.014965339438617812,-0.023344369719308908,-0.012951139438617813,-0.012494335447518507,-0.006721363368293133,-0.01819600561382189,-0.04153378848215681
0.1983103,0.016305786503945065,-0.013620642115698961,-0.02533208071992152,-0.014751997107988229,-0.00386663922368719,-0.024456771380355975,-0.018506589395956837,-0.04164632892011772
0.1987759,0.016282089929350308,-0.013394655971740122,-0.0250095,-0.01628071007064969,-0.01524066100706497,-0.042413671697497664,-0.01392943021194908,-0.04243157107771466
0.1992414,0.017951371842886293,-0.013526451479557682,-0.027554921893727366,-0.016808178697563375,-0.033967155621254526,-0.05255376686376358,-0.011024147827469433,-0.04053096829248019
0.1997069,0.02029442150948529,-0.010303217020338965,-0.028604015078997794,-0.019487433950331617,-0.03933103658848309,-0.04850102266366985,-0.009409056614001468,-0.03675162266366985
0.2001724,0.020110787341040028,-0.00969504957052283,-0.02875262464210236,-0.01882436232105118,-0.030434300572636228,-0.035076187627358146,-0.009941712464210235,-0.03186777564421576
0.2006379,0.019387839620232338,-0.008964334649027544,-0.02865967679723916,-0.018926856037703832,-0.025612565350972456,-0.0242865771074666,-0.011086452485602397,-0.02955582573074012
0.2011034,0.019397152597440674,-0.007706721074355934,-0.029282557270633128,-0.01988213088346363,-0.025144499360378887,-0.013946705312813563,-0.01171991576154237,-0.0320592
0.201569,0.019744411353412667,-0.005404146831505971,-0.029307697748002032,-0.020118266130476674,-0.026514023481252647,0.009462365808762679,-0.012607234512951319,-0.03584144471050733
0.2020345,0.020036220962339278,-0.0017782229972466528,-0.02659481855649109,-0.018233479037660722,-0.030943392942132237,0.02269786904332716,-0.011028476631812537,-0.039310788501376676
0.2025,0.020582499951189437,0.0017590203531390094,-0.02584289323189052,-0.017750194735914847,-0.029733206016097316,0.009867101504024329,-0.009111990975854025,-0.041038910528170304
0.2029655,0.02027764996547517,0.005774508748417687,-0.025745200069049654,-0.016406249413077924,-0.00645867029780529,-0.01099387897717332,-0.007254919710883212,-0.043837008886516995
0.203431,0.02020162362050093,0.008400014980295406,-0.024385497393962695,-0.017846138189749537,0.018680619597722117,-0.023040675190203266,-0.004818280402277881,-0.046697071167424456
0.2038966,0.022127010530521237,0.007671340720157329,-0.024989815745365504,-0.018809479039790227,0.01566810240052443,-0.02992879519895114,-0.0022007221604719873,-0.048499083054372276
0.2043621,0.023202140203286398,0.007883945216799143,-0.026386995293569773,-0.018947174961614688,-0.003802350537394409,-0.03938644758460347,-0.0027790575824505398,-0.05223942737701122
0.2048276,0.022050578391028267,0.007607865950211094,-0.02852072944140536,-0.018422404608383548,-0.01263144157257242,-0.04901795811777747,-0.004803165640560982,-0.056943641572572416
0.2052931,0.02011232897965148,0.007577891230500832,-0.02895896122456435,-0.01800926775508713,-0.0100610775508713,-0.053662380408431666,-0.003914810414368143,-0.055350765726993684
0.2057586,0.018967,0.008184445021633615,-0.028299572377666195,-0.01798667264396742,-0.006127998167283208,-0.05252445562842356,-0.002034754445763941,-0.04926220980788628
0.2062241,0.019014367855450215,0.007634256579978877,-0.027503613720579162,-0.01824033515027902,-0.01338228456596059,-0.04823998685584026,-0.00023307199822027226,-0.04235537500394951
0.2066897,0.020112592641260862,0.005558131919848354,-0.027063271010018958,-0.01686339432868227,-0.023094881110208514,-0.04141661464933655,0.002083726060113735,-0.03928500878960193
0.2071552,0.021157983509274867,0.0031891,-0.02741328500411387,-0.014525481635126977,-0.026280453327848168,-0.03126764001645549,0.00327674846402227,-0.0330663
0.2076207,0.02075693061906842,-0.00012473826350435646,-0.028099156051304454,-0.014896185919267564,-0.024707978025652225,-0.012468372838819838,0.007156632348012551,-0.023081449135527937
0.2080862,0.01937161138905187,-0.005069164275649568,-0.030210999629887093,-0.015991645488192083,-0.025709076851783346,0.00569091804723167,0.008538830623365449,-0.016883874924475625
0.2085517,0.018566651284158794,-0.007036789744853842,-0.03218839743168241,-0.015790823073761808,-0.03223948207857351,0.02903776667351608,0.010058243579206032,-0.007165741031436684
0.2090172,0.01800622737411577,-0.007506872625884233,-0.03230224525176846,-0.015251136312942115,-0.03832202158927391,0.0543542821223473,0.009717790503536928,-0.007484055863504983
0.2094828,0.018723816307419636,-0.007032138999556908,-0.03102897092314509,-0.015181455306976543,-0.04569559352220072,0.05558188929296527,0.006939954522643813,-0.01588754547735619
0.2099483,0.019783547520522252,-0.0068846324034139966,-0.0297546049589555,-0.013965478719216622,-0.04623369817296445,0.03299267944169732,0.0039737623973887404,-0.010512205681436194
0.2104138,0.019574776414449387,-0.007072670756651839,-0.029550244194875605,-0.0125887,-0.03998875282889877,0.004570689934097139,-0.00028118457095328495,-0.010254889456577869
0.2108793,0.019500113620130047,-0.006964868673700892,-0.029717119068182064,-0.011577690465908968,-0.031289093189934974,-0.010894561863635868,-0.0024585727597399064,-0.006842220430195071
0.2113448,0.020655661028226354,-0.006601839594161726,-0.029475599377611923,-0.010340651803119669,-0.014155428689510108,-0.01450104819688033,-0.003433350745962815,-0.0004425368574599363
0.2118103,0.020971966279718028,-0.006347058195842726,-0.029200844230735976,-0.011050471832127755,0.0013023379790739228,-0.023158244230735973,-0.007916514664359078,-0.008622770104801381
0.2122759,0.01979619542201875,-0.0075532,-0.029394010123838913,-0.013462331775356056,0.00028417323858810953,-0.035655627750300796,-0.015054965071514513,-0.022080856144039717
0.2127414,0.017781203663370836,-0.006714630172759023,-0.030537703663370837,-0.014779052071599045,-0.01322116122378755,-0.043197919662473765,-0.01779972189884002,-0.02592793789794295
0.2132069,0.0186313,-0.005434112577737685,-0.029363136096793724,-0.014838627192163938,-0.023817932901960406,-0.03612092426927869,-0.01488488259866253,-0.019620464175154343
0.2136724,0.01982923669886673,-0.004269380028004906,-0.02846196668971772,-0.0142672,-0.02225222004630293,-0.02697912667657438,-0.0073581933697285514,-0.016325973323425624
0.2141379,0.021035694961637024,-0.005691322886061923,-0.030490012126725734,-0.016539171285166063,-0.008142585354092777,-0.021324749658694884,-0.004535992911637241,-0.024767535012787657
0.2146034,0.020951418132093103,-0.007917013989838993,-0.03509455280755133,-0.017849111918711937,-0.0009533238374238722,-0.0255560591111606,-0.0031609860101610076,-0.033348315462687544
0.215069,0.02003580116224216,-0.010315926452802698,-0.03679390913155094,-0.018048795351031363,-0.010005240287327981,-0.03878862529056054,-0.0010088781961659372,-0.030189759766677725
0.2155345,0.017685095205843878,-0.01206979680389592,-0.03520215869638294,-0.017029130117252777,-0.024460235464069387,-0.04325977142086984,0.0012966995072689362,-0.025085839212833957
0.216,0.0182633289513751,-0.014073573708250608,-0.03455431491228112,-0.018166515805500404,-0.027372389513751014,-0.03275617355599676,0.003666873708250608,-0.024857830717781526
0.2164655,0.01903865203075507,-0.015885328046132605,-0.03323132998077808,-0.019407358026910685,-0.017767504061510137,-0.018873622049976987,0.0022013681013038737,-0.02350167985121362
0.216931,0.019760600889075813,-0.018783312130459286,-0.03260839911092419,-0.01947118212828119,-0.010664433965285996,-0.011888170886897717,-0.0033398388174697108,-0.020736707278275573
0.2173966,0.01959851917471084,-0.019935974514479517,-0.03290015533976867,-0.01905689368919036,-0.011117880825289157,-0.008812927669884337,-0.006862781070739154,-0.020648910679537346
0.2178621,0.019316252129219807,-0.020264621749959386,-0.03305274787078019,-0.017841697420837046,-0.014812100899886289,-0.008333027800097467,-0.008080029599870043,-0.021625493049975634
0.2183276,0.018261730721315966,-0.017633135760265466,-0.031876671449006876,-0.015264083625704658,-0.01285675003576203,-0.0082246,-0.005845342898013748,-0.018678528622517183
0.2187931,0.01781234049049305,-0.014562223058031076,-0.028915869174093223,-0.014348553883937852,-0.008546741019343692,-0.009313053883937852,-0.004236876941968925,-0.017854698632140068
0.2192586,0.01839412069327354,-0.013620430173318385,-0.025942709480044845,-0.016244451071542633,-0.00792903792017938,-0.011221269826681615,-0.005277190519955155,-0.02372508277309416
0.2197241,0.01929865261940774,-0.014125641360338434,-0.024912429319830783,-0.01604475159944064,-0.0037108465991539125,-0.010546192178340724,-0.006113329319830782,-0.02807124057890009
0.2201897,0.019809254869120024,-0.011676042041920081,-0.026010590261759954,-0.012677132303680037,0.001374946675359924,-0.0023262456276317935,-0.006198380523519906,-0.03527453693711988
0.2206552,0.01991388703082905,-0.006701161092487148,-0.026001546757707262,-0.011340748123316195,-0.010128898634391065,0.008400024379078707,-0.0038529756209212947,-0.042593850317420606
0.2211207,0.01994910427024009,-0.0014606085404801751,-0.026700497864879956,-0.0115816,-0.024536327209247165,0.0097031341619207,-0.003176602135120044,-0.0456915742802238
0.2215862,0.019338096121633074,-0.0005217612163307397,-0.02697060581755039,-0.0115816,-0.020397163993054277,0.004735430335383744,-0.002906494182449611,-0.042306851666401836
0.2220517,0.020166766929457954,-0.002040434056009367,-0.026255966535271024,-0.01112549034316271,-0.006205998620345753,-0.004992411036491538,-0.00309423366182244,-0.03766976653527102
0.2225172,0.021412380965719253,-0.005553431640627093,-0.025585409552556247,-0.0104067,-0.00048610149147917535,-0.012051791157767467,-0.004420499218844539,-0.03629894627130206
0.2229828,0.02234783900436748,-0.008829871096990675,-0.025250726118221847,-0.008647576666565628,0.001165455426057567,-0.016413663434489415,-0.005751886767923785,-0.038030626868978824
0.2234483,0.022072720175488728,-0.011666032751114453,-0.024925067248885546,-0.004529868995542183,0.0016794655022289084,-0.016534698253343364,-0.006314969148851297,-0.03184405611329823
0.2239138,0.02263603035182022,-0.01222942684077476,-0.02436167315922524,-0.002276292636900958,0.002806253681549521,-0.01822488052232428,-0.00589238162494166,-0.025928418171865013
0.2243793,0.0235156627563387,-0.012656543407534653,-0.0236667,-0.0007837319348804044,0.0028840339033949676,-0.03222271258607636,-0.004418072260478382,-0.02114759593380604
0.2248448,0.022957327149261186,-0.013342234860035503,-0.022932205540830752,-0.00021716216663328618,-0.0004347148583803638,-0.052561431083316644,-0.003729102973331211,-0.019525943374197465
0.2253103,0.021577901777108173,-0.015153954099312127,-0.022137693973396842,0.0002794078037113282,0.0017135056316902309,-0.05329534669051372,-0.005360555481507371,-0.020865002764390485
0.2257759,0.019302251592400985,-0.014982191996696079,-0.023374600698155813,-0.00028464320132156804,-0.0009708728052862721,-0.0373863595957049,-0.007203118803634312,-0.022703200698155814
0.2262414,0.019319839388441656,-0.014933219099717879,-0.02591181550996177,-0.00010688232857085253,-0.0196384,-0.0256595649344931,-0.006458454898403423,-0.02427827901616614
0.2267069,0.018505550033031747,-0.015587136369642136,-0.02721804085804185,-0.0022963181517893227,-0.03164919490402017,-0.02610080347142994,-0.0068475045544632036,-0.027265905095979835
0.2271724,0.016402105094265047,-0.016093001670046986,-0.028435307042653193,-0.007401095184076118,-0.02759609768914659,-0.02753810139170582,-0.007635393319812068,-0.03185510648597087
0.2276379,0.015387927547069868,-0.014446213962697239,-0.028456012622672573,-0.011364710188279472,-0.01839886226465066,-0.0260355435658356,-0.007250193207813686,-0.034181844905860265
0.2281034,0.015703484901939957,-0.012280577288381991,-0.026864398201918233,-0.011311716896141811,-0.010730308169899925,-0.02233948545828192,-0.007014954020422022,-0.029654054705819863
0.228569,0.015042586047402084,-0.009444970624094409,-0.027735909791968532,-0.0102388,0.001288107711653838,-0.01839566291244057,-0.00578655193814353,-0.019588368543779714
0.2290345,0.012509735886228909,-0.008642790037338054,-0.02824916079288378,-0.00855103422578525,0.012370339207116225,-0.020449196679112682,-0.006718627696584619,-0.0107029127525917
0.2295,0.011038354670884517,-0.008646512363213992,-0.028885516104023637,-0.007681354670884517,0.016438159131058852,-0.026043070132522522,-0.008094304421684805,-0.006047031306206851
0.2299655,0.010752321277701643,-0.00851584468057459,-0.027537221277701644,-0.00818014468057459,0.0119173,-0.029920787701535,-0.008069013003297841,-0.012008502364447018
0.230431,0.010447057688171038,-0.008851972238794288,-0.023593322583858874,-0.0068818,-0.004058624925425706,-0.030662337290180558,-0.007210162039799048,-0.030923686789417534
0.2308966,0.010552039633822119,-0.00869385670439906,-0.020354720732355763,-0.004274258535288471,-0.027585209154447055,-0.02294982986661339,-0.005963335972043296,-0.051820479267644236
0.2313621,0.011561345930417622,-0.007482313773153605,-0.019759924417494263,-0.0035653081391647536,-0.039958230051483114,-0.014623154069582377,-0.0044306296520881154,-0.06382907558250574
0.2318276,0.011285054955257535,-0.006515336511564133,-0.021417670268454782,-0.004117890089484927,-0.04009641669053399,-0.014899445044742464,-0.0030491747762876817,-0.06217132973154522
0.2322931,0.011268443676129484,-0.005041178928847561,-0.021397953232828042,-0.0028006547666526503,-0.03526910804626722,-0.02070954516316757,-0.002174485441290172,-0.051341091953732786
0.2327586,0.011206142280420094,-0.007803505146386605,-0.019230176443642912,-0.0033668894298949765,-0.03138107643445273,-0.016485507858245815,-0.0026557317103150695,-0.037015744714947486
0.2332241,0.012872944339825908,-0.011194444339825908,-0.01863934626050255,-0.006850653554965603,-0.026842379076540825,-0.005746104801555496,-0.00041831420122703594,-0.02511648445059946
0.2336897,0.013110752113445695,-0.013091313773502488,-0.018331718000393876,-0.008914552113445695,-0.029483993305671398,0.009563677193013456,0.00035326588694818207,-0.018370672581276788
0.2341552,0.013453707123248358,-0.01458020534243627,-0.02026451068487254,-0.0091364954621355,-0.029981050308930047,0.01380116535999853,0.0020883089040604477,-0.01743059287675164
0.2346207,0.014675640932175226,-0.015536057940244407,-0.022054977382124474,-0.009573461744347936,-0.019577782556520644,0.007113347412801915,0.003421752151787911,-0.016329893954783486
0.2350862,0.014552996003284979,-0.01549502169651182,-0.024684889410006773,-0.010821484719945812,0.00933150469006096,-0.0064377312534543134,0.0027535986133081208,-0.013035294100067735
0.2355517,0.01471877293309818,-0.015590687844483638,-0.025835397244130906,-0.0124423777534536,0.03197229817657725,-0.015052988976523622,0.0006341653983435925,-0.00920499448826181
0.2360172,0.0146029,-0.01561,-0.0245937772853634,-0.012861695535274916,0.029574242333451316,-0.018783675916460196,-6.74863043174402e-05,-0.011070337958230097
0.2364828,0.016332755374809892,-0.01628418892010273,-0.024544512706608252,-0.013905822312595054,0.01134672068588407,-0.021191300483078008,-0.0016646661244296716,-0.019741110749619782
0.2369483,0.018624493229347002,-0.01688473229347003,-0.027064540623917985,-0.012938013541305995,-0.006332921871753951,-0.020988006770652996,-0.003880920311958992,-0.026962439064123024
0.2374138,0.019073812116916933,-0.015552598633627294,-0.028373675170796586,-0.009488473121237528,-0.019923873804423883,-0.021981124829203412,-0.005810123462830705,-0.02894462277964435
0.2378793,0.017731126381332084,-0.014495973618667914,-0.027766384254221392,-0.008387889779549733,-0.0323949,-0.03013700552532834,-0.0073095055253283425,-0.02351211615173289
0.2383448,0.017332048113908115,-0.015479355658275651,-0.026234340569540583,-0.011979026405286372,-0.03706933017747014,-0.036136641494021446,-0.006151463798604978,-0.011309311583994024
0.2388103,0.018108626715898545,-0.015328197593838843,-0.025767008622569088,-0.016991041904607665,-0.012854846716929982,-0.03602928982461823,-0.00469107483691414,0.0020419984471873143
0.2392759,0.017974020206387355,-0.015330780825549416,-0.025723260619162063,-0.020016460619162065,0.01721789896806323,-0.028140576697802334,-0.0055813606191620615,2.3417189027872642e-05
0.2397414,0.01825420629530779,-0.016348040919500657,-0.026543122033577275,-0.020567262953077932,0.015651393704692207,-0.022912518755897785,-0.006380525181231174,-0.011055077966422723
0.2402069,0.019242685643144037,-0.017384142572576144,-0.027459423928093273,-0.0205410947163896,-0.009727438284949236,-0.023526672459795308,-0.006761771286288073,-0.02195042812695831
0.2406724,0.019537442105405537,-0.01772433157927959,-0.02672247894684636,-0.02062821553888417,-0.023565742105405536,-0.02610156290645094,-0.0057409157891889235,-0.03370487368378339
0.2411379,0.02060698228388157,-0.01668473599213615,-0.026994949332958866,-0.01958089866591773,-0.010066295997753185,-0.023873026280511352,-0.0040718978917347525,-0.04689754455652908
0.2416034,0.020757987110704628,-0.015375267060689608,-0.0286145143214393,-0.01735797863146873,0.0015982930665357194,-0.02004850429643179,-0.004469900113627685,-0.05344557863146873
0.242069,0.020927201813595368,-0.015190566517538202,-0.028821928699252968,-0.018739285650373517,-0.01323584783208828,-0.02160485101189363,-0.004831604783208828,-0.04480395695112055
0.2425345,0.02006233533721578,-0.014009656352289509,-0.02921587898492627,-0.02072365635228951,-0.03835840084697193,-0.019006549576514032,-0.0039000495765140327,-0.02718189830605613
0.243,0.0204776,-0.013637570604402675,-0.028454659145978306,-0.022784911813208027,-0.049552665110066896,0.009885291248774436,-0.0012615239811997133,-0.01787635879119465
0.2434655,0.021111805845545725,-0.010653425385944326,-0.03028955005937605,-0.0208945007125126,-0.0427226610379549,0.036837925385944326,-0.00020116399173312864,-0.021889289733933753
0.243931,0.02161897705922869,-0.011304144470156064,-0.0299744484323439,-0.021110926353535415,-0.02891479235307623,0.02757199235307623,-0.00010956286422862129,-0.03892992325331039
0.2443966,0.02234523551574289,-0.012023977578714455,-0.028259822421285545,-0.020453480358313982,-0.017107144938420197,0.0105745,-0.0012069064513795646,-0.04630218671384444
0.2448621,0.02254831943175793,-0.013603218851880459,-0.026791863926326424,-0.017535173777434493,-0.014423872827161718,0.010604175407521836,-0.0017267214322405754,-0.04338397377743449
0.2453276,0.021502963352100776,-0.014423147669130882,-0.026292057924955006,-0.012654776858248925,-0.018535594405914114,0.00838638245233481,-0.001870104661738238,-0.03954030559408589
0.2457931,0.020802036818007633,-0.01471144996764962,-0.02423210326753179,-0.011335436101879343,-0.020067511443768296,-0.006755549251521329,-0.002076003267531789,-0.03892718358282622
0.2462586,0.021711976812985145,-0.014524115219477718,-0.023350407967537137,-0.015096169561044565,-0.019013053864502475,-0.014671973937375623,-0.002899453864502476,-0.03785820772900495
0.2467241,0.0218073043580638,-0.012845802735435365,-0.02244179979900486,-0.017621709828934528,-0.020231202735435366,-0.011348206181687378,-0.003886699088188212,-0.028052110941741457
0.2471897,0.020405857722545266,-0.012684155287855147,-0.024625871544509053,-0.01743268698959959,-0.021604872356072426,-0.0042435260208008255,-0.0031413723560724267,-0.018774884554909464
0.2476552,0.019835395991656245,-0.010621210803760288,-0.026941956093419497,-0.01633978850470036,-0.021664277700940072,0.004263316356990485,-0.002228710803760287,-0.016513429094476464
0.2481207,0.018540083038339948,-0.010216002552626516,-0.02790034495677665,-0.014084766076679894,-0.019273532153359786,0.015649238081563297,-0.0005947169616600534,-0.022291105145537313
0.2485862,0.01808768206076784,-0.009870185635371745,-0.028895453493573045,-0.012321978658104471,-0.017829046258394966,0.013635817939232162,-0.0013939642835973961,-0.02675391785326189
0.2490517,0.01919506081751414,-0.009710781040989347,-0.0298489067411584,-0.012637723314710398,-0.014987623314710399,-0.024628550985120547,-0.0030494932588415974,-0.02869851109685815
0.2495172,0.019018939784018692,-0.010386045175203404,-0.02891400795680374,-0.012180405391184711,-0.012862447827471316,-0.07038607330402309,-0.003248429261595927,-0.03133118134747573
0.2499828,0.020010380873795804,-0.010135135949159489,-0.0276743671898319,-0.010997661132597791,-0.011459795512261587,-0.09338833749315786,-0.0018307503923739234,-0.037094046689383355
0.2504483,0.019327321478896816,-0.009592021478896815,-0.027856842796683386,-0.010916353536131794,-0.009317875176138855,-0.08249686147406105,-0.0015229107394484076,-0.042921860226060454
0.2509138,0.018764807840422774,-0.010481548101770705,-0.030214923671239492,-0.010408723671239493,-0.00871009620354141,-0.05358830227787515,-0.003031317349400155,-0.04202895341681273
0.2513793,0.02069074146843533,-0.012435886479742387,-0.03160284410364457,-0.009782444103644566,-0.010314205442524187,-0.03618198820728913,-0.0041962,-0.038807260259111416
0.2518448,0.021159369268040604,-0.01256796763977826,-0.03029777055911304,-0.008456638198891296,-0.0109847074669319,-0.0337377,-0.0041962,-0.03550311167733912
0.2523103,0.02144066521735349,-0.012087963322877591,-0.028955381661438795,-0.007026213237726267,-0.009299221544920242,-0.03340762664575518,-0.0043612366771224095,-0.031249025698517233
0.2527759,0.02229765035348739,-0.010892698497846508,-0.028357749248923255,-0.008135554152973084,-0.007328518814642339,-0.031017096995693015,-0.005530249248923254,-0.027849872570026066
0.2532414,0.021362147709295204,-0.010268968135075274,-0.02804588406753764,-0.01094224788547897,-0.005301348685653494,-0.02976963627015055,-0.005218384067537637,-0.02738202834796531
0.2537069,0.020116070741562693,-0.009938592685390673,-0.02713017805617202,-0.010927941056325751,-0.0014507532810138265,-0.029409092685390673,-0.0038524117978884437,-0.027809755685544404
0.2541724,0.0199741,-0.0099031,-0.026412839175047664,-0.0109102,0.0034215954893327192,-0.025403004637809822,-0.0014019264148570302,-0.028321100127142538
0.2546379,0.02087122598729337,-0.009305016008471088,-0.026950383991528912,-0.011657760449346237,0.005804317512533869,-0.019028749164840684,-0.0002777740127066316,-0.02657224802541326
0.2551034,0.020746017652429886,-0.008644068869273403,-0.027863262261453196,-0.01027230754770936,0.00429735215673267,-0.0142672,-0.001611122643128084,-0.021937409164831372
0.255569,0.01750930568599051,-0.008089917564163307,-0.029912516588405692,-0.00992518056859905,0.0004548473917876644,-0.012699102842995256,-0.0011969805685990511,-0.017889166823188613
0.2560345,0.013246857937410525,-0.007279514836247715,-0.03097768662982834,-0.010524891086552227,-0.005117331624569927,-0.0069925802210299565,6.858956198045173e-05,-0.01809049700935217
0.2565,0.011807777272925153,-0.006223372584193054,-0.030393672584193055,-0.010918848389462036,-0.00948091610537964,0.007221824194731018,0.0012138177525791622,-0.01932648242696419
0.2569655,0.013217381735077891,-0.005557985267140202,-0.027934193337919105,-0.009931577900710304,-0.011524644198579391,0.011784403130018582,0.0015011073664298986,-0.016366833702130913
0.257431,0.014318971783873015,-0.0035732339729841267,-0.02627964904052381,-0.008065567075418435,-0.010920593194740296,-0.0007247906893174602,0.001891403375972656,-0.011796215067539683
0.2578966,0.01400961304500186,-0.0016440390468728757,-0.0250095,-0.0055160255749994525,-0.012253,-0.015416828816873096,0.0016118748518721094,-0.013207259506872439
0.2583621,0.0149386,-0.00037350442513737656,-0.024012195448816064,-0.0024366816692177043,-0.01707652193928642,-0.021584031858287542,-0.00011882567383710332,-0.01835437269289639
0.2588276,0.016948538780068516,-0.0008392,-0.02348688365033489,-0.0006046781337117062,-0.02698858688211894,-0.02296444810205042,-0.0015654055166231856,-0.02440832623576213
0.2592931,0.01721095703070231,-0.0014589046871348746,-0.023615004687134872,0.0007875046871348746,-0.032136309819047935,-0.026145518748539497,-0.0012265953128651253,-0.03487307968129287
0.2597586,0.01665632235450729,-0.0009896309391405208,-0.023502711444022537,-0.0017792802072406082,-0.03371370458995802,-0.024835655855395714,-0.0007367598809434376,-0.05216949111772536
0.2602241,0.017452912353321904,0.0009148932907538236,-0.024756013727862125,-0.002954797529335619,-0.04104705185299829,-0.016645482172764108,-0.0022326987646678095,-0.05790184197034076
0.2606897,0.0184634,0.0014547730013961956,-0.026441628519691597,-0.002774519494113342,-0.04645480808395495,-0.011139102668607997,-0.004129203610231302,-0.0464272036102313
0.2611552,0.018647327682504985,0.0002399269584756643,-0.027886550857455138,-0.0028053169524850457,-0.04716472344180179,-0.016536080254870397,-0.0059708660950299084,-0.02869467682504985
0.2616207,0.01864194145454238,-0.0015159212555928346,-0.028698652848485873,-0.003185552848485872,-0.04847292848485873,-0.031108854424226038,-0.006874705696971745,-0.010267177212113019
0.2620862,0.0196384,-0.002176000457037084,-0.029661289354644793,-0.0036626915589465106,-0.049197664945558495,-0.04354464145054636,-0.007181492015983594,-0.00030030021680030366
0.2625517,0.019966011197326362,-0.001522734408777017,-0.030332167183958165,-0.006129511973263609,-0.0399097184332451,-0.051493317486545724,-0.007029476788549344,-0.007027398448125503
0.2630172,0.019070192063668213,-3.1840183655812556e-05,-0.03089694382129374,-0.011880379608091615,-0.010489768132285979,-0.054030698040458076,-0.004987594023210139,-0.02528981941213742
0.2634828,0.018312606434908105,0.0011534699328919246,-0.031438819304724315,-0.01545251338766494,0.021465529216010838,-0.051591132692389255,-0.0031425093934377944,-0.037608613387664934
0.2639483,0.017205117390284224,0.002445259605314686,-0.028895374385827503,-0.016257253201771564,0.035672401272689676,-0.04455602315748251,-0.0019187403946853139,-0.03794597699559891
0.2644138,0.01592889027170452,0.003407429184886442,-0.025244341630227114,-0.017389358369772883,0.039494534618976826,-0.03068208869454462,-0.0022492389131819226,-0.030254629541466987
0.2648793,0.01569893339259044,0.004255713255653059,-0.023283754963058987,-0.019222103285092253,0.033901091551856014,-0.02039144660380067,-0.0035248,-0.027893570025830303
0.2653448,0.015276836113573437,0.006621660242249568,-0.01932395098463186,-0.020308531943213283,0.01922781820960295,-0.012370383759660769,-0.0042710817903970485,-0.04149876585569028
0.2658103,0.012312449383728476,0.009028559931279352,-0.010532423998955393,-0.01818909719131066,0.005231121533869293,0.0002049985771283479,-0.004458789452449122,-0.056895922576083745
0.2662759,0.01072215553882961,0.009972376475641198,-0.0037497583458777936,-0.01680514446117039,-0.005157743023162572,0.008644552882314945,-0.004375601369040366,-0.05579170143800782
0.2667414,0.011860904032362321,0.009573443062173281,-0.007650158772377432,-0.014885271231064137,-0.0019141711406642022,0.016516485524301558,-0.0039283711406642025,-0.03147140719181868
0.2672069,0.012950505976118992,0.008909056876349056,-0.015975483665665872,-0.01236680309127814,0.004792959761189907,0.014957350597025233,-0.0034203760955240367,-0.004964676301961328
0.2676724,0.013211557698929826,0.009039621619452837,-0.01963020778501757,-0.010147902329084402,0.007403476989298264,0.008431057526754342,-0.002376169204280695,0.0007783838364803285
0.2681379,0.015034632244626497,0.007934573570147792,-0.022568260633929124,-0.008605973570147791,0.005952994217014196,0.007862801927661936,-0.002504650963830967,-0.0058972270190555676
0.2686034,0.01773391258124984,0.006652445157139553,-0.02451428226429067,-0.010105868553575557,-0.0012348232661047887,0.004797762892848883,-0.0022085862892848884,-0.0167202661643138
0.269069,0.01957409527589565,0.005217557892929549,-0.02458808470197764,-0.01370292587194037,-0.012367287064029816,-0.01583857412805963,-0.0006106343830413552,-0.02330958942608199
0.2695345,0.020116639793294915,0.0024220299808712866,-0.022789291436575047,-0.01577370025100904,-0.019215316875840868,-0.049050108563424955,-0.0015317604577141251,-0.02266236649932731
0.27,0.0213169,-0.00025817398055562606,-0.020988577422950995,-0.017008094849403268,-0.017756957790388713,-0.05919178061639204,-0.0034879128852450254,-0.02035037472741859
0.2704655,0.022402003596331002,-0.0017818997000899758,-0.023956501349595108,-0.01952569947515746,-0.011484999550134963,-0.03352274816434575,-0.006145999700089976,-0.020325900074977504
0.270931,0.023056190689741875,-0.0022209135302536445,-0.02923246765126822,-0.022095309310258122,-0.010097667651268223,-0.003952848832790091,-0.008360797355887756,-0.024610494711775514
0.2713966,0.023616058820671266,-0.002996453773346475,-0.03241473698132282,-0.023371722688667326,-0.013890777311332675,0.007990182358657467,-0.008957608396011828,-0.028661477311332676
0.2718621,0.022032661054602384,-0.0026937900055199753,-0.03536805749586002,-0.021754950378375288,-0.01904680499724001,0.011994068500827997,-0.008758298056258378,-0.02795255943960164
0.2723276,0.020167161561822806,-0.0029609624208386223,-0.03824443124914119,-0.019783201563144105,-0.02039313601601727,0.009113202344716157,-0.011412664842998544,-0.026460904766876077
0.2727931,0.019038113954028827,-0.0027741282955183345,-0.03809939051190585,-0.020370446715481834,-0.016596077329832506,0.00027059205581681997,-0.011777369773110008,-0.027221879261204163
0.2732586,0.01906236067328428,-0.0032102919621485055,-0.037282056264960464,-0.022094253497974534,-0.009366079515973194,-0.0076803517728910335,-0.0109102,-0.0287022
0.2737241,0.020275523688209878,-0.003479892666577556,-0.03539485133395711,-0.023442176710109532,-0.006804912978902342,-0.009297955999465337,-0.0109102,-0.0287022
0.2741897,0.0213073371181449,-0.0028610498497289565,-0.03242549939891583,-0.02383268696787386,-0.013181689609972097,-0.010894900300542087,-0.010578324924864478,-0.02903407507513552
0.2746552,0.020007012629633336,-0.002583531796035215,-0.03021732767779767,-0.0236667,-0.009358935914272759,-0.013332472815859139,-0.008400151456093907,-0.03089849247591783
0.2751207,0.016856045546647686,-0.00378281187560617,-0.027184957422253856,-0.021746413866619213,0.007729160469304199,-0.01691760792881613,-0.0062104,-0.029644797031098458
0.2755862,0.015986911489509092,-0.005456577020981812,-0.02380407163169698,-0.020539419280311177,0.009813810485444502,-0.01922027702098181,-0.0039566601421878855,-0.027294626677725194
0.2760517,0.01597848795340579,-0.006473605681004135,-0.021771038636200432,-0.02019805034229297,-0.012713835455196693,-0.01783148477240205,-0.001635743295699551,-0.0253452
0.2765172,0.014262761784059436,-0.00814740504411483,-0.022337505528637624,-0.021638994471362378,-0.04703634950438415,-0.01494540073787725,-0.0012657045374059143,-0.026052982422855423
0.2769828,0.014142282999775805,-0.01066036599955161,-0.023912613499738437,-0.02092065698266766,-0.07930094801695868,-0.013064921999850538,-0.0002029304999626342,-0.028218136998729562
0.2774483,0.013501639036281318,-0.011966947634777328,-0.02285375299781883,-0.019829594636958502,-0.08756695560067719,-0.013404605363041498,0.000646540531272148,-0.02981155363041498
0.2779138,0.012319624404465594,-0.013266762440446559,-0.01958376148759151,-0.01793991267866032,-0.05960648732133968,-0.0142672,-0.00018778732133967803,-0.031541036130270865
0.2783793,0.01299424533505215,-0.016564715998710886,-0.01803847600193367,-0.016987722667526076,-0.0074571626643032945,-0.014310853334407594,-0.0015542533344075934,-0.03389485200386734
0.2788448,0.01379904443508326,-0.018267246141171332,-0.019052061576486,-0.015175061494099668,0.02364289244711533,-0.015023661576485998,-0.001482246141171334,-0.03370934614117134
0.2793103,0.014899233549230262,-0.017401949838077302,-0.02101824169365378,-0.01277623322538487,0.02990148273961678,-0.017249133549230262,-0.0007651166126924346,-0.0330663
0.2797759,0.01693291705818921,-0.01588091649366707,-0.021079848068041314,-0.011954110178792223,0.023331,-0.019164296136082625,-0.0003032582468335357,-0.033134029123416765
0.2802414,0.019184234371721242,-0.01496332772576826,-0.02206233660653227,-0.011744490238883291,0.004077734371721242,-0.02033941640706969,0.0018166835929303105,-0.033661166847246037
0.2807069,0.018773627521661704,-0.015957680132557443,-0.02510542648992341,-0.010977637621079783,-0.009904604177281916,-0.02155968186464042,0.00408084109801701,-0.0350805
0.2811724,0.016890998560794134,-0.016781613399503664,-0.027113075757097118,-0.012485988039702198,0.008718140198510995,-0.02211848627818906,0.005916091079267566,-0.03435773892045877
0.2816379,0.0162793083668209,-0.018032896572901486,-0.0300470916331791,-0.013866869959814922,0.03594056865354594,-0.02108337414322537,0.00808906502009254,-0.03201125534700266
0.2821034,0.0159457,-0.020295248746571497,-0.03253915367135364,-0.012440808515289234,0.024802941832352904,-0.016668029386999756,0.004402296498424771,-0.03206283781335713
0.282569,0.015881693350234972,-0.020164894002186313,-0.03099776564648556,-0.008869435005465783,-0.013904935005465783,-0.012815720501639736,-0.001800411995627374,-0.03032636564648556
0.2830345,0.01691284412893698,-0.019130182591453427,-0.029079581753924333,-0.00941952793553151,-0.038877757086204126,-0.014504318623687673,-0.0050154720644684896,-0.027769036032234247
0.2835,0.018594979396321855,-0.019906084364955803,-0.03067126482942516,-0.011545279396321854,-0.0431373,-0.01946613730686984,-0.006301201509195362,-0.02505935533320512
0.2839655,0.018047793796734386,-0.021410885513419173,-0.03504874962612493,-0.010998093796734386,-0.0431373,-0.02192839100581781,-0.007669165508164038,-0.02328096138494802
0.284431,0.01543309522933988,-0.022915908298169998,-0.04017380834865521,-0.008067544633007366,-0.04866463839223898,-0.025008677112406407,-0.009941975919741379,-0.021731991701830003
0.2848966,0.013986815184799595,-0.0223515575923998,-0.041095442407600206,-0.006440527523203955,-0.04466669080839423,-0.030005468057001515,-0.0097491287961999,-0.0206869863885997
0.2853621,0.014858284084107623,-0.019450275815929043,-0.03982268387728603,-0.005111954237500086,-0.019808135509144117,-0.029646591938643014,-0.00809918387728603,-0.01990761158045884
0.2858276,0.016500038105775088,-0.016578402189857698,-0.036146609415262564,-0.003918552478962354,0.012613860582561396,-0.02527362182095455,-0.006934035037723204,-0.01786895562463669
0.2862931,0.01563493269839858,-0.016318795334059232,-0.03459520380960854,-0.0037300953340592305,0.03583243926914361,-0.02283412888879004,-0.008510434603202846,-0.018023115747299964
0.2867586,0.015906848404237797,-0.01672662839301081,-0.03296370957457322,-0.004137928393010814,0.03488077479851359,-0.024737538829664573,-0.007966603191524408,-0.022373686041112974
0.2872241,0.016330769237487077,-0.01692482349792887,-0.030352723497928873,-0.002667449147911641,0.004967979910424564,-0.022567451664256364,-0.005749685470831898,-0.02990183461874354
0.2876897,0.015226113752362155,-0.01723871001889724,-0.02870540746692983,-0.0015138074669298284,-0.03026024155788597,-0.014366779962205518,-0.002712048724016294,-0.029661113752362155
0.2881552,0.015170086748143954,-0.01506435266508925,-0.02667727783065362,-0.00025047383862284096,-0.048720091704795514,-0.003260248641866463,0.0004373658545612818,-0.025620573527479918
0.2886207,0.016432780469772153,-0.014148758590683541,-0.027144804375817722,-0.0012051760939544307,-0.04648663323121008,0.003128547812091139,0.0004429523214885107,-0.023207232657681015
0.2890862,0.017992308189022296,-0.015664013648370494,-0.028323289081303608,-0.002333238215437376,-0.02343408362195541,0.002187401364837049,-0.0011478947848004072,-0.022686606824185246
0.2895517,0.020974965896541933,-0.016467481517006423,-0.028525047916289896,-0.002990550276077444,0.0051908317930838685,-0.011796156704458497,-0.002498997689625803,-0.021323134103458066
0.2900172,0.022611016800376617,-0.016312704022809685,-0.029637043896337586,-0.0043171393032858,0.017396427589425688,-0.029391982983950224,-0.002682864364954945,-0.021854348982854085
0.2904828,0.023476097520200637,-0.01570118275722032,-0.029305219722579046,-0.0079904145578673,0.01186761895081333,-0.03683972049434476,-0.0029073147629803215,-0.025515094835288257
0.2909483,0.022950737033472994,-0.013730966650628475,-0.02962017406694599,-0.011661066261129725,-2.011153803230714e-05,-0.031678937033473,-0.004598744449790508,-0.029900173677447236
0.2914138,0.021524524108482698,-0.011291745824130396,-0.029566839954798876,-0.016525419864396627,-0.0038218520090402253,-0.0204909080361609,-0.004874797833170622,-0.028761342347633875
0.2918793,0.0216526,-0.009073144229183434,-0.027649798351195267,-0.020332450824402368,-0.00527333028255425,-0.015991001648804733,-0.004520577961469416,-0.02278946477103155
0.2923448,0.0216526,-0.00719487403199846,-0.027113149723428133,-0.020600775138285937,-0.008090695613435393,-0.016527650276571867,-0.004386455769423951,-0.018362153556849
0.2928103,0.0213534822946844,-0.0056853291787375936,-0.0273228177053156,-0.0206455,-0.013645300990365228,-0.01452327606279079,-0.004214496596000925,-0.020166655943841337
0.2932759,0.02049842198477618,-0.004923119779899635,-0.02780053818029909,-0.02243493955979927,-0.018330297795123452,-0.009273339834924727,-0.0038188601650752736,-0.030120096969747087
0.2937414,0.020771014922289645,-0.006179261813509547,-0.026290023627019092,-0.02474483005263075,-0.019158155958767638,-0.01036335274596181,-0.00254202277289507,-0.03575968222772282
0.2942069,0.021218749206581265,-0.009116839285192156,-0.026450450793418734,-0.024665979532447098,-0.01868037539670937,-0.02179634314008063,-0.002877937698354684,-0.03408122777696558
0.2946724,0.020973396283493893,-0.010960922994984565,-0.026949565855497126,-0.022136613128463732,-0.020301996283493894,-0.03767245540192675,-0.0018463,-0.030575911845466253
0.2951379,0.02021808405280647,-0.011712707707741786,-0.027207131894387063,-0.019499050660080865,-0.022201957973596767,-0.0479745739207903,-0.0012666159471935307,-0.03176935797359677
0.2956034,0.020908774513933404,-0.011227058804732957,-0.025190563715166484,-0.01796968531270033,-0.021697863231983232,-0.04662094460061654,-0.0012111127430332964,-0.033647168142416764
0.296069,0.020627382820004696,-0.013105789234205594,-0.023875362305780322,-0.014276258589997653,-0.019847279740032867,-0.033755817179995304,-0.0019323579541868135,-0.03179596871998122
0.2965345,0.019743232667645425,-0.015033050998531862,-0.024275132667645426,-0.012090455474718872,-0.019286953477655147,-0.021353500482059563,-0.0024232490014681383,-0.026861016815882276
0.297,0.018949214419101915,-0.015780729578955415,-0.02374918521052229,-0.014093540842089167,-0.018866729208579625,-0.018628370421044586,-0.0020055112631337507,-0.02374918521052229
0.2974655,0.018991665082874157,-0.017091120540623252,-0.02423941027031163,-0.014193175353185785,-0.01927802021802997,-0.011734096974290443,-0.0009378897296883726,-0.021948654489969247
0.297931,0.019985003615826277,-0.018828873817627143,-0.025739058392578045,-0.011559790602783232,-0.019634069396343646,0.002488620803710977,0.000408994777624892,-0.02430902080371098
0.2983966,0.02044107596968443,-0.0174424897508306,-0.0270237,-0.009299841343438526,-0.020159607063953554,-0.015789160273620623,0.00025365517348714694,-0.030113141343438524
0.2988621,0.02009927100113319,-0.015613821327289664,-0.02721436628273941,-0.010652215343154296,-0.021946576332955603,-0.051785773993200876,-0.0005869473340887921,-0.034031676332955604
0.2993276,0.01972272804768273,-0.016464439350732843,-0.028771298745573298,-0.012286733228797775,-0.021732807376361768,-0.04894529968639333,-0.001761971952317269,-0.03249773197437108
0.2997931,0.019082272319687364,-0.01801500692007816,-0.02981951384015632,-0.013949868973359385,-0.0213169,-0.016318137946718773,-0.0013728354357255674,-0.03390807923976552
0.3002586,0.019678041696989546,-0.017248858303010452,-0.029879157196907664,-0.01340085313637108,-0.019544564575752613,-0.012148207541093116,-0.00025444543302979546,-0.04007635830301045
0.3007241,0.018707221148043927,-0.01561,-0.03238982762976228,-0.011912227629762273,-0.018560451222193797,-0.03210136014829974,0.00056761653587445,-0.04201211870365633
0.3011897,0.01859902600218606,-0.012244931500546516,-0.030364563001093033,-0.009086087772625808,-0.017599994501639547,-0.021676804296617908,-0.00022427949617438974,-0.03742636575027326
0.3016552,0.0191348,-0.00763086904045399,-0.027242896439319014,-0.006494803560680985,-0.018181682396999185,0.017190070720592428,-0.002298503560680984,-0.03360738575727606
0.3021207,0.01959430652412552,-0.003468682224776643,-0.026392384978067708,-0.005494906524125521,-0.015686161458328646,0.03126609712774215,-0.003253235964908333,-0.039114356435861496
0.3025862,0.018706901956504655,-0.0030802058695139647,-0.025699800489126165,-0.00651280782601862,-0.014655092663107544,0.008550852570523175,-0.0037021474294768254,-0.045158648657513865
0.3030517,0.01680101020197504,-0.00374633819290549,-0.024597170749177066,-0.005799539452797972,-0.014251874149835414,-0.018256503305448646,-0.00423451690808203,-0.04029844149835413
0.3035172,0.015802284984317478,-0.0048676,-0.02671792591185794,-0.0018082151279875495,-0.012233955943222985,-0.03204287721737861,-0.003852339419074701,-0.029143228522899283
0.3039828,0.017404993706987837,-0.004939290077792516,-0.028525436070850937,-3.4170244593874377e-05,-0.011212421565285968,-0.031141712597240644,-0.0035810288236766148,-0.025533389123630353
0.3044483,0.019647925358895597,-0.002917760496967837,-0.026920260496967836,0.004041393002021442,-0.011907688112433121,-0.02222651821273759,-0.0033473881124331207,-0.029871055755558967
0.3049138,0.018486296259951737,-0.0007721299635993135,-0.025000174273101798,0.004687757808848071,-0.012682739897849005,-0.017578497881649443,-0.004283540233651614,-0.03290519006575031
0.3053793,0.017384482353189887,0.0020142691180823047,-0.023978404411702528,0.0013785587202447057,-0.013571804411702528,-0.016701080985078044,-0.005586991176594944,-0.03620757794148736
0.3058448,0.018562396468515978,0.0040756188199029585,-0.023683925882871004,-0.002302379029778627,-0.013277325882871007,-0.017731711975617678,-0.006175948234257988,-0.03767997058564497
0.3063103,0.01859862907817351,0.005663338770898016,-0.024294538770898016,-0.004152638770898016,-0.013563129078173511,-0.01899967092182649,-0.004845819385449008,-0.03497159692724504
0.3067759,0.017707238989639423,0.004474818652852564,-0.023106018652852563,-0.0029641186528525636,-0.012671738989639423,-0.01989106101036058,-0.004251559326426281,-0.032000296632131414
0.3072414,0.017186744186773996,0.0031976669857031815,-0.023286908253574205,-0.0005205339714063628,-0.010693289784632366,-0.020265708253574204,-0.0036129834928515904,-0.03143189174642579
0.3077069,0.017905030416776598,0.003491883480098912,-0.026154781267969898,-0.0001678,-0.007739748737910137,-0.019368539577343365,-0.0016422791546867347,-0.029191525680467855
0.3081724,0.019114578763746382,0.0038134696909365956,-0.027651356604402485,-0.00262153536814887,-0.007120238458782914,-0.018436690927190212,-0.000788968767846318,-0.02210991340789732
0.3086379,0.0193027,0.0018983857578772827,-0.027045403692079438,-0.004819856014909727,-0.009175275055263514,-0.016333485757877284,-0.002142936974555941,-0.013786781112216703
0.3091034,0.019592670267880117,0.00015326764040376453,-0.025055229732119884,-0.0038605,-0.011795702678801175,-0.012818394553961998,-0.00300618107152047,-0.009513917519198705
0.309569,0.01979542105721018,-0.000911066754608582,-0.025673713324539143,-0.0028749600263825743,-0.012509646569930559,-0.010517006596313135,-0.002174813324539142,-0.008267720052765149
0.3100345,0.019372861349268213,-0.0037284112224560146,-0.025391978877754396,-0.0037201633667368044,-0.009410567655298383,-0.00826313102203519,-0.0018930788777543985,-0.009958126733473608
0.3105,0.018183514581339356,-0.011694797930624484,-0.025158947224880854,-0.00785209444976171,-0.007889456255981923,-0.005763170837321281,-0.002182,-0.014267989948734012
