Time,Rectus Femoris right,Rectus Femoris left,Hamstrings right,Hamstrings left,TibilaisÂ Anterior right,TibilaisÂ Anterior left,Gastrocnemius right,Gastrocnemius left
0.0,0.0087211900360589,0.0006556733838888244,0.0034963934184020504,0.0030087306202446823,-0.013007098653519627,0.006668420118977902,0.054952539369272316,0.0018458312435076676
0.0004655,0.008859823086059171,0.00071517542923279,0.004427408381611663,0.003100548536582887,-0.012713674143755991,0.006996669376971905,0.056166634360547384,0.001899617012601371
0.000931,0.0089973512829703,0.0007749842815807067,0.005365922468619194,0.0031925787841717425,-0.012419663213951803,0.007325758751573003,0.057384048107006765,0.0019533814311213367
0.0013966,0.00913374822799749,0.00083509597138911,0.006311893961731589,0.0032848100671689375,-0.012125062210601726,0.007655649990100717,0.05860462016871987,0.0020071183418792563
0.0018621,0.009268987768062339,0.0008955064975876003,0.007265279888720227,0.0033772310209791304,-0.011829866820108713,0.007986304613761696,0.05982818879926387,0.0020608216096688874
0.0023276,0.009403044005721803,0.0009562118289192442,0.008226036025681347,0.0034698302151009064,-0.011534072062723113,0.008317683927678371,0.06105459098443652,0.002114485123244038
0.0027931,0.009535891309016524,0.0010172079052899225,0.009194116900012046,0.003562596155991703,-0.011237672286931864,0.008649749030980187,0.062283662481500794,0.0021681027972792343
0.0032586,0.009667504321241648,0.001078490639125766,0.010169475793492222,0.003655517289948659,-0.010940661164314506,0.008982460826950468,0.06351523785894246,0.002221668574311379
0.0037241,0.009797857970633345,0.0011400559167378482,0.01115206474546311,0.003748582006003352,-0.010643031684882195,0.009315780033222218,0.06474915053672188,0.0022751764266607287
0.0041897,0.009926927479964452,0.0012018995996933173,0.012141834556093389,0.003841778638828397,-0.010344776152915375,0.009649667192016362,0.06598523282700172,0.002328620358329541
0.0046552,0.010054688376042833,0.0012640175261921865,0.013138734789724243,0.003935095471653897,-0.010045886183315176,0.009984082680416369,0.06722331597533251,0.002381994406876743
0.0051207,0.010181116499106104,0.0013264055124490026,0.014142713778285226,0.004028520739191798,-0.00974635269848292,0.01031898672067361,0.06846323020227786,0.002435292645266991
0.0055862,0.010306188012106456,0.0013890593540786369,0.015153718624773473,0.004122042630566232,-0.009446165925741247,0.010654339390538213,0.06970480474546102,0.002488509183692505
0.0060517,0.010429879409879288,0.0014519748274854493,0.016171695206789436,0.004215649292248025,-0.009145315395309312,0.010990100633610497,0.07094786790201395,0.0025416381713660847
0.0065172,0.010552167528189405,0.0015151476912550997,0.017196588180122978,0.004309328830991608,-0.00884378993884325,0.011326230269708274,0.07219224707140938,0.0025946737982837143
0.0069828,0.010673029552648497,0.0015785736875482976,0.018228340982384374,0.004403069316772643,-0.008541577688551719,0.011662688005245479,0.07343776879865643,0.002647610296955201
0.0074483,0.010792443027497657,0.0016422485434957966,0.019266895836675398,0.004496858785724718,-0.0082386660768952,0.011999433443617593,0.0746842588178394,0.0027004419441012937
0.0079138,0.010910385864248683,0.0017061679725939726,0.020312193755296297,0.004590685243073514,-0.007935041836876683,0.012336426095589553,0.07593154209597912,0.0027531630623157566
0.0083793,0.011026836350177888,0.0017703276761003295,0.02136417454348483,0.004684536666066812,-0.0076306910029306785,0.012673625389681788,0.07717944287719575,0.002805768021690898
0.0088448,0.011141773156666276,0.0018347233444282987,0.022422776803184073,0.004778401006898757,-0.007325598912416766,0.01301099068255015,0.07842778472715133,0.0028582512414050674
0.0093103,0.011255175347379897,0.0018993506585406955,0.023487937936836,0.004872266195626771,-0.007019750207723022,0.013348481269355505,0.07967639057775013,0.00291060719127066
0.0097759,0.011367022386284412,0.0019642052913412065,0.024559594151198336,0.004966120143079549,-0.006713128838983671,0.013686056394118783,0.08092508277207452,0.0029628303932411537
0.0102414,0.011477294145487973,0.002029282909063262,0.025637680461182658,0.005059950743754532,-0.006405718067414164,0.014023675260057216,0.08217368310953382,0.003014915422875741
0.0107069,0.01158597091290664,0.0020945791726556585,0.026722130693712383,0.005153745878703292,-0.0060975004692655575,0.014361297039897504,0.08342201289120298,0.003066856910760093
0.0111724,0.01169303339974671,0.0021600897391642966,0.02781287749159982,0.005247493418403264,-0.0057884579403988425,0.014698880886161529,0.08466989296532813,0.0031186495438818244
0.0116379,0.011798462747798518,0.0022258102631094127,0.02890985231744239,0.005341181225614216,-0.005478571701478672,0.01503638594142028,0.0859171437729758,0.0031702880669592154
0.0121034,0.01190224053653634,0.002291736397857718,0.03001298545753886,0.005434797158217872,-0.005167822303784909,0.01537377134851161,0.08716358539380249,0.0032217672837217943
0.012569,0.01200434879001927,0.002357863796988885,0.031122206025827243,0.005528329072039075,-0.004856189635639566,0.015710996260717515,0.08840903759192206,0.0032730820581413898
0.0130345,0.012104769983588018,0.0024241881156558676,0.032237441967847065,0.005621764823646873,-0.004543652929446054,0.01604801985189667,0.08965331986184746,0.003324227315612321
0.0135,0.012203487050352582,0.0024907050119385783,0.03335862006472904,0.005715092273134001,-0.004230190769337105,0.016384801326567985,0.09089625147448381,0.0033751980440794483
0.0139655,0.012300483387465823,0.0025574101481905015,0.03448566593721589,0.0058082992868732355,-0.0039157810994271845,0.01672129992994087,0.09213765152314922,0.003425989295112894
0.014431,0.01239574286217784,0.002624299192377855,0.03561850404971848,0.0059013737402492505,-0.003600401232664909,0.017057474957887914,0.09337733896960038,0.0034765961849283133
0.0148966,0.01248924981766612,0.0026913678194109537,0.03675705771441222,0.005994303520364682,-0.0032840278602806416,0.017393285766855674,0.09461513269004036,0.003527013895351703
0.0153621,0.012580989078636307,0.002758611712467444,0.03790124909537953,0.006087076528719305,-0.002966637061824248,0.017728691783709224,0.09585085152108726,0.003577237674727826
0.0158276,0.012670945956688556,0.0028260265643071042,0.03905099921280562,0.006179680683861307,-0.0026482043157877995,0.018063652515506436,0.09708431430568257,0.0036272628387714425
0.0162931,0.0127591062554445,0.0028936080785778987,0.040206227947235544,0.006272103924009803,-0.0023287045108077633,0.01839812755919818,0.09831533993891925,0.0036770847713606344
0.0167586,0.012845456275430246,0.0029613519711129835,0.04136685404390143,0.0063643342096477845,-0.002008111957440908,0.018732076611250984,0.09954374741376935,0.0037266989252716268
0.0172241,0.012929982818711081,0.0030292539712183644,0.042532795117129166,0.006456359526084831,-0.0016864004005077936,0.01906545947718902,0.10076935586669156,0.0037761008228546144
0.0176897,0.013012673193274196,0.003097309822950906,0.04370396765483351,0.0065481678859889035,-0.0013635430319972526,0.0193982360810525,0.10199198462309933,0.0038252860566502277
0.0181552,0.013093515217156279,0.003165515286386385,0.04488028702311104,0.006639747331886598,-0.0010395125045248243,0.01973036647476949,0.10321145324266999,0.0038742502899463903
0.0186207,0.013172497222313442,0.0032338661388772727,0.04606166747093947,0.006731085938631279,-0.0007142809453376306,0.02006181084743824,0.10442758156447592,0.003922989257275425
0.0190862,0.013249608058231532,0.0033023581762999226,0.04724802213499227,0.006822171815838517,-0.0003878199708577926,0.020392529534516857,0.10564018975191783,0.003971498764851395
0.0195517,0.013324837095275287,0.003370987214290807,0.04843926304457694,0.0069129931102882665,-6.010070175616437e-05,0.02072248302691712,0.10684909833744081,0.004019774690947777
0.0200172,0.01339817422777512,0.0034397490894714617,0.04963530112670552,0.0070035380082933,0.00026890622145207376,0.021051631979999073,0.10805412826701433,0.0040678129862156106
0.0204828,0.013469609876850478,0.0035086396606617775,0.05083604621130547,0.0070937947380334335,0.0005992306222985869,0.021379937222463,0.10925510094435761,0.004115609673942374
0.0209483,0.013539134992968927,0.0035776548100813145,0.052041407036579404,0.007183751571855139,0.0009309027717486052,0.021707359765135534,0.11045183827489274,0.00416316085025183
0.0214138,0.013606741058240342,0.003646790444538307,0.053251291254521486,0.007273396828536164,0.00126395337109216,0.02203386080964658,0.11164416270940794,0.004210462684245122
0.0218793,0.01367242008844596,0.0037160424966060923,0.054465605436598445,0.00736271887551479,0.0015984135343490291,0.02235940175699409,0.11283189728741416,0.004257511418083442
0.0223448,0.013736164634802567,0.0037854069257866976,0.05568425507960273,0.007451706131083382,0.0019343147701968303,0.022683944215993835,0.11401486568017909,0.004304303367012639
0.0228103,0.013797967785462656,0.003854879719661324,0.05690714461168542,0.007540347066545873,0.0022716889634319154,0.023007450011611693,0.11519289223342322,0.004350834919330232
0.0232759,0.013857823166751878,0.00392445689502749,0.05813417739857606,0.007628630208338865,0.0026105683559729167,0.023329881193176156,0.11636580200966432,0.004397102536295391
0.0237414,0.013915724944145611,0.003994134499022567,0.059365255749996515,0.007716544140116094,0.0029509855274169453,0.023651200042469088,0.1175334208301966,0.004443102751982543
0.0242069,0.013971667822986653,0.004063908610233433,0.060600280926275514,0.007804077504796128,0.0032929733751586006,0.023971369081693086,0.1186955753166914,0.004488832173079376
0.0246724,0.014025647048946228,0.004133775339791957,0.06183915314517055,0.007891219006573344,0.0036365650940820655,0.024290351081314106,0.11985209293240588,0.004534287478630036
0.0251379,0.014077658408230581,0.004203730832455991,0.06308177158890318,0.007977957412892426,0.003981794155836743,0.02460810906777835,0.12100280202298686,0.004579465419724396
0.0256034,0.0141276982275353,0.004273771267675542,0.06432803441141358,0.008064281556386907,0.004328694287707074,0.024924606331102613,0.12214753185685669,0.0046243628191343
0.026069,0.014175763373749435,0.004343892860643748,0.06557783874583968,0.008150180336782529,0.004677299451087396,0.025239806432337572,0.12328611266516794,0.004668976570897734
0.0265345,0.014221851253411511,0.004414091863332293,0.06683108071222632,0.00823564272276648,0.005027643819572867,0.025553673210903564,0.12441837568131395,0.004713303639851905
0.027,0.014265959811919414,0.00448436456551083,0.06808765542546859,0.008320657753823815,0.005379761756677597,0.025866170791798593,0.12554415317998271,0.004757341061116272
0.0274655,0.014308087532496197,0.004554707295749979,0.0693474570034941,0.008405214542042561,0.005733687793191179,0.02617726359267834,0.1266632785157414,0.004801085939526572
0.027931,0.01434823343491401,0.0046251164224074435,0.07061037857568803,0.008489302273889124,0.006089456604184862,0.026486916330807905,0.12777558616113943,0.004844535449020936
0.0283966,0.01438639707397859,0.004695588354596808,0.07187631229156523,0.008572910211955673,0.006447102985678641,0.02679509402988496,0.12888091174431787,0.004887686831979141
0.0288621,0.014422578537777148,0.004766119543138529,0.07314514932969354,0.008656027696681256,0.0068066618309807,0.027101762026733846,0.12997909208611413,0.004930537398516048
0.0293276,0.014456778445692724,0.004836706481492665,0.07441677990687297,0.008738644148048353,0.0071681681067109135,0.027406885977870023,0.1310699652366508,0.004973084525730243
0.0297931,0.014488997946188457,0.004907345706672833,0.0756910932875758,0.00882074906725663,0.007531656828520485,0.027710431865934238,0.13215337051139828,0.005015325656908908
0.0302586,0.014519238714365407,0.004978033800140883,0.07696797779365293,0.008902332038375574,0.007897163036520237,0.028012366005995548,0.13322914852670142,0.005057258300689949
0.0307241,0.014547502949297741,0.005048767388681748,0.0782473208143119,0.008983382729977684,0.00826472177043037,0.028312655051722282,0.13429714123476097,0.005098880030182475
0.0311897,0.014573793371149245,0.00511954314525793,0.07952900881637213,0.009063890896753806,0.008634368044464774,0.02861126600141993,0.13535719195806106,0.005140188482046721
0.0316552,0.014598113218075106,0.0051903577898430526,0.08081292735480193,0.009143846381112172,0.009006136821963035,0.02890816620393492,0.13640914542323532,0.005181181355534563
0.0321207,0.01462046624291304,0.00526120809023394,0.08209896108354196,0.009223239114762615,0.009380062989783364,0.029203323364423425,0.1374528477943651,0.005221856411491792
0.0325862,0.014640856709667699,0.00533209086284064,0.0833869937666191,0.009302059120287335,0.00975618133246977,0.029496705549984563,0.13848814670570622,0.00526221147132333
0.0330517,0.014659289389792269,0.005403002973453826,0.08467690828955371,0.009380296512699553,0.010134526506206967,0.029788281195157484,0.13951489129384206,0.005302244415922587
0.0335172,0.014675769558271101,0.00547394133798896,0.08596858667106336,0.009457941500991336,0.010515133012576637,0.0300780191072819,0.1405329322292633,0.005341953184566177
0.0339828,0.014690302989507074,0.005544902923206599,0.08726191007506512,0.009534984389671803,0.010898035172128806,0.030365888471721808,0.14154212174737607,0.005381335773775275
0.0344483,0.014702895953017351,0.005615884747408174,0.08855675882297867,0.00961141558029685,0.011283267097782195,0.030651858856951993,0.14254231367894182,0.005420390236144886
0.0349138,0.014713555208941067,0.00568688388110658,0.08985301240633213,0.009687225572991523,0.01167086266806744,0.030935900219506943,0.14353336347995418,0.005459114679142381
0.0353793,0.014722288003362479,0.005757897447670892,0.09115054949967231,0.009762404967966064,0.012060855500227204,0.0312179829087919,0.1445151282609597,0.0054975072638766475
0.0358448,0.014729102063453204,0.00582892262394449,0.09244924797378126,0.009836944467026628,0.012453278923187256,0.03149807767175586,0.14548746681583086,0.005535566203839197
0.0363103,0.014734005592437333,0.005899956640835863,0.09374898490920058,0.009910834875081608,0.012848165950412865,0.03177615565742648,0.1464502396499998,0.005573289763618589
0.0367759,0.014737007264383426,0.005970996783881316,0.09504963661006445,0.00998406710164447,0.013245549252665,0.03205218842130696,0.1474033090081602,0.005610676257589486
0.0372414,0.014738116218827575,0.00604204039377878,0.09635107861824214,0.010056632162334008,0.01364546113067105,0.03232614792963486,0.14834653890144459,0.005647724048577629
0.0377069,0.014737342055231889,0.006113084866891906,0.09765318572779086,0.01012852118037293,0.014047933487724804,0.03259800656350315,0.14927979513408338,0.005684431546502008
0.0381724,0.014734694827282797,0.006184127655723575,0.09895583199971893,0.010199725388085602,0.014452997802230569,0.0328677371228435,0.15020294532955078,0.005720797206995509
0.0386379,0.014730185037033553,0.006255166269357955,0.10025889077705945,0.010270236128395872,0.014860685100206161,0.03313531283027198,0.15111585895620164,0.005756819530005268
0.0391034,0.014723823628895238,0.00632619827387021,0.1015622347002534,0.01034004485632582,0.015271025927759519,0.03340070733479739,0.15201840735240257,0.005792497058374007
0.039569,0.014715621983480526,0.006397221292702998,0.10286573572284048,0.010409143140496338,0.01568405032355366,0.033663894715392294,0.15291046375115994,0.005827828376403548
0.0400345,0.014705591911304399,0.00646823300700882,0.10416926512745611,0.01047752266463049,0.016099787791274665,0.03392484948442709,0.15379190330424666,0.005862812108401713
0.0405,0.014693745646346084,0.00653923115595734,0.10547269354213124,0.01054517522906059,0.0165182672721173,0.034183546590967645,0.15466260310582924,0.005897446917213782
0.0409655,0.014680095839476388,0.006610213537006746,0.10677589095689169,0.010612092752239942,0.01693951711730289,0.03443996142393695,0.15552244221559602,0.0059317315027396815
0.041431,0.014664655551754701,0.006681178006138256,0.10807872674065297,0.01067826727226026,0.017363565060643828,0.03469406981514149,0.1563713016813879,0.005965664600438043
0.0418966,0.014647438247599886,0.006752122478052909,0.10938106965840566,0.010743690948375698,0.0177904381911692,0.03494584804216266,0.15720906456133252,0.005999244979818273
0.0423621,0.014628457787839218,0.006823044926329806,0.11068278788868671,0.010808356062534502,0.018220162925825845,0.03519527283111377,0.15803561594548285,0.006032471442921693
0.0428276,0.014607728422639528,0.006893943383545007,0.1119837490413318,0.010872255020919182,0.018652764982269098,0.03544232135926268,0.15885084297696098,0.006065342822792793
0.0432931,0.014585264784324637,0.006964815941350291,0.11328382017550395,0.01093538035549616,0.019088269351757555,0.03568697125752023,0.15965463487260595,0.006097857981941606
0.0437586,0.014561081880083176,0.007035660750510986,0.11458286781799408,0.01099772472557582,0.019526700272166075,0.035929200612794344,0.16044688294312556,0.0061300158107981655
0.0442241,0.014535195084570907,0.007106476020902125,0.11588075798178867,0.011059280919383806,0.019968081201131277,0.036168987970209655,0.16122748061274972,0.006161815226159975
0.0446897,0.014507620132411582,0.007177260021462156,0.11717735618489986,0.011120041855644506,0.02041243478934368,0.03640631233519245,0.16199632343838327,0.006193255169633497
0.0451552,0.014478373110600554,0.007248011080103423,0.11847252746945308,0.011180000585177615,0.02085978285400079,0.036641153175420944,0.1627533091282559,0.006224334606070646
0.0456207,0.014447470450815281,0.007318727583578674,0.11976613642102721,0.011239150292508705,0.021310146352435246,0.036873490422641,0.1634983375600652,0.006255052522001357
0.0460862,0.014414928921636982,0.0073894079773027845,0.12105804718824245,0.011297484297494697,0.021763545355932324,0.037103304474347926,0.1642313107986088,0.006285407924063408
0.0465517,0.014380765620687765,0.007460050765128902,0.12234812350259128,0.011354996056965263,0.02221999902375096,0.03733057619533493,0.1649521331129006,0.006315399837430687
0.0470172,0.01434499796668757,0.007530654509078164,0.12363622869850695,0.0114116791663811,0.022679525577362414,0.037555286919109226,0.1656607109927655,0.0063450273042411735
0.0474828,0.01430764369143533,0.007601217829022166,0.1249222257336652,0.01146752736151004,0.02314214227492044,0.037777418449176633,0.16635695316490706,0.00637428938202596
0.0479483,0.014268720831718804,0.007671739402317352,0.12620597720951546,0.011522534520121884,0.023607865385976864,0.03799695306019577,0.167040770608443,0.006403185142140628
0.0484138,0.014228247721157548,0.007742217963390526,0.1274873453920391,0.01157669466370288,0.024076710166456062,0.03821387349900262,0.16771207656990372,0.006431713668200298
0.0488793,0.01418624298198345,0.007812652303274745,0.12876619223273356,0.011630001959190568,0.024548690833901866,0.03842816298550639,0.16837078657768972,0.006459874054519671
0.0493448,0.014142725516763287,0.007883041269094839,0.13004237938982252,0.01168245072072976,0.02502382054301008,0.03863980521345737,0.16901681845598332,0.0064876654045593445
0.0498103,0.014097714500067709,0.007953383763501928,0.13131576824969274,0.011734035411450251,0.025502111361459745,0.038848784351087316,0.16965009233810976,0.006515086829379659
0.0502759,0.014051229370090948,0.008023678744056389,0.13258621994855863,0.011784750645266863,0.02598357424605616,0.03905508504162271,0.17027053067934234,0.006542137446103288
0.0507414,0.014003289820225551,0.008093925222558798,0.13385359539435537,0.011834591188702313,0.02646821901919851,0.03925869240367123,0.17087805826914634,0.006568816376387756
0.0512069,0.013953915790596344,0.008164122264328506,0.13511775528886233,0.011883551962733378,0.02695605434568494,0.039459592031481666,0.17147260224285663,0.0065951227449090365
0.0516724,0.013903127459557853,0.008234268987429553,0.1363785601500586,0.011931628044660837,0.027447087709867913,0.03965776999507699,0.17205409209278438,0.006621055677857375
0.0521379,0.013850945235159427,0.00830436456184371,0.1376358703347142,0.011978814670003606,0.027941325393172466,0.039853212840260686,0.1726224596787496,0.006646614301446482
0.0526034,0.013797389746582397,0.008374408208590442,0.13888954606122073,0.012025107234417565,0.028438772451989953,0.04004590758849599,0.173177639238035,0.0066717977404372
0.053069,0.01374248183555364,0.008444399198793539,0.1401394474326655,0.012070501295639555,0.028939432695959742,0.04023584173665801,0.17371956739475922,0.006696605116676769
0.0535345,0.013686242547740033,0.00851433685269418,0.14138543446015375,0.012114992575457107,0.029443308666651062,0.040423003256659006,0.17424818316866672,0.006721035547654782
0.054,0.013628693124128314,0.008584220538610111,0.14262736708638243,0.012158576961704503,0.02995040161665721,0.04060738059494758,0.17476342798333283,0.006745088145076854
0.0544655,0.013569854992394884,0.00865404967184063,0.14386510520946794,0.012201250510285777,0.030460711489113956,0.040788962671883075,0.17526524567378354,0.006768762013457007
0.054931,0.01350974975827016,0.00872382371351706,0.1450985087070305,0.012243009447225317,0.03097423689765406,0.040967738880986905,0.17575358249353223,0.006792056248729707
0.0553966,0.01344839919690204,0.008793542169398384,0.14632743746053709,0.012283850170746692,0.0314909751068094,0.041143699088072756,0.17622838712103556,0.006814969936882423
0.0558621,0.013385825244223052,0.008863204588611772,0.1475517513799034,0.01232376925338036,0.03201092201287212,0.041316833630257774,0.17668961066557404,0.0068375021526095705
0.0563276,0.013322049988325754,0.008932810562337766,0.14877131042835615,0.012362763444100769,0.03253407212522603,0.041487133314856935,0.17713720667256214,0.006859651957988604
0.0567931,0.013257095660850886,0.009002359722439962,0.14998597464755523,0.012400829670493376,0.03306041854815935,0.04165458941816282,0.17757113112829262,0.006881418401178976
0.0572586,0.013190984628392724,0.00907185174003913,0.15119560418297687,0.012437965040952013,0.03358995296316975,0.041819193684112924,0.17799134246412013,0.0069028005151446584
0.0577241,0.013123739383925996,0.009141286324031883,0.15240005930955924,0.012474166846907015,0.034122665611772456,0.041980938322846384,0.17839780156008964,0.00692379731640085
0.0581897,0.013055382538258614,0.009210663219554136,0.1535992004576136,0.012509432565084471,0.034658545278822124,0.04213981600915217,0.1787904717480162,0.006944407803785469
0.0586552,0.012985936811514357,0.009279982206389844,0.15479288823900478,0.012543759859796916,0.03519757927635902,0.04229581988081048,0.17916931881402479,0.006964630957256054
0.0591207,0.012915425024649587,0.009349243097325695,0.15598098347360564,0.01257714658526578,0.035739753427990135,0.04244894353682951,0.17953431100056,0.00698446573671268
0.0595862,0.01284387009100795,0.009418445736452579,0.1571633472160296,0.012609590787975826,0.036285052053815936,0.04259918103557985,0.1798854190078762,0.007003911080847606
0.0600517,0.01277129500791695,0.009487589997414777,0.15833984078264438,0.012641090709061796,0.03683345795591355,0.0427465268928292,0.1802226159950177,0.007022965906022385
0.0605172,0.012697722848330213,0.009556675781607871,0.1595103257788698,0.012671644786727354,0.037384952404387245,0.04289097607968012,0.18054587758029905,0.007041629105173248
0.0609828,0.012623176752519095,0.009625703016326452,0.16067466412676037,0.012701251658696322,0.03793951512399699,0.04303252402041399,0.180855181841293,0.007059899546745606
0.0614483,0.012547679919817341,0.009694671652862679,0.16183271809287386,0.012729910164696136,0.03849712428137566,0.0431711665902437,0.18115050931433577,0.007077776073658483
0.0619138,0.012471255600422254,0.009763581664556839,0.1629843503164254,0.012757619348973407,0.03905775647284516,0.04330690011297774,0.18143184299355802,0.007095257502299717
0.0623793,0.012393927087255842,0.009832433044801081,0.16412942383772594,0.01278437846284139,0.03962138671284183,0.043439721358598214,0.1816991683294536,0.007112342621552694
0.0628448,0.01231571770788928,0.009901225804997627,0.1652678021269029,0.012810186967259156,0.0401879884229609,0.04356962754075489,0.1819524732269998,0.0071290301918554115
0.0633103,0.012236650816533983,0.009969959972472787,0.1663993491129,0.01283504453544223,0.04075753342162982,0.043696616314177365,0.182191748043346,0.007145318944292643
0.0637759,0.012156749786102409,0.010038635588348188,0.16752392921275136,0.012858951055504456,0.041329991914420126,0.04382068577200704,0.18241698558508834,0.007161207579721948
0.0642414,0.012076038000341687,0.010107252705370691,0.16864140736112385,0.012881906633130784,0.0419053324850073,0.04394183444305051,0.1826281811051494,0.007176694767934355
0.0647069,0.011994538846043047,0.010175811385702406,0.16975164904012022,0.012903911594280655,0.04248352208678792,0.044060061288955656,0.18282533229928097,0.007191779146850482
0.0651724,0.011912275705329904,0.010244311698672282,0.17085452030933435,0.012924966487921635,0.043064526035163295,0.044175365701311455,0.18300843930220692,0.007206459321752837
0.0656379,0.01182927194802739,0.010312753718490648,0.17194988783614867,0.012945072088792938,0.04364830800049861,0.04428774749867241,0.18317750468342267,0.007220733864555037
0.0661034,0.01174555092411601,0.010381137521928051,0.17303761892626213,0.012964229400198608,0.044234830001766375,0.04439720692350822,0.1833325334426663,0.007234601313108626
0.066569,0.011661135956272018,0.010449463185959726,0.17411758155443682,0.012982439656830169,0.04482405240088288,0.0445037446390791,0.1834735330050749,0.007248060170548137
0.0670345,0.011576050332496984,0.010517730785376973,0.17518964439545023,0.012999704327618654,0.04541593389774588,0.044607361726236985,0.1836005132160389,0.0072611089046749995
0.0675,0.011490317298838957,0.010585940390366767,0.17625367685523843,0.013016025118615973,0.046010431525981735,0.04470805968015277,0.1837134863357655,0.007273745947380895
0.0679655,0.011403960052207488,0.010654092064061028,0.17730954910221552,0.01303140397590564,0.04660750064940968,0.04480584040696951,0.18381246703356122,0.00728596969411111
0.068431,0.011317001733284742,0.0107221858600571,0.17835713209875223,0.013045843088542862,0.04720709495923105,0.04490070622038141,0.18389747238184226,0.007297778503368453
0.0688966,0.011229465419534762,0.010790221819911149,0.17939629763279671,0.013059344891524,0.04780916647195043,0.04499265983813842,0.18396852184987988,0.007309170696258253
0.0693621,0.011141374118312912,0.010858199970606256,0.18042691834961821,0.013071912068785305,0.048413665528036054,0.045081704378476604,0.1840256372972874,0.007320144556074948
0.0698276,0.011052750760077414,0.010926120321997189,0.18144886778365374,0.013083547556230844,0.04902054079132616,0.045167843356474814,0.18406884296725412,0.007330698327930748
0.0702931,0.01096361819170485,0.010993982864233712,0.18246202039043583,0.013094254544789378,0.049629739249188,0.04525108068033891,0.18409816547952998,0.007340830218426804
0.0707586,0.010873999169911372,0.01106178756516437,0.18346625157857951,0.013104036483500047,0.050241206213435856,0.045331420647615826,0.18411363382316476,0.007350538395367352
0.0712241,0.010783916354781327,0.0111295343677226,0.18446143774180304,0.013112897082626487,0.05085488532201405,0.04540886794134032,0.184115279349003,0.007359820987517224
0.0716897,0.01069339230340484,0.011197223187296997,0.185447456290958,0.01312084031679901,0.051470718541450765,0.04548342762611797,0.18410313576193593,0.007368676084403178
0.0721552,0.010602449463625931,0.011264853909087371,0.18642418568604147,0.013127870428184384,0.05208864617008806,0.04555510514414828,0.18407723911291018,0.007377101736159453
0.0726207,0.010511110167902559,0.011332426385448305,0.18739150546816216,0.013133991929682681,0.05270860684209317,0.04562390631119186,0.18403762779069438,0.007385095953417993
0.0730862,0.010419396627279967,0.011399940433221657,0.1883492962914317,0.013139209608150583,0.053330537532255785,0.04568983731248575,0.18398434251340257,0.007392656707243794
0.0735517,0.010327330925478537,0.011467395831059534,0.18929743995475135,0.013143528527650413,0.05395437356157565,0.04575290469861097,0.18391742631977617,0.007399781929115747
0.0740172,0.010234935013097341,0.011534792316739076,0.190235819433464,0.013146954032724147,0.054580048603644654,0.045813115381316744,0.1838369245602247,0.007406469510953353
0.0744828,0.010142230701934471,0.011602129584470391,0.1911643189108429,0.01314949175169151,0.05520749469182728,0.04587047662930579,0.18374288488762688,0.007412717305189603
0.0749483,0.010049239659425125,0.011669407282198889,0.1920828238093884,0.013151147599971243,0.05583664222724295,0.04592499606398608,0.18363535724789287,0.007418523124890277
0.0754138,0.009955983403198448,0.011736625008903226,0.1929912208219065,0.013151927783424455,0.056467419987553995,0.04597668165519459,0.18351439387028878,0.007423884743919853
0.0758793,0.009862483295753986,0.011803782311890058,0.19388939794234467,0.013151838801718977,0.05709975513656222,0.046025541716898585,0.18338004925752407,0.007428799897154181
0.0763448,0.009768760539258608,0.011870878684086782,0.19477724449636138,0.013150887451713429,0.05773357323461737,0.04607158490288048,0.18323238017560273,0.007433266280740054
0.0768103,0.009674836170464697,0.0119379135613334,0.19565465117160755,0.013149080830859647,0.05836879824984008,0.046114820202412005,0.18307144564343783,0.007437281552401796
0.0772759,0.009580731055750328,0.012004886319674637,0.19652151004769802,0.013146426340622002,0.05900535257016195,0.04615525693592374,0.18289730692222758,0.0074408433317949595
0.0777414,0.009486465886282113,0.012071796272653413,0.1973777146258515,0.013142931689912062,0.059643157016184924,0.04619290475067577,0.1827100275045904,0.0074439492009072
0.0782069,0.009392061173301339,0.012138642668606781,0.19822315985817543,0.01313860489853691,0.06028213085486183,0.04622777361643534,0.1825096731034546,0.0074465967045063836
0.0786724,0.009297537243533917,0.012205424687965469,0.19905774217657257,0.013133454300659424,0.06092219181399938,0.04625987382116719,0.18229631164069665,0.007448783350635943
0.0791379,0.009202914234724665,0.012272141440558229,0.19988135952124328,0.013127488548268736,0.06156325609758473,0.04628921596674189,0.18207001323552197,0.0074505066111575
0.0796034,0.009108212091296326,0.01233879196292217,0.20069391136875792,0.01312071661465903,0.06220523840193609,0.04631581096466721,0.1818308501925798,0.007451763922340771
0.080069,0.009013450560133744,0.012405375215620284,0.20149529875967295,0.013113147797914853,0.06284805193267753,0.046339670031847434,0.18157889698980345,0.0074525526855007875
0.0805345,0.008918649186493497,0.012471890080567302,0.2022854243256634,0.013104791724401045,0.06349160842253745,0.04636080468637532,0.18131423026596577,0.007452870267682437
0.081,0.008823827310039238,0.012538335358365085,0.20306419231614428,0.013095658352255382,0.06413581814997013,0.04637922674336123,0.1810369288079387,0.007452714002392363
0.0814655,0.00872900406100297,0.01260470976564869,0.20383150862435317,0.013085757974882014,0.06478058995859916,0.04639494831080358,0.18074707353764585,0.00745208119037825
0.081931,0.008634198356472332,0.012671011932444408,0.20458728081286523,0.013075101224443733,0.06542583127748135,0.04640798178550498,0.180444747498697,0.007450969100455563
0.0823966,0.008539428896803982,0.01273724039954102,0.20533141813851138,0.013063699075351067,0.06607144814218925,0.04641833984903749,0.18013003584269394,0.00744937497038183
0.0828621,0.008444714162163029,0.01280339361587563,0.2060638315766716,0.013051562847746159,0.06671734521671017,0.04642603546376061,0.17980302581519741,0.007447296007778634
0.0833276,0.008350072409188445,0.012869469935935315,0.20678443384491504,0.013038704210979366,0.06736342581615909,0.04643108186889505,0.17946380674134343,0.007444729391101505
0.0837931,0.008255521667784312,0.012935467617175912,0.2074931394259617,0.013025135187076417,0.06800959193030241,0.046433492576655,0.17911247001109804,0.00744167227065792
0.0842586,0.008161079738036757,0.013001384817459088,0.2081898645899404,0.013010868154193878,0.06865574424788895,0.046433281368441486,0.1787491090641378,0.0074381217696736
0.0847241,0.008066764187256329,0.01306721959250879,0.20887452741592086,0.012995915850060618,0.06930178218178407,0.04643046229109904,0.1783738193743434,0.007434074985407274
0.0851897,0.007972592347145618,0.013132969893388136,0.20954704781269992,0.012980291375402865,0.06994760389490223,0.04642504965323782,0.1779866984338934,0.00742952899031404
0.0856552,0.007878581311091792,0.013198633563997728,0.2102073475388235,0.012964008197350413,0.07059310632693297,0.04641705802162286,0.17758784573694364,0.007424480833257374
0.0861207,0.007784747931583707,0.013264208338596381,0.2108553502218284,0.01294708015282143,0.07123818522185422,0.04640650221763217,0.17717736276287896,0.007418927540769837
0.0865862,0.00769110881775323,0.013329691839345152,0.21149098137668956,0.012929521451883329,0.0718827351562272,0.04639339731378478,0.17675535295912279,0.0074128661183625166
0.0870517,0.007597680333040313,0.01339508157387553,0.2121141684234582,0.012911346681087094,0.07252664956826586,0.046377758630339695,0.17632192172349018,0.007406293551883248
0.0875172,0.007504478592981365,0.01346037493288265,0.21272484070407724,0.01289257080677242,0.07316982078767434,0.04635960173196669,0.17587717638607114,0.007399206808923651
0.0879828,0.007411519463120396,0.013525569187744217,0.21332292949836104,0.012873209178340918,0.07381214006624497,0.046338942424489445,0.17542122619063066,0.007391602840275086
0.0884483,0.0073188185570423735,0.013590661488165859,0.21390836803912755,0.012853277531494648,0.07445349760920923,0.04631579675170159,0.17495418227551193,0.007383478581433567
0.0889138,0.007226391234528165,0.013655648859853646,0.21448109152647313,0.012832791991437153,0.07509378260733407,0.04629018099225599,0.1744761576540304,0.007374830954153711
0.0893793,0.007134252599830433,0.013720528202214475,0.21504103714118297,0.012811769076034096,0.07573288326975543,0.046262111656627504,0.17398726719434557,0.007365656868051723
0.0898448,0.007042417500069779,0.013785296286085122,0.21558814405727225,0.012790225698930605,0.07637068685754098,0.046231605484149084,0.17348762759879732,0.0073559532222573915
0.0903103,0.006950900523750375,0.013849949751490911,0.21612235345365452,0.01276817917262238,0.07700707971797338,0.04619867944012109,0.1729773573826949,0.007345716907115031
0.0907759,0.00685971599939435,0.013914485105434997,0.21664360852493517,0.012745647211477668,0.07764194731954552,0.04616335071299319,0.17245657685254598,0.007334944805933259
0.0912414,0.006768877994294065,0.013978898719719352,0.21715185449132854,0.012722647934707083,0.07827517428765808,0.04612563671161817,0.17192540808371323,0.007323633796783439
0.0917069,0.006678400313381429,0.014043186828798728,0.21764703860769774,0.012699199869278274,0.07890664444101012,0.04608555506257685,0.17138397489748522,0.007311780754346599
0.0921724,0.006588296498213344,0.014107345527668912,0.218129110171719,0.012675321952772434,0.07953624082867201,0.046043123607573185,0.170832402837549,0.007299382551808561
0.0926379,0.006498579826072378,0.014171370769790649,0.21859802053117397,0.012651033536179497,0.08016384576782999,0.045998360400898546,0.1702708191458499,0.007286436062803044
0.0931034,0.0064092633091816665,0.014235258365050768,0.21905372309037782,0.012626354386628956,0.0807893408821907,0.04595128370696436,0.16969935273782502,0.007272938163402418
0.093569,0.006320359694033055,0.01429900397776206,0.2194961733157536,0.012601304690053038,0.08141260714103343,0.04590191199790204,0.169118134176996,0.007258885734155793
0.0940345,0.006231881460827432,0.0143626031247035,0.2199253287405668,0.012575905053779082,0.08203352489889698,0.0458502639512295,0.16852729564890823,0.007244275662174061
0.0945,0.006143840823026148,0.014426051173202501,0.22034114896883428,0.012550176509047828,0.08265197393588737,0.045796358447583306,0.16792697093440315,0.007229104843261485
0.0949655,0.006056249727012393,0.014489343339260918,0.2207435956784243,0.01252414051345433,0.08326783349859232,0.045740214568515986,0.1673172953822136,0.007213370184093411
0.095431,0.005969119851861315,0.014552474685726425,0.22113263262336486,0.012497818953308216,0.08388098234158707,0.04568185159435823,0.16669840588087256,0.007197068604439613
0.0958966,0.005882462609217675,0.0146154401205109,0.2215082256353771,0.012471234145909942,0.08449129876951605,0.04562128900214581,0.16607044082992722,0.007180197039432831
0.0963621,0.005796289143279762,0.014678234394857418,0.22187034262464958,0.01244440884173972,0.08509866067973373,0.04555854646361117,0.16543354011045025,0.007162752441882023
0.0968276,0.0057106103308882826,0.014740852101657436,0.2222189535798686,0.012417366226555681,0.08570294560548747,0.04549364384323983,0.16478784505483973,0.007144731784629847
0.0972931,0.00562543678171889,0.014803287673819788,0.222554030567518,0.012390129923397757,0.08630403075962448,0.04542660119639137,0.16413349841589836,0.007126132062953881
0.0977586,0.005540778838576999,0.01486553538269311,0.2228755477304623,0.01236272399449378,0.08690179307880415,0.045357438767484666,0.16347064433518219,0.007106950297011036
0.0982241,0.005456646577793508,0.01492758933654344,0.2231834812858262,0.01233517294306405,0.08749610926819648,0.045286176988246676,0.1627994283106087,0.0070871835343245945
0.0986897,0.005373049809720021,0.014989443479088727,0.22347780952218269,0.01230750171502058,0.08808685584664616,0.045212836476023734,0.16211999716331366,0.007066828852313235
0.0991552,0.0052899980793221476,0.015051091588092116,0.22375851279606473,0.012279735700557149,0.08867390919228167,0.04513743803215398,0.16143249900374593,0.007045883360861368
0.0996207,0.005207500666869467,0.015112527274015937,0.22402557352781396,0.01225190073562618,0.08925714558854778,0.045060002640399326,0.16073708319698943,0.007024344204930045
0.1000862,0.005125566588720729,0.015173743978738451,0.2242789761967815,0.012224023103298341,0.08983644127063886,0.0449805514654349,0.16003390032730358,0.0070022085672077124
0.1005517,0.005044204598202886,0.01523473497433541,0.22451870733589757,0.012196129535000778,0.0904116724723104,0.04489910585139379,0.15932310216187578,0.006979473670799962
0.1010172,0.0049634231865825105,0.015295493361928513,0.2247447555256258,0.012168247211629757,0.0909827154730447,0.04481568732046465,0.15860484161378574,0.006956136781957472
0.1014828,0.004883230584128209,0.015356012070602793,0.22495711138731903,0.012140403764533542,0.09154944664554672,0.04473031757153972,0.15787927270418545,0.00693219521284126
0.1019483,0.004803634761262551,0.015416283856394883,0.22515576757599143,0.012112627276361273,0.09211174250354444,0.04464301847891124,0.157146550523704,0.006907646324324406
0.1024138,0.004724643429802055,0.01547630130135399,0.22534071877252176,0.01208494628177357,0.09266947974986851,0.04455381209101408,0.15640683119308985,0.006882487528829394
0.1028793,0.004646264044283741,0.015536056812677333,0.22551196167530074,0.012057389768010593,0.0932225353247842,0.04446272062921305,0.15566027182310774,0.006856716293200293
0.1033448,0.004568503803376735,0.015595542621921732,0.22566949499133362,0.012029987175313188,0.09377078645454826,0.04436976648663345,0.15490703047371213,0.0068303301416090005
0.1038103,0.004491369651377387,0.015654750784293018,0.22581331942680738,0.01200276839719275,0.09431411070016274,0.04427497222703387,0.15414726611252308,0.006803326658494773
0.1042759,0.004414868279786374,0.015713673178014895,0.22594343767713201,0.01197576378054533,0.09485238600629682,0.04417836058372041,0.153381138572634,0.0067757034915362805
0.1047414,0.00433900612896622,0.015772301503778865,0.22605985441646462,0.01194900412560569,0.09538549075034733,0.044079954458501595,0.15260880850978215,0.006747458354655468
0.1052069,0.004263789389877672,0.015830627284276803,0.22616257628672404,0.011922520685736807,0.09591330379160881,0.04397977692068296,0.15183043735891547,0.006718589031052525
0.1056724,0.0041892240058933735,0.01588864186381775,0.22625161188610488,0.011896345167050577,0.09643570452052343,0.043877851206100604,0.15104618729018932,0.0066890933762713285
0.1061379,0.004115315674687272,0.01594633640803038,0.2263269717570995,0.011870509727855475,0.09695257290798187,0.04377420071619256,0.1502562211644278,0.006658969321294718
0.1066034,0.004042069850198232,0.01600370190365259,0.22638866837403557,0.011845046977927095,0.09746378955464632,0.04366884901710695,0.14946070248808463,0.006628214875669054
0.107069,0.003969491744666312,0.016060729158409514,0.22643671613013697,0.011819989977597622,0.09796923574026632,0.043561819838845516,0.14865979536773863,0.006596828130657433
0.1075345,0.0038975863307401507,0.016117408800981184,0.22647113132411636,0.011795372236660504,0.09846879347295809,0.04345313707444102,0.14785366446415862,0.006564807262420964
0.108,0.003826358343653899,0.016173731281060925,0.22649193214630842,0.011771227713086698,0.09896234553841789,0.043342824779166594,0.14704247494597295,0.00653215053522745
0.1084655,0.0037558122834721003,0.016229686869505554,0.22649913866435556,0.011747590811549009,0.09944977554903899,0.043230907169775026,0.1462263924429778,0.006498856304686802
0.108931,0.003685952417400939,0.016285265658578348,0.22649277280845903,0.01172449638175113,0.0999309679929009,0.0431174086237655,0.14540558299911885,0.0064649230210124375
0.1093966,0.003616782782164231,0.016340457562285766,0.22647285835621012,0.011701979716558057,0.10040580828259961,0.04300235367867509,0.14458021302518043,0.006430349232307882
0.1098621,0.0035483071864425447,0.01639525231680901,0.2264394209170177,0.011680076549924633,0.10087418280388731,0.04288576703139214,0.14375044925121702,0.006395133587877751
0.1103276,0.0034805292133738177,0.016449639481031512,0.2263924879161488,0.011658823054618938,0.1013359789640899,0.0427676735374885,0.14291645867876157,0.006359274841562197
0.1107931,0.0034134522231138386,0.01650360843716361,0.22633208857839843,0.011638255839737361,0.10179108524026984,0.04264809821056743,0.1420784085328462,0.006322771855093912
0.1112586,0.0033470793554549465,0.016557148391465704,0.22625825391140392,0.011618411948008176,0.1022393912271024,0.04252706622162408,0.1412364662138717,0.006285623601476657
0.1117241,0.0032814135325013,0.016610248375071354,0.2261710166886194,0.01159932885288049,0.10268078768443271,0.042404602898415,0.14039079924936185,0.006247829168384308
0.1121897,0.003216457461399046,0.016662897244911767,0.22607041143196374,0.011581044455395414,0.10311516658448135,0.042280733724833194,0.13954157524563846,0.006209387761579275
0.1126552,0.0031522136371196995,0.016715083684743195,0.22595647439415598,0.011563597080836381,0.10354242115866695,0.04215548434028522,0.13868896183945312,0.00617029870834921
0.1131207,0.003088684345295027,0.0167667962062787,0.22582924354075223,0.011547025475155438,0.10396244594401464,0.04202888053906657,0.13783312664961045,0.006130561460960787
0.1135862,0.0030258716651016967,0.01681802315042571,0.2256887585318987,0.011531368801172413,0.10437513682911935,0.04190094826973169,0.13697423722861662,0.006090175600129307
0.1140517,0.0029637774721939588,0.016868752688630733,0.22553506070381696,0.011516666634543734,0.10478039109963391,0.04177171363445476,0.13611246101438645,0.006049140838502877
0.1145172,0.00290240344168262,0.016918972824332416,0.2253681930500386,0.011502958959497676,0.10517810748325201,0.041641202888377346,0.13524796528204133,0.006007457024159844
0.1149828,0.0028417510511585795,0.016968671394524234,0.22518820020240846,0.011490286164332742,0.10556818619415696,0.04150944243893895,0.13438091709582942,0.0059651241441181
0.1154483,0.0027818215837592257,0.017017836071427806,0.22499512841187608,0.011478689036675795,0.10595052897690842,0.041376458845186266,0.13351148326119924,0.005922142327854933
0.1159138,0.002722616131276027,0.017066454364277863,0.22478902552909596,0.011468208758496494,0.10632503914974084,0.04124227881705663,0.1326398302770558,0.005878511850836038
0.1163793,0.002664135597301658,0.017114513621219785,0.22456994098485616,0.011458886900874442,0.10669162164724845,0.04110692921463089,0.1317661242882288,0.0058342331380523485
0.1168448,0.0026063807004150477,0.01716200103132051,0.224337925770355,0.011450765418515417,0.10705018306243207,0.04097043704735066,0.13089053103818046,0.005789306767563368
0.1173103,0.00254935197740276,0.017208903626693552,0.22409303241734455,0.011443886644012939,0.1074006316880834,0.040832829473194915,0.1300132158219811,0.005743733474045664
0.1177759,0.0024930497865151124,0.017255208284738855,0.22383531497815826,0.011438293281851345,0.10774287755748259,0.040694133797810665,0.1291343434395782,0.005697514152345203
0.1182414,0.002437474310755469,0.01730090173049809,0.22356482900564065,0.011434028402146435,0.10807683248438402,0.040554377473592536,0.12825407814938497,0.005650649861032184
0.1187069,0.002382625561201108,0.01734597053912602,0.22328163153299602,0.011431135434119733,0.10840241010226517,0.04041358809870634,0.1273725836222131,0.005603141825956985
0.1191724,0.002328503380354084,0.017390401138478513,0.2229857810535731,0.011429658159302346,0.10871952590281314,0.04027179341605167,0.1264900228955732,0.005554991443805835
0.1196379,0.002275107445520485,0.01743417981181771,0.22267733750060215,0.011429640704464323,0.10902809727362307,0.0401290213121585,0.12560655832836667,0.005506200285654765
0.1201034,0.0022224372722164823,0.01747729270063489,0.22235636222689847,0.011431127534265511,0.10932804353508271,0.039985299816012745,0.12472235155599033,0.005456770100520366
0.120569,0.0021704922175995916,0.01751972580759138,0.22202291798454835,0.01143416344362385,0.1096192859764183,0.039840657097805855,0.12383756344587551,0.005406702818905892
0.1210345,0.0021192714839235473,0.017561464999577916,0.2216770689045896,0.01143879354979703,0.10990174789087719,0.03969512146760334,0.12295235405348155,0.0053560005563411455
0.1215,0.0020687741220152254,0.01760249601089259,0.22131888047670084,0.011445063284173527,0.11017535461002317,0.03954872137392739,0.12206688257876316,0.005304665616914619
0.1219655,0.0020189990347720304,0.017642804446537597,0.2209484195289123,0.011453018383768927,0.11044003353712102,0.039401485402248713,0.12118130732312983,0.005252700496796315
0.122431,0.00196994498067818,0.017682375785634682,0.22056575420735122,0.0114627048824235,0.11069571417958675,0.039253442273382594,0.1202957856469145,0.005200107887749622
0.1228966,0.0019216105773383076,0.017721195384959296,0.2201709539560335,0.01147416910169699,0.11094232818048211,0.039104620841784295,0.11941047392736807,0.005146890680630675
0.1233621,0.0018739943050267954,0.01775924848259321,0.21976408949671347,0.01148745764145677,0.11117980934903188,0.038955050093738605,0.11852552751719521,0.005093051968873562
0.1238276,0.0018270945102512458,0.017796520201695348,0.21934523280880147,0.011502617370155873,0.11140809369014482,0.038804759145438364,0.11764110070364646,0.005038595051959767
0.1242931,0.0017809094093285006,0.01783299555439039,0.21891445710936058,0.011519695414798154,0.11162711943292045,0.03865377724094682,0.11675734666818131,0.004983523438870238
0.1247586,0.0017354370919716057,0.017868659445774704,0.21847183683319218,0.0115387391505888,0.11183682705812514,0.03850213375003864,0.11587441744671627,0.004927840851518424
0.1252241,0.0016906755248861287,0.017903496678039123,0.21801744761302094,0.01155979619026967,0.11203715932462109,0.0383498581659148,0.1149924638904713,0.0048715512281626685
0.1256897,0.0016466225553742402,0.017937491954708056,0.21755136625978788,0.011582914373140287,0.11222806129473172,0.038196980102786784,0.11411163562742777,0.004814658726796311
0.1261552,0.0016032759149449739,0.017970629884994628,0.21707367074306055,0.011608141753766454,0.11240948035852666,0.038043529293326044,0.11323208102440946,0.004757167728513829
0.1266207,0.0015606332229290876,0.01800289498827165,0.21658444017156833,0.011635526590379534,0.11258136625700862,0.03788953558597472,0.11235394714979823,0.0046990828408513445
0.1270862,0.0015186919900969495,0.018034271698658462,0.2160837547738699,0.011665117332970074,0.1127436711041835,0.03773502894211404,0.11147737973689517,0.004640408901099779
0.1275517,0.0014774496222778757,0.018064744369723912,0.21557169587915923,0.011696962611080053,0.11289634940799502,0.03758003943308711,0.11060252314793728,0.0045811509795889134
0.1280172,0.0014369034239793685,0.01809429727930595,0.2150483458982164,0.011731111221298276,0.11303935809010508,0.03742459723707326,0.1097295203387793,0.004521314382940603
0.1284828,0.0013970506020047225,0.018122914634448355,0.21451378830450857,0.011767612114463762,0.11317265650450135,0.03726873263581198,0.10885851282425014,0.00446090465728936
0.1289483,0.0013578882690675113,0.01815058057645528,0.2139681076154461,0.011806514382582003,0.11329620645491642,0.03711247601117516,0.10798964064419307,0.004399927591468506
0.1294138,0.001319413447401495,0.01817727918606415,0.21341138937379767,0.011847867245459073,0.11340997221104536,0.03695585784158746,0.10712304233019794,0.004338389220160096
0.1298793,0.0012816230723645154,0.01820299448873754,0.21284372012926775,0.011891720037058661,0.11351392052355183,0.03679890869829473,0.10625885487303477,0.00427629582700683
0.1303448,0.0012445139960349592,0.018227710460074403,0.21226518742023892,0.01193812219158733,0.11360802063785572,0.03664165924148131,0.10539721369079676,0.004213653947684158
0.1308103,0.0012080829907993747,0.01825141103134104,0.2116758797556799,0.011987123229313447,0.11369224430669671,0.03648414021623668,0.10453825259776153,0.004150470372930825
0.1312759,0.0011723267529298214,0.018274080095121898,0.21107588659721982,0.012038772742125486,0.11376656580146971,0.03632638244837272,0.10368210377397818,0.004086752151536107
0.1317414,0.0011372419061495241,0.018295701511090293,0.21046529834138855,0.012093120378835632,0.11383096192232858,0.0361684168400928,0.10282889773558805,0.004022506593282009
0.1322069,0.0011028250051854072,0.01831625911189885,0.20984420630202189,0.012150215830234934,0.1138854120070553,0.0360102743655147,0.10197876330588634,0.003957741271838692
0.1326724,0.0010690725393060758,0.018335736709189438,0.2092127026928324,0.012210108813906426,0.11392989793869213,0.0358519860660493,0.10113182758713139,0.0038924640276114435
0.1331379,0.0010359809358438175,0.01835411809972214,0.20857088061014606,0.012272849058802975,0.11396440415193415,0.03569358304563751,0.10028821593310809,0.0038266829705374955
0.1336034,0.001003546563699196,0.01837138707162272,0.20791883401580544,0.012338486289596762,0.11398891763827924,0.03553509646584731,0.0994480519224517,0.003760406482831023
0.134069,0.000971765736826806,0.018387527410747992,0.2072566577202408,0.012407070210807548,0.11400342794993233,0.035376557540833284,0.09861145733273854,0.003693643221674627
0.1345345,0.0009406347177007624,0.018402522907168282,0.20658444736570863,0.012478650490717048,0.11400792720246236,0.03521799753216063,0.09777855211535025,0.0036264021218556423
0.135,0.000910149720758489,0.01841635736176622,0.205902299409698,0.012553276745076941,0.11400241007621265,0.03505944774349584,0.09694945437111874,0.0035586923983456143
0.1354655,0.000880306915821384,0.01842901459295093,0.2052103111085033,0.01263099852061817,0.11398687381646792,0.03490093951516646,0.09612428032675897,0.0034905235488213006
0.135931,0.0008511024314909316,0.018440478443486716,0.20450858050096288,0.01271186527836939,0.11396131823238516,0.034742504218592325,0.09530314431209601,0.003421905356125577
0.1363966,0.000822532358518839,0.01845073278743524,0.20379720639236476,0.012795926376792634,0.11392574569469731,0.034584173250591294,0.0944861587380924,0.0033528478906666216
0.1368621,0.000794592753149796,0.018459761537210122,0.2030762883385207,0.012883231054744333,0.11388016113220119,0.03442597802756194,0.09367343407568084,0.0032833615127537516
0.1373276,0.0007672796404354876,0.01846754865074293,0.2023459266300132,0.012973828414270047,0.11382457202704141,0.03426794997954652,0.09286507883540707,0.003213456874868299
0.1377931,0.000740589017518531,0.01847407813875938,0.20160622227662003,0.013067767403241488,0.11375898840880373,0.034110120544177086,0.09206119954788634,0.003143144923867909
0.1382586,0.0007145168568850548,0.018479334072164563,0.2008572769919238,0.013165096797844446,0.11368342284743213,0.033952521160507856,0.0912619007450768,0.0030724369031226812
0.1387241,0.0006890591095846799,0.01848330058953582,0.20009919317811173,0.01326586518492648,0.11359789044498426,0.033795183262736686,0.09046728494237187,0.0030013443545815442
0.1391897,0.0006642117084167004,0.018485961904721907,0.1993320739109727,0.013370120944213318,0.11350240882624119,0.033638138273818445,0.08967745262151314,0.002929879120767264
0.1396552,0.0006399705710812859,0.01848730231454684,0.19855602292509597,0.013477912230403089,0.11339699812818818,0.03348141759897311,0.08889250221432474,0.0028580533466984847
0.1401207,0.0006163316032945482,0.018487306206616833,0.19777114459927578,0.013589286955147578,0.1132816809883849,0.03332505261909114,0.08811253008726913,0.002785879481737173
0.1405862,0.0005932907018663336,0.018485958067228515,0.19697754394212535,0.013704292768929921,0.11315648253224471,0.03316907468403888,0.08733763052682386,0.002713370281359844
0.1410517,0.0005708437577396154,0.018483242489376554,0.19617532657790224,0.013822977042848185,0.11302143035924538,0.03301351510586656,0.08656789572567797,0.0026405388088509146
0.1415172,0.000548986658990384,0.018479144180858675,0.19536459873254713,0.013945386850314401,0.11287655452809418,0.03285840515192146,0.08580341576974611,0.0025673984369165327
0.1419828,0.0005277152937869621,0.01847364797247597,0.19454546721993665,0.014071568948678715,0.11272188754087158,0.032703776037868504,0.0850442786259979,0.0024939628492172163
0.1424483,0.000507025553307726,0.01846673882632632,0.19371803942835045,0.014201569760788344,0.11255746432617772,0.032549658920620304,0.08429057013109939,0.002420246041817666
0.1429138,0.0004869133346162701,0.018458401844188715,0.19288242330715374,0.014335435356491134,0.11238332222130805,0.03239608489117878,0.08354237398086291,0.0023462623245521217
0.1433793,0.00046737454349312594,0.01844862227599606,0.19203872735369465,0.014473211434093455,0.1121995009534846,0.03224308496738993,0.08279977172050126,0.0022720263223036745
0.1438448,0.0004484050972232099,0.018437385528393982,0.19118706060041715,0.014614943301782195,0.11200604262017169,0.0320906900866136,0.08206284273568161,0.0021975529761959663
0.1443103,0.00043000092733824015,0.018424677173383107,0.1903275326021903,0.014760675859020567,0.11180299166850531,0.0319389310983104,0.08133166424437396,0.0021228575446957183
0.1447759,0.0004121579823134169,0.01841048295704214,0.18946025342385509,0.014910453577927441,0.11159039487386607,0.031787838756548004,0.08060631128948904,0.0020479556046245485
0.1452414,0.0003948722302177042,0.018394788808329062,0.18858533362799035,0.01506432048464976,0.11136830131762546,0.03163744371243005,0.07988685673229959,0.001972863052078544
0.1457069,0.00037813966131708426,0.018377580847957604,0.18770288426289988,0.015222320140737659,0.11113676236409488,0.03148777650645082,0.07917337124663912,0.0018975961032540653
0.1461724,0.00036195629063017994,0.018358845397346106,0.18681301685082227,0.015384495624531624,0.11089583163670698,0.03133886756077972,0.07846592331387155,0.001822171295178261
0.1466379,0.0003463181604356556,0.018338568987635806,0.1859158433763627,0.015550889512571102,0.11064556499345907,0.03119074717147947,0.07776457921862456,0.001746605486342781
0.1471034,0.0003312213427308157,0.018316738368775468,0.18501147627514553,0.015721543861033676,0.11038602050164846,0.031043445500662334,0.07706940304527933,0.0016709158572391612
0.147569,0.0003166619416408308,0.01829334051866926,0.1841000284226843,0.01589650018721393,0.11011725841193075,0.030896992568588574,0.07638045667520844,0.0015951199107943797
0.1480345,0.0003026360957780274,0.018268362652384722,0.1831816131234645,0.016075799451050875,0.10983934113173215,0.03075141824571158,0.07569779978475394,0.001519235472705092
0.1485,0.0002891399805506822,0.018241792231417704,0.18225634410023317,0.01625948203671276,0.10955233319804751,0.03060675224467443,0.07502148984393671,0.0014432806916690793
0.1489655,0.0002761698104207657,0.01821361697301098,0.18132433548348734,0.016447587734247888,0.10925630124965534,0.03046302411226333,0.0743515821158887,0.0013672740395124854
0.149431,0.00026372184111008595,0.01818382485952341,0.18038570180115238,0.016640155721310005,0.1089513139987811,0.030320263221323713,0.07368812965699892,0.0012912343112114386
0.1498966,0.00025179237175429367,0.018152404147846413,0.17944055796844005,0.016837224544966625,0.10863744220223921,0.03017849876264514,0.07303118331776438,0.0012151806248066877
0.1503621,0.00024037774700422045,0.018119343378864596,0.17848901927787597,0.017038832103598626,0.10831475863208327,0.030037759736821282,0.07238079174433662,0.001139132421209903
0.1508276,0.00022947435907403376,0.018084631386957543,0.17753120138948636,0.017245015628899314,0.10798333804579312,0.029898074946091188,0.07173700138075409,0.001063109463900325
0.1512931,0.00021907864973569945,0.018048257309539868,0.17656722032113642,0.017455811667980995,0.10764325715602682,0.02975947298616782,0.07109985647185063,0.0009871318385104844
0.1517586,0.00020918711225925192,0.01801021059663682,0.17559719243901403,0.0176712560655971,0.10729459459996425,0.029621982238059938,0.07046939906682939,0.00091121995229977
0.1522241,0.0001997962932983817,0.017970481020492722,0.1746212344482555,0.017891383946487722,0.10693743090826814,0.029485630859893038,0.0698456690234917,0.0008353945335146599
0.1526897,0.00019090279472087356,0.017929058685209585,0.17363946338371095,0.018116229697856343,0.10657184847368796,0.029350446778735093,0.06922870401310988,0.0007596766306344621
0.1531552,0.00018250327538345758,0.01788593403641311,0.1726519966008489,0.018345826951985403,0.1061979315193306,0.029216457682432737,0.06861853952593307,0.0006840876115014324
0.1536207,0.00017459445285066707,0.017841097870943196,0.1716589517667979,0.018580208568998238,0.10581576606662124,0.02908369101146324,0.06801520887731492,0.0006086491623341463
0.1540862,0.00016717310505732333,0.017794541346566002,0.17066044685152332,0.0188194066197748,0.10542543990297683,0.028952173950807486,0.06741874321445285,0.0005333832866230126
0.1545517,0.0001602360719142823,0.017746255991704634,0.16965660011913547,0.01906345236902837,0.10502704254921388,0.028821933421849046,0.06682917152372844,0.00045831230390683167
0.1550172,0.00015378025685708918,0.017696233715185465,0.16864753011932512,0.019312376258550343,0.10462066522671153,0.02869299607430407,0.06624652063863973,0.0003834588484293137
0.1554828,0.0001478026283371955,0.017644466815997132,0.16763335567892104,0.019566207890630145,0.1042064008243496,0.028565388278186776,0.06567081524831614,0.0003088458676744861
0.1559483,0.00014230022125540437,0.017590947993059384,0.16661419589356388,0.019824976011656992,0.10378434386524128,0.028439136115814972,0.06510207790660752,0.0002344966207799267
0.1564138,0.000137270138337226,0.01753567035499882,0.16559017011949023,0.0200887084959103,0.1033545904732786,0.02831426537386,0.06454032904173929,0.00016043467682677083
0.1568793,0.00013270955144984727,0.01747862742992867,0.16456139796541877,0.020357432329545254,0.10291723833950824,0.028190801535445367,0.06398558696652602,8.668391300545147e-05
0.1573448,0.00012861570286044842,0.017419813175229695,0.1635279992845299,0.020631173594780113,0.10247238668835464,0.02806876977229814,0.06343786788913679,1.3268512656151789e-05
0.1578103,0.00012498590643563893,0.017359221987329115,0.16249009416652993,0.020909957454291583,0.10202013624370672,0.027948194936957136,0.0628971859244062,-5.978703681701836e-05
0.1582759,0.0001218175487818344,0.017296848711474484,0.16144780292978844,0.02119380813582452,0.10156058919488314,0.02782910155504166,0.062363553105687,-0.00013245794615905564
0.1587414,0.00011910809032645012,0.01723268865149917,0.16040124611353734,0.021482748917022107,0.10109384916249087,0.02771151381758447,0.061836979397240505,-0.0002047191266051641
0.1592069,0.00011685506633983713,0.01716673757957619,0.15935054447011862,0.021776802110482506,0.10062002116419058,0.02759545557343258,0.061317472707161785,-0.00027654519235069554
0.1596724,0.000115056087897926,0.017098991745956835,0.15829581895726685,0.022075989049047718,0.10013921158038226,0.02748095032171947,0.06080503890083668,-0.0003479104631506197
0.1601379,0.00011370884278557115,0.017029447888690544,0.15723719073041234,0.02238033007133039,0.09965152811982281,0.02736802120441238,0.060299681814927446,-0.0004187889670491501
0.1606034,0.00011281109634061157,0.016958103243322288,0.15617478113498864,0.022689844507483937,0.09915707978518729,0.027256690998938526,0.05980140327188365,-0.0004891544432401036
0.161069,0.00011236069223869386,0.01688495555256363,0.15510871169872853,0.023004550665221325,0.09865597683858424,0.02714698211089417,0.05931020309497511,-0.0005589803450585247
0.1615345,0.00011235555321894486,0.01681000307593357,0.15403910412393032,0.02332446581608761,0.09814833076703507,0.02703891656684037,0.05882607912384298,-0.0006282398431040596
0.162,0.00011279368175063269,0.016733244599365156,0.15296608027967679,0.02364960618199115,0.09763425424792668,0.026932516007189263,0.05834902723056539,-0.0006969058284965077
0.1624655,0.00011367316064100676,0.016654679444773803,0.15188976219398811,0.0239799869219982,0.09711386111444544,0.02682780167918464,0.05787904133623368,-0.0007649509162639249
0.162931,0.00011499215358455012,0.016574307479583057,0.15081027204589043,0.02431562211939552,0.09658726632100018,0.02672479442998057,0.05741611342803507,-0.0008323474488636019
0.1633966,0.0001167489056539072,0.016492129126203507,0.14972773215738147,0.024656524769025443,0.09605458590864134,0.02662351469982178,0.05696023357683729,-0.0008990674998361822
0.1638621,0.00011894174373277006,0.016408145371460445,0.14864226498527425,0.025002706764897662,0.09551593697048251,0.026523982515329683,0.056511389955270726,-0.0009650828775931247
0.1643276,0.00012156907689102133,0.016322357775965794,0.14755399311289932,0.025354178888081842,0.09497143761713131,0.02642621748289806,0.05606956885630317,-0.0010303651293376449
0.1647931,0.00012462939670244852,0.016234768483429782,0.14646303924164564,0.02571095079488503,0.09442120694213618,0.026330238782202225,0.055634754712301816,-0.0010948855451192133
0.1652586,0.00012812127750536166,0.016145380229907778,0.1453695261823201,0.026073031005317555,0.09386536498745686,0.02623606515982578,0.05520693011457679,-0.001158615162021614
0.1657241,0.00013204337660646342,0.01605419635297768,0.14427357684630499,0.0264404268918511,0.09330403270896681,0.026143714923008887,0.05478607583340006,-0.0012215247684844931
0.1661897,0.00013639443442833697,0.015961220800843237,0.14317531423649354,0.026813144668472462,0.09273733194199688,0.02605320593352206,0.054372170838493376,-0.001283584908758238
0.1666552,0.0001411732746009307,0.015866458141358588,0.14207486143798242,0.027191189380036358,0.09216538536693017,0.025964555601669426,0.05396519231997837,-0.00134476588749195
0.1671207,0.00014637880399743199,0.015769913570969445,0.14097234160850064,0.027574564891920585,0.0915883164748589,0.025877780880425385,0.05356511570978203,-0.0014050377744541944
0.1675862,0.00015201001271493214,0.015671592923566357,0.13986787796855457,0.027963273879986993,0.09100624953331327,0.025792898259708468,0.0531719147034905,-0.0014643704093861593
0.1680517,0.0001580659740002949,0.015571502679245609,0.13876159379126823,0.028357317820851716,0.09041930955207327,0.025709923760796023,0.052785561282644236,-0.0015227334069868124
0.1685172,0.00016454584412164898,0.015469649972973518,0.13765361239189827,0.028756696982468324,0.08982762224907334,0.025628872930883135,0.052406025737467485,-0.001580096162029606
0.1689828,0.00017144886218593437,0.01536604260314994,0.1365440571170052,0.029161410415027785,0.08923131401640963,0.025549760837789114,0.05203327669002531,-0.001636427854610245
0.1694483,0.00017877434990294018,0.015260689040066892,0.13543305133326408,0.029571455942179338,0.08863051188645876,0.025472602064814658,0.05166728111780087,-0.0016916974555249969
0.1699138,0.00018652171129627726,0.015153598434258132,0.1343207184159017,0.029986830152576586,0.08802534349811666,0.02539741070575264,0.05130800437768609,-0.0017458737317789768
0.1703793,0.00019469043236173213,0.015044780624735517,0.1332071817367513,0.030407528391753338,0.087415937063166,0.02532420036005525,0.050955410230378737,-0.0017989252522237957
0.1708448,0.00020328008067345296,0.014934246147107868,0.13209256465191987,0.0308335447543339,0.08680242133278031,0.025252984128160127,0.050609460865178826,-0.0018508203933239313
0.1713103,0.00021229030493842565,0.014822006241577937,0.13097699048906597,0.03126487207658271,0.08618492556417283,0.02518377460697786,0.05027011692517749,-0.0019015273450511416
0.1717759,0.00022172083449971029,0.014708072860813043,0.12986058253428848,0.03170150192929842,0.08556357948739794,0.025116583885543123,0.049937337532831194,-0.0019510141169062176
0.1722414,0.00023157147878892585,0.014592458677684814,0.12874346401862705,0.032143424611057514,0.08493851327231312,0.025051423540831435,0.049611080315914366,-0.0019992485440673453
0.1727069,0.00024184212672849115,0.0144751770928734,0.12762575810417562,0.03259062914181267,0.08430985749570861,0.02498830463374353,0.04929130143384318,-0.0020461982936643224
0.1731724,0.00025253274608415347,0.01435624224233144,0.12650758786980998,0.0330431032568512,0.08367774310861172,0.02492723770525909,0.048977955604363445,-0.0020918308711778528
0.1736379,0.0002636433827683593,0.014235669004603017,0.12538907629653034,0.03350083340111876,0.08304230140377264,0.02486823277276136,0.04867099613059508,-0.0021361136269631197
0.1741034,0.0002751741600950411,0.014113473007992716,0.12427034625242028,0.03396380472391341,0.0824036639833383,0.024811299326534024,0.04837037492842559,-0.0021790137628968052
0.174569,0.00028712527798640814,0.013989670637579875,0.12315152047722283,0.034432001073955054,0.0817619627267213,0.02475644632643156,0.04807604255424481,-0.002220498339146707
0.1750345,0.0002994970121323388,0.01386427904207313,0.12203272156653454,0.03490540499483504,0.08111732975867093,0.02470368219872411,0.04778794823301288,-0.002260534281063066
0.1755,0.0003122897131029753,0.013737316140500217,0.12091407195561747,0.03538399772085044,0.08046989741755364,0.024653014833117718,0.0475060398866533,-0.002299088386190703
0.1759655,0.0003255038054151287,0.013608800628728088,0.11979569390282864,0.035867759173227466,0.07981979822385005,0.02460445157995058,0.047230264162762825,-0.002336127331401022
0.176431,0.000339139786553108,0.013478751985808335,0.11867770947266602,0.03635666795673805,0.07916716484887548,0.02455799924756591,0.046960566463629755,-0.002371617680142913
0.1768966,0.0003531982259445997,0.013347190480142972,0.11756024051843117,0.03685070135671365,0.07851213008373112,0.02451366409986171,0.04669689097555207,-0.002405525889811535
0.1773621,0.0003676797638922356,0.013214137175465586,0.11644340866450949,0.03734983533646013,0.07785482680849246,0.024471451854017594,0.04643918069844665,-0.0024378183192339214
0.1778276,0.00038258511046149885,0.013079613936632897,0.1153273352882712,0.037854044535077534,0.07719538796164226,0.024431367678398656,0.046187377475740504,-0.0024684612362702784
0.1782931,0.0003979150443256363,0.012943643435221766,0.11421214150159914,0.038363302265688494,0.07653394650975479,0.02439341619063621,0.04594142202453456,-0.002497420825529808
0.1787586,0.00041367041156825256,0.012806249154926716,0.11309794813205212,0.03887758051407899,0.07587063541743794,0.024357601455885027,0.04570125396603063,-0.0025246631961998124
0.1792241,0.00042985212444428077,0.012667455396753033,0.11198487570367559,0.03939684993775525,0.07520558761754013,0.02432392698525658,0.045466811856211625,-0.002550154389986788
0.1796897,0.0004464611601000333,0.012527287284000514,0.11087304441747335,0.03992107986542056,0.07453893598162836,0.0242923957344277,0.04523803321676492,-0.0025738603891681633
0.1801552,0.0004634985592530473,0.012385770767032959,0.10976257413155678,0.040450238296875725,0.07387081329074341,0.02426301010242401,0.045014854566238674,-0.0025957471247532956
0.1806207,0.00048096542483244844,0.012242932627828525,0.10865358434098826,0.04098429190334722,0.0732013522064383,0.02423577193057748,0.04479721145142058,-0.002615780484752291
0.1810862,0.0004988629205805669,0.012098800484306097,0.10754619415733631,0.0415232060282468,0.07253068524210507,0.024210682501657463,0.04458503847892825,-0.0026339263225511845
0.1815517,0.0005171922696165484,0.011953402794422741,0.10644052228795954,0.04206694468836663,0.0718589447345957,0.024187742539174367,0.04437826934700031,-0.0026501504653919684
0.1820172,0.0005359547529627081,0.011806768860037401,0.10533668701503669,0.04261547057551405,0.07118626281614218,0.02416695220685514,0.04417683687747669,-0.00266441872295593
0.1824828,0.000555151708034378,0.011658928830535932,0.10423480617435951,0.04316874505859015,0.0705127713865815,0.02414831110828969,0.0439806730479566,-0.0026766968960487037
0.1829483,0.000574784527093998,0.01150991370621265,0.10313499713390556,0.04372672818611639,0.06983860208589068,0.02413181828674719,0.043789709024122075,-0.0026869507853854143
0.1834138,0.0005948546556702022,0.011359755341403663,0.10203737677220755,0.04428937868921351,0.0691638862670372,0.02411747222516139,0.043603875192214925,-0.002695146200474232
0.1838793,0.0006153635909426533,0.011208486447367372,0.10094206145653567,0.04485665398503697,0.06848875496914991,0.024105270846284086,0.04342310119165424,-0.0027012489685966394
0.1843448,0.0006363128800933796,0.011056140594907567,0.0998491670209083,0.04542851018067335,0.06781333889101497,0.024095211513006226,0.04324731594778181,-0.0027052249438826383
0.1848103,0.0006577041186253794,0.010902752216734753,0.0987588087439466,0.046004902077501526,0.06713776836490158,0.02408729102884614,0.04307644770472266,-0.002707040016479128
0.1852759,0.0006795389486492714,0.010748356609561202,0.09767110132658709,0.04658578317602286,0.0664621733307218,0.02408150563860454,0.042910424058347836,-0.0027066601218096362
0.1857414,0.0007018190571387942,0.010592989935925319,0.09658615886966632,0.04717110568116417,0.06578668331052871,0.024077851029185887,0.04274917198932707,-0.002704051249923552
0.1862069,0.0007245461741559951,0.010436689225740963,0.09550409485139079,0.047760820508057196,0.06511142738335712,0.024076322330585747,0.04259261789625844,-0.0026991794549329957
0.1866724,0.0007477220710469769,0.010279492377567409,0.0944250221047054,0.04835487728829793,0.06443653416041062,0.02407691411704379,0.042440687628862515,-0.0026920108645354154
0.1871379,0.0007713485586091113,0.0101214381595958,0.09334905279457356,0.048953224376688864,0.06376213176059903,0.02407962040836195,0.042293306521228,-0.002682511689619972
0.1876034,0.0007954274852306574,0.009962566210348155,0.09227629839518242,0.04955580885846714,0.06308834778643001,0.024084434671387583,0.04215039942509626,-0.0026706482339557093
0.188069,0.00081996073500375,0.009802917039085077,0.09120686966708637,0.05016257655702132,0.06241530930025871,0.02409134982166122,0.0420118907431715,-0.002656386903959441
0.1885345,0.0008449502258117448,0.009642532025918533,0.09014087663430277,0.05077347204209934,0.06174314280089952,0.02410035822522846,0.04187770446244338,-0.002639694218541225
0.189,0.0008703979073919276,0.00948145342162608,0.08907842856137373,0.05138843863850984,0.061071974200604215,0.02411145170061544,0.04174776418750854,-0.0026205368190251968
0.1894655,0.0008963057593746037,0.009319724347162972,0.08801963393040768,0.052007418435319065,0.06040192880241075,0.02412462152096712,0.04162199317387733,-0.002598881479143467
0.189931,0.0009226757892995846,0.009157388792868617,0.08696460041811542,0.05263035229554522,0.05973313127786697,0.02413985841634745,0.04150031436125187,-0.0025746951151007368
0.1903966,0.0009495100306111023,0.008994491617363806,0.08591343487285459,0.05325717986635166,0.05906570564513308,0.024157152576200387,0.041382650406761874,-0.002547944795707188
0.1908621,0.000976810540632175,0.008831078546135174,0.08486624329169785,0.05388783958974001,0.058399775247466576,0.02417649365197055,0.041268923718144494,-0.002518597752577154
0.1913276,0.0010045793985194635,0.008667196169803548,0.0838231307975398,0.054522268713743625,0.057735462732092756,0.024197870759882414,0.041159056486855035,-0.0024866213903909896
0.1917931,0.001032818703199655,0.008502891942073033,0.0827842016162575,0.05516040330412182,0.05707289002946391,0.024221272483877017,0.04105297072109578,-0.0024519832972174837
0.1922586,0.0010615305712884107,0.008338214177358012,0.08174955905394067,0.0558021782565544,0.05641217833290953,0.02424668687870528,0.040950588278750845,-0.0024146512548940844
0.1927241,0.0010907171349929215,0.008173212048085564,0.08071930547420673,0.05644752730933594,0.05575344807867981,0.024274101473177215,0.04085183090021572,-0.002374593249462149
0.1931897,0.0011203805399991012,0.008007935581671049,0.0796935422756166,0.05709638305656874,0.055096818926384315,0.0243035032735664,0.0407566202411105,-0.0023317774816543637
0.1936552,0.001150522943344453,0.007842435657164934,0.07867236986920592,0.05774867696185303,0.054442409739827544,0.02433487876716907,0.04066487790486623,-0.002286172377431415
0.1941207,0.001181146511277639,0.0076767640015690895,0.07765588765614712,0.05840433937247284,0.0537903385682429,0.02436821392601732,0.04057652547517386,-0.0022377465985648727
0.1945862,0.001212253417105786,0.007510973185820983,0.0766441940055563,0.05906329953407549,0.0531407226279264,0.024403494210745974,0.04049148454828528,-0.0021864690532631364
0.1950517,0.0012438458390305563,0.007345116620444313,0.07563738623245894,0.0597254856058423,0.052493678284271185,0.024440704574612622,0.040409676765155764,-0.0021323089068371534
0.1955172,0.0012759259579740133,0.007179248550864745,0.07463556057592782,0.0603908246761478,0.0518493210342035,0.024479829467670616,0.040331023843416955,-0.002075235592402499
0.1959828,0.0013084959553953085,0.007013424052389428,0.0736388121774068,0.06105924277870451,0.051207765489020736,0.024520852841094544,0.04025544760916941,-0.0020152188216143044
0.1964483,0.0013415580110992167,0.006847699024849048,0.07264723505923351,0.061730664909189784,0.050569125357631604,0.024563758151657917,0.040182870028583444,-0.0019522285954314468
0.1969138,0.0013751143010375523,0.0066821301869013205,0.07166092210337496,0.0624050150423511,0.04993351343019804,0.024608528366362542,0.04011321323929671,-0.0018862352149063382
0.1973793,0.001409166995104499,0.006516775069994929,0.07067996503038987,0.06308221614958583,0.049301041562178516,0.024655145967219242,0.04004639958159676,-0.0018172092919965888
0.1978448,0.0014437182549268898,0.006351692011993107,0.0697044543786323,0.06376219021699109,0.048671820658771583,0.02470359295617971,0.03998235162937651,-0.001745121760394762
0.1983103,0.0014787702316504943,0.006186940150456242,0.0687344794837105,0.06444485826387948,0.048045960659758837,0.024753850860219424,0.0399209922208503,-0.0016699438863723918
0.1987759,0.001514325063723352,0.006022579415583028,0.06777012845821487,0.06513014036175557,0.04742357052474581,0.024805900736571525,0.039862244489018164,-0.0015916472796343878
0.1992414,0.0015503848746772075,0.005858670522809818,0.06681148817172879,0.06581795565374822,0.04680475821879937,0.024859723178111748,0.039806031891865795,-0.0015102039041799103
0.1997069,0.0015869517709080866,0.005695274965067963,0.06585864423113554,0.06650822237449312,0.04618963069847999,0.024915298318894163,0.03975227824228772,-0.0014255860891657693
0.2001724,0.0016240278394570565,0.005532455004699069,0.0649116809612344,0.06720085787045965,0.0455782938982668,0.024972605839837517,0.039700907737721766,-0.0013377665397683574
0.2006379,0.0016616151457921958,0.005370273665028154,0.06397068138567857,0.06789577862071551,0.0449708527173734,0.025031624974561652,0.03965184498948292,-0.001246718348040106
0.2011034,0.0016997157315928007,0.0052087947215948656,0.0630357272082478,0.06859290025812248,0.0443674110069523,0.025092334515373387,0.039605015051785035,-0.0011524150037564309
0.201569,0.0017383316125368523,0.00504808269304291,0.06210689879446763,0.06929213759095593,0.043768071557685445,0.02515471281940109,0.03956034345043936,-0.001054830405249109
0.2020345,0.0017774647760927503,0.004888202831667996,0.06118427515358741,0.0699934046249406,0.043172936087758344,0.025218737814876935,0.03951775621121912,-0.0009539388702219981
0.2025,0.0018171171793163277,0.004729221113624642,0.060267933920928315,0.07069661458569479,0.04258210523121482,0.025284387007565662,0.03947717988788019,-0.0008497151465449746
0.2029655,0.0018572907466541467,0.004571204228792318,0.059357951340612516,0.07140167994157481,0.04199567852668916,0.025351637487338704,0.03943854158982791,-0.000742134423021938
0.203431,0.0018979873677540816,0.004414219570301545,0.05845440224868396,0.07210851242691059,0.041413754406511995,0.025420465934892104,0.039401769009420266,-0.0006311723401286924
0.2038966,0.00193920889528418,0.004258335223720678,0.05755736005663097,0.07281702306562392,0.04083643018618634,0.02549084862860688,0.039366790448897675,-0.0005168050007164959
0.2043621,0.001980957142760796,0.0041036199559041624,0.05666689673532044,0.07352712219521992,0.04026380205422956,0.02556276145155035,0.03933353484692941,-0.0003990089806770384
0.2048276,0.0020232338823869735,0.00395014320350315,0.05578308279935277,0.07423871949114255,0.03969596506237721,0.02563617989861709,0.03930193180476676,-0.00027776133956458436
0.2052931,0.0020660408429020497,0.0037979750611393677,0.05490598729184653,0.07495172399148423,0.039133013116144366,0.025711079083808302,0.03927191161199282,-0.00015303963117098318
0.2057586,0.0021093797074434434,0.0036471862692432676,0.05403567776966097,0.07566604412203987,0.03857503896574026,0.025787433747648508,0.03924340527185898,-2.482191404921793e-05
0.2062241,0.002153252111421582,0.0034978482015575484,0.053172220289064556,0.07638158772169513,0.03802213419733168,0.025865218264738414,0.03921634452619781,0.00010691323801886873
0.2066897,0.0021976596404089,0.00335003285230726,0.05231567939185686,0.0770982620681383,0.03747438922465077,0.025944406651442785,0.039190661879901986,0.00024218672561507096
0.2071552,0.002242603828043842,0.003203812823037785,0.05146611809195109,0.07781597390388495,0.03693189328094234,0.026024972573712106,0.03916629062495911,0.00038101891334197963
0.2076207,0.0022880861539507765,0.003059261309122085,0.05062359786242373,0.0785346294626044,0.036394734411246216,0.02610688935503668,0.03914316486403186,0.0005234296195492882
0.2080862,0.0023341080416767303,0.002916452085938667,0.04978817862303784,0.07925413449573647,0.0358629994650096,0.02619012998453167,0.039121219533573615,0.000669438106133759
0.2085517,0.0023806708566458216,0.0027754594947217645,0.04895991872824587,0.07997439429938706,0.03533677408902487,0.026274667125151474,0.039100390426469844,0.0008190630684173811
0.2090172,0.002427775904132286,0.0026363584280852644,0.04813887495567745,0.08069531374148985,0.03481614272068818,0.026360473122031654,0.03908061421419603,0.0009723226251082709
0.2094828,0.002475424427252967,0.0024992243152219284,0.047325102495117385,0.0814167972892215,0.03430118858157437,0.026447520010956467,0.03906182846848324,0.0011292343083488799
0.2099483,0.002523617604980151,0.002364133106779518,0.046518654937978465,0.08213874903665647,0.03379199367132392,0.026535779526949924,0.039043971682482755,0.0012898150538561014
0.2104138,0.0025723565501756217,0.002231161259415491,0.045719584267273496,0.08286107273264748,0.033288638761837255,0.026625223112988237,0.039026983291421645,0.0014540811911578995
0.2108793,0.0026216423076468065,0.0021003857200320324,0.04492794084809034,0.08358367180891639,0.03279120339177194,0.02671582192883147,0.03901080369274173,0.0016220484339311105
0.2113448,0.002671475852225903,0.0019718839096932966,0.044143773418573506,0.08430644940834002,0.032299765861337724,0.026807546859972102,0.03899537426571457,0.001793731870445097
0.2118103,0.0027218580868728485,0.0018457337072268444,0.043367129081415434,0.08502930841341481,0.03181440322738462,0.02690036852669805,0.038980637390525416,0.0019691459541159506
0.2122759,0.002772789840803004,0.0017220134325114148,0.04259805329586007,0.08575215147488358,0.03133519129877871,0.026994257293267897,0.03896653646681887,0.0021483044941759556
0.2127414,0.002824271867640432,0.0016008018294533242,0.04183658987022123,0.08647488104050718,0.030862204632060165,0.027089183277195738,0.03895301593169877,0.0023312206464630213
0.2132069,0.0028763048435976168,0.0014821780486539758,0.041082780954917825,0.08719739938396401,0.030395516527378295,0.0271851163586433,0.038940021277174525,0.00251790690433479
0.2136724,0.002928889365682493,0.0013662216297711846,0.04033666703602776,0.08791960863385971,0.02993519902469788,0.027282026189916774,0.03892749906704608,0.0027083750897121104
0.2141379,0.0029820259499336228,0.0012530124835772591,0.039598286929361966,0.08864141080283,0.029481322900271462,0.027379882205065806,0.03891539695321924,0.002902636344256561
0.2146034,0.0030357150296843557,0.0011426308737170312,0.038867677775060006,0.0893627078167191,0.029033957663372297,0.027478653629581868,0.0389036636914429,0.0031007011206866824
0.215069,0.0030899569538568095,0.0010351573981692355,0.038144875032708025,0.09008340154381715,0.02859317155328285,0.027578309490193253,0.038892249156459724,0.003302579174237575
0.2155345,0.003144751985286488,0.0009306729704148123,0.03742991247697989,0.09080339382414014,0.028159031536533922,0.02767881862475402,0.03888110435656145,0.0035082795542684935
0.216,0.0032001002990783498,0.0008292588003158073,0.03672282219380199,0.09152258649873546,0.02773160330438952,0.027780149692224167,0.03887018144753987,0.0037178105960230597
0.2164655,0.0032560019809951377,0.000730996374708625,0.03602363457704194,0.09224088143899688,0.02731095127057251,0.027882271182738415,0.038859433746024366,0.003931179912546678
0.216931,0.0033124570258787713,0.000635967437715463,0.035332378325721184,0.09295818057597185,0.02689713856922591,0.027985151427761163,0.03884881574219641,0.004148394386765741
0.2173966,0.0033694653361055764,0.0005442539707778314,0.03464908044175141,0.09367438592964394,0.026490227053104623,0.028088758610325032,0.03883828311187163,0.004369460163733161
0.2178621,0.003427026720076124,0.0004559381724161457,0.03397376622819442,0.09438939963817294,0.026090277291992023,0.028193060775350387,0.03882779272793938,0.004594382643044776
0.2183276,0.003485140890740431,0.00037110243771947004,0.033306459288044876,0.09510312398707464,0.025697348571336053,0.02829802584004304,0.038817302671149856,0.004823166471431127
0.2187931,0.003543807464159261,0.00028982933756956157,0.032647181523535386,0.09581546143832251,0.025311498891099026,0.028403621604367348,0.03880677224023887,0.00505581553552914
0.2192586,0.003603025958102236,0.00021220159760344925,0.03199595313596296,0.09652631465935337,0.024932784964815498,0.028509815761591846,0.038796161961381075,0.005292332954838195
0.2197241,0.0036627957906834557,0.00013830207691884676,0.031352792626035936,0.09723558655195873,0.024561262218852613,0.028616575908904235,0.03878543359696329,0.0055327210748650785
0.2201897,0.003723116279035298,6.821374652675746e-05,0.03071771679474017,0.0979431802810431,0.024196984791867295,0.028723869558092634,0.03877455015367033,0.005776981460462281
0.2206552,0.003783986638021063,2.0196675556752827e-06,0.03009074074472306,0.09864899930323019,0.023840005534455005,0.028831664146289727,0.038763475889876955,0.0060251148893640675
0.2211207,0.0038454059789870734,-6.019703078816871e-05,0.029471877882193947,0.09935294739529715,0.023490376008984782,0.028939927046776205,0.038752176322339744,0.006277121345924777
0.2215862,0.003907373308554869,-0.00011835317350001932,0.02886113991933906,0.10005492868241683,0.023148146489615405,0.029048625579839726,0.03874061823218299,0.006533000015063731
0.2220517,0.003969887527454084,-0.0001723655622907303,0.028258536877248996,0.10075484766618721,0.022813365962487574,0.029157727023685503,0.03872876967017263,0.0067927492764211575
0.2225172,0.004032947429396595,-0.00022215099833123588,0.027664077089356608,0.10145260925242679,0.022486082126087176,0.029267198625394376,0.0387165999612721,0.007056366698729444
0.2229828,0.004096551699992527,-0.000267626305222732,0.027077767205382873,0.1021481187787146,0.022166341391774633,0.02937700761192415,0.0387040797084741,0.007323849034404057
0.2234483,0.004160698915708688,-0.0003087083521878758,0.02649961219578815,0.10284128204165337,0.021854188884475656,0.029487121201149914,0.038691180795902363,0.007595192214358374
0.2239138,0.00422538754287,-0.00034531407747823557,0.025929615356725916,0.10353200532383432,0.02154966844352881,0.029597506612939077,0.03867787639117821,0.00787039134304666
0.2243793,0.004290615936704493,-0.0003773605119931243,0.02536777831549596,0.10422019542048357,0.021252822623685316,0.029708131080256862,0.038664140947047586,0.008149440693739353
0.2248448,0.004356382340432374,-0.00040476480310483383,0.024814101036493657,0.10490575966577083,0.020963692696256572,0.02981896186029806,0.03864995020226575,0.008432333704034742
0.2253103,0.004422684884399711,-0.00042744423868514687,0.02426858182765179,0.10558860595876224,0.02068231865040496,0.029929966245640816,0.03863528118173851,0.008719062971611099
0.2257759,0.0044895215852572045,-0.0004453162713278394,0.023731217347371217,0.10626864278899982,0.020408739194573682,0.030041111575418306,0.038620112195920826,0.00900962025022327
0.2262414,0.004556890345184512,-0.0004582985427617028,0.023202002611936348,0.1069457792616911,0.02014299175805152,0.030152365246504113,0.038604422839475586,0.009303996445947675
0.2267069,0.004624788951160587,-0.0004663089084484139,0.02268093100341133,0.10761992512249183,0.019885112492668736,0.0302636947247072,0.03858819398919685,0.009602181613679638
0.2271724,0.004693215074280456,-0.0004692654623593734,0.022167994278012578,0.10829099078186528,0.019635136274620556,0.030375067555972506,0.038571407801203515,0.009904164953886945
0.2276379,0.0047621662691188504,-0.00046708656192542586,0.02166318257495303,0.10895888733900227,0.019393096706414824,0.030486451377583143,0.03855404770741088,0.010209934809623516
0.2281034,0.0048316399731411375,-0.0004596908531531739,0.021166484425753637,0.10962352660528647,0.01915902611894062,0.03059781392936052,0.03853609841128955,0.010519478663807027
0.228569,0.00490163350616191,-0.00044699729590141435,0.02067788676401702,0.11028482112729143,0.018932955573654948,0.030709123064858956,0.03851754588292277,0.010832783136764322
0.2290345,0.004972144069851645,-0.0004289251893110711,0.020197374935658416,0.11094268420929695,0.018714914864884725,0.03082034676255187,0.038498377353374566,0.011149833984048408
0.2295,0.005043168747291769,-0.0004053941973818718,0.019724932709588715,0.11159702993531344,0.018504932522241602,0.030931453137007216,0.0384785813083816,0.011470616094530803
0.2299655,0.005114704502578479,-0.00037632437468893557,0.019260542288844263,0.11224777319060408,0.01830303581314712,0.03104241045004994,0.03845814748138185,0.011795113488773
0.230431,0.0051867481804756185,-0.0003416361922323748,0.018804184322158052,0.11289482968269536,0.018109250745465846,0.03115318712190976,0.038437066845893104,0.012123309317680717
0.2308966,0.005259296506116903,-0.000301250563412971,0.01835583791596671,0.11353811596186611,0.017923602070244026,0.03126375174235235,0.03841533160725456,0.012455185861444524
0.2313621,0.005332346084757741,-0.0002550888701269402,0.017915480646847694,0.11417754944110621,0.017746113284551373,0.031374073081792124,0.03839293519374464,0.01279072452877045
0.2318276,0.0054058934015768735,-0.00020307298897275804,0.017483088574380915,0.1148130484155367,0.017576806634423413,0.031484120102384563,0.0383698722470883,0.013129905856403955
0.2322931,0.0054799348215280215,-0.00014512531756296889,0.017058636254428848,0.11544453208128402,0.01741570311790193,0.03159386196909607,0.03834613861236748,0.01347270950895069
0.2327586,0.005554466589241689,-8.1168800933855e-05,0.016642096752829218,0.11607192055380235,0.017262822488171025,0.031703268060748975,0.038321731327348875,0.01381911427899733
0.2332241,0.005629484828977282,-1.112695804577802e-05,0.016233441659494197,0.11669513488563894,0.017118183256786608,0.03181230798103925,0.03829664861124392,0.014169098087535716
0.2336897,0.005704985544625674,6.50760916330667e-05,0.0158326411029099,0.11731409708363853,0.01698180269699741,0.03192095156952414,0.03827088985291645,0.014522637984693358
0.2341552,0.005780964619762344,0.0001475156014668178,0.015439663765029967,0.11792873012558265,0.016853696847156,0.03202916891257692,0.03824445559855388,0.014879710150773322
0.2346207,0.0058574178177512185,0.00023626617092343725,0.015054476896556757,0.1185389579762602,0.01673388051421882,0.032136930354305704,0.038217347538817836,0.01524028989760637
0.2350862,0.005934340781899359,0.0003314017187849743,0.014677046332603758,0.11914470560296515,0.01662236727733442,0.03224420650743304,0.038189568495489976,0.015604351670218083
0.2355517,0.0060117290356626486,0.00043299545630410934,0.014307336508732579,0.11974589899041606,0.016519169491519315,0.032350968264133,0.03816112240762889,0.015971869048813626
0.2360172,0.006089577982902637,0.0005411198603145549,0.013945310477357795,0.12034246515509193,0.016424298291420954,0.032457186806822115,0.038132014317253896,0.016342814751082627
0.2364828,0.006167882908194748,0.0006558466463029981,0.013590929924512789,0.12093433215897782,0.016337763595167098,0.03256283361890043,0.038102250354571404,0.0167171606348266
0.2369483,0.006246638977188035,0.0007772467414504102,0.01324415518696966,0.1215214291227126,0.016259574108300943,0.03266788049543873,0.03807183772275947,0.017094877700911153
0.2374138,0.006325841237016719,0.0009053902576507216,0.012904945269706092,0.1221036862381318,0.01618973732780112,0.03277229955380787,0.0380407846823261,0.01747593609654517
0.2378793,0.0064054846167637255,0.0010403464645150466,0.012573257863711992,0.12268103478019722,0.016128259546185568,0.03287606324424621,0.0380091005350566,0.017860305118889024
0.2383448,0.006485563927976435,0.0011821837623698498,0.012249049364128599,0.12325340711830637,0.01607514585569834,0.03297914436036129,0.03797679560756498,0.018247953218993803
0.2388103,0.0065660738652348885,0.0013309696552576535,0.011932274888712653,0.1238207367269748,0.01603040015257813,0.033081516049561936,0.03794388123446451,0.018638848006073332
0.2392759,0.00664700900677261,0.0014867707239490902,0.011622888296618073,0.12438295819588666,0.015994025141407332,0.03318315182341678,0.037910369741172095,0.019032956252110746
0.2397414,0.006728363815150259,0.0016496525989752914,0.011320842207487533,0.1249400072393096,0.015966022339540344,0.03328402556793535,0.037876274426361004,0.019430243896801168
0.2402069,0.006810132637982241,0.0018196799336897497,0.011026088020846229,0.12549182070487244,0.01594639208160971,0.03338411155376746,0.03784160954407633,0.019830676052831876
0.2406724,0.006892309708716395,0.001996916377368901,0.01073857593579002,0.12603833658170518,0.01593513352410866,0.03348338444631644,0.03780639028552761,0.020234217011501274
0.2411379,0.0069748891474668345,0.0021814245483607313,0.010458254970960043,0.12657949400794247,0.01593224465004856,0.033581819315761645,0.0377706327605726,0.0206408302486778
0.2416034,0.007057864961899947,0.0023732660072907563,0.010185072984795839,0.12711523327759117,0.01593772227368981,0.033679391646985156,0.03773435397890661,0.021050478431099754
0.242069,0.007141231048173543,0.0025725012303347483,0.009918976696058901,0.1276454958467635,0.01595156204534489,0.03377607734939795,0.03769757183097143,0.021463123423016994
0.2425345,0.007224981191929047,0.0027791895825676287,0.00965991170461855,0.12817022433927608,0.015973758456252412,0.033871852766660236,0.03766030506859805,0.021878726293175232
0.243,0.007309109069336636,0.0029933892913979673,0.00940782251249189,0.1286893625516154,0.016004304843521337,0.03396669468629086,0.037622573285396754,0.022297247322143596
0.2434655,0.0073936082481931,0.0032151574200975737,0.009162652545129575,0.12920285545726942,0.016043193395144817,0.034060580349160555,0.03758439689690829,0.022718646009985972
0.243931,0.007478472189072238,0.00344454984143569,0.00892434417293898,0.12971064921042566,0.0160904151550833,0.03415348745886331,0.03754579712052925,0.023142881084276572
0.2443966,0.007563694246527507,0.0036816212114273083,0.00869283873303637,0.13021269114903544,0.01614596002841678,0.034245394190960385,0.03750679595522466,0.023569910508459906
0.2448621,0.007649267670346675,0.003926424943205128,0.008468076551219538,0.13070892979724516,0.016209816786566175,0.03433627920209088,0.03746741616104045,0.023999691490555274
0.2453276,0.007735185606858186,0.004179013181024708,0.008249996964152325,0.1311993148671953,0.016281973072583875,0.03442612163894299,0.03742768123842825,0.0244321804922058
0.2457931,0.00782144110028897,0.004439436774412332,0.008038538341752381,0.1316837972601896,0.016362415406513536,0.03451490114708001,0.03738761540739444,0.024867333238071825
0.2462586,0.007908027094173457,0.004707745252465147,0.00783363810977346,0.132162329067238,0.016451129190819293,0.0346025978796149,0.03734724358648552,0.0253051047255684
0.2467241,0.007994936432813573,0.004983986798313142,0.007635232772573481,0.1326348635689784,0.016548098715884488,0.03468919250572723,0.0373065913716214,0.02574544923494659
0.2471897,0.008082161862789523,0.005268208223752534,0.007443257936059542,0.13310135523498506,0.01665330716557999,0.03477466621901604,0.037265685014788406,0.02618832033971792
0.2476552,0.008169696034521202,0.0055604549440601515,0.0072576483308010005,0.13356175972247086,0.01676673662290219,0.03485900074568205,0.03722455140260398,0.026633670917421418
0.2481207,0.008257531503880127,0.005860770952998423,0.007078337835301684,0.1340160338743936,0.01688836807568068,0.03494217835253279,0.03718321803476496,0.027081453160732252
0.2485862,0.008345660733851814,0.006169198798020497,0.0069052594994222696,0.13446413571697535,0.01701818142235563,0.0350241818548039,0.0371417130023918,0.027531618588911084
0.2490517,0.008434076096248553,0.006485779555685055,0.006738345567943802,0.1349060244566457,0.017156155477824748,0.03510499462379014,0.03710006496628106,0.027984118059592854
0.2495172,0.008522769873472573,0.0068105528072903085,0.006577527504263335,0.13534166047641932,0.01730226797935975,0.035184600594279455,0.03705830313507835,0.028438901780913555
0.2499828,0.008611734260329615,0.0071435566147366545,0.006422736014212626,0.13577100533171865,0.01745649559259215,0.0352629842717839,0.037016457243384406,0.02889591932397347
0.2504483,0.008700961365892917,0.00748482749662739,0.006273901069990861,0.13619402174565362,0.017618813917568192,0.03534013073956135,0.03697455752980619,0.029355119635635054
0.2509138,0.008790443215417675,0.007834400404616885,0.006130951934202351,0.13661067360376955,0.017789197494872604,0.035416025665422575,0.03693263471496564,0.02981645105165347
0.2513793,0.008880171752305993,0.008192308700015586,0.005993817183990172,0.1370209259482744,0.01796761981182094,0.03549065530831875,0.036890719979478,0.030279861310137587
0.2518448,0.008970138840122327,0.00855858413066118,0.005862424735256809,0.13742474497175655,0.018154053308720157,0.035564006524704754,0.03684884494191182,0.030745297565339065
0.2523103,0.009060336264659479,0.008933256808065233,0.005736701866962868,0.13782209801040465,0.018348469385197123,0.03563606677467403,0.036807041636742394,0.031212706401766897
0.2527759,0.009150755736055104,0.009316355184844556,0.005616575245495045,0.1382129535367402,0.018550838406594727,0.03570682412786069,0.036765342492310234,0.03168203384862452
0.2532414,0.009241388890958704,0.00970790603244656,0.005501970949094598,0.13859728115187578,0.018761129710435073,0.03577626726910523,0.03672378030879592,0.032153225394566554
0.2537069,0.009332227294749038,0.010107934419177728,0.005392814492337673,0.1389750515773121,0.018979311612949287,0.03584438550388025,0.036682388236222545,0.03262622600277178
0.2541724,0.009423262443801796,0.010516463688544326,0.005289030850658892,0.13934623664628834,0.019205351415673297,0.035911168763473014,0.03664119975249654,0.03310098012632879
0.2546379,0.009514485767807342,0.01093351543791438,0.005190544484909744,0.13971080929470095,0.019439215412108992,0.035976607609921635,0.036600248641497315,0.03357743172393064
0.2551034,0.009605888632138274,0.011359109497509902,0.00509727936594341,0.14006874355160776,0.019680868894450258,0.0360406932407016,0.03655956897122612,0.03405552427587437
0.255569,0.009697462340266512,0.011793263909738266,0.005009158999217695,0.14042001452933386,0.019930276160373447,0.03610341749315932,0.03651919507202394,0.03453520080036108
0.2560345,0.009789198136229593,0.012235994908871584,0.004926106449407905,0.14076459841319738,0.020187400519891985,0.03616477284868907,0.036479161514868234,0.03501640387009202
0.2565,0.009881087207145861,0.012687316901082803,0.0048480443650215305,0.14110247245087332,0.020452204302274665,0.03622475243664958,0.03643950308975779,0.0354990756291558
0.2569655,0.009973120685778254,0.013147242444847211,0.004774895003006728,0.14143361494141515,0.02072464886302728,0.03628335003801624,0.036400254784194855,0.035983157810201526
0.257431,0.010065289653146377,0.013615782231717917,0.0047065802533466684,0.14175800522395313,0.02100469459093716,0.036340560088764864,0.03636145176177325,0.03646859175189244
0.2578966,0.010157585141186583,0.014092945067483745,0.004643021663631847,0.1420756236660892,0.021292300915180282,0.03639637768298253,0.036323129340881055,0.03695531841663448
0.2583621,0.010249998135459785,0.014578737853717936,0.00458414046360256,0.14238645165200817,0.021587426312490592,0.03645079857570135,0.036285322973526095,0.03744327840857371
0.2588276,0.010342519577906748,0.015073165569725896,0.004529857589653721,0.14269047157032508,0.021890028314391293,0.0365038191854505,0.03624806822429249,0.037932411991856645
0.2592931,0.010435140369650603,0.015576231254900205,0.0044800937092942476,0.14298766680168848,0.022200063514487795,0.036555436596522085,0.036211400749436004,0.03842265910914694
0.2597586,0.010527851373846348,0.016087935991491036,0.004434769245553238,0.14327802170616002,0.022517487575822216,0.03660564856094584,0.03617535627612619,0.038913959400392176
0.2602241,0.010620643418577021,0.016608278887800188,0.004393804401325115,0.1435615216103897,0.022842255238289443,0.03665445350016795,0.03613997058184283,0.03940625222183372
0.2606897,0.01071350729979622,0.01713725706180686,0.004357119183645922,0.1438381527946073,0.02317432032611503,0.036701850506428824,0.036105279473934264,0.0398994766652528
0.2611552,0.010806433784316576,0.017674865625233398,0.004324633427892958,0.14410790247944946,0.02351363575539538,0.03674783934383479,0.036071318769344864,0.0403935715774455
0.2616207,0.010899413612843741,0.018221097668059155,0.004296266821899928,0.14437075881264155,0.023860153541701023,0.03679242044911888,0.03603812427451903,0.04088847557991929
0.2620862,0.010992437503055333,0.018775944243490664,0.00427193892997986,0.14462671085555315,0.024213824807744064,0.0368355949320858,0.03600573176548894,0.0413841270888032
0.2625517,0.011085496152724252,0.019339394353396173,0.004251569216848105,0.14487574856964622,0.02457459979111122,0.03687736457573664,0.035974176968153276,0.041880464334963605
0.2630172,0.01117858024288572,0.01991143493421248,0.004235077071437866,0.14511786280283406,0.024942427852064235,0.03691773183606872,0.03594349553875398,0.042377425384317324
0.2634828,0.011271680441047344,0.020492050843331992,0.0042223818306008154,0.14535304527576848,0.02531725748140977,0.036956699841546016,0.03591372304455804,0.04287494815833333
0.2639483,0.01136478740444148,0.021081224845977742,0.004213402802685519,0.14558128856807231,0.025699036308441028,0.036994272392235995,0.03588489494475109,0.0433729704547142
0.2644138,0.011457891783319196,0.021678937602574014,0.00420805929098657,0.14580258610453295,0.026087711108953866,0.03703045395860864,0.03585704657154959,0.04387142996824839
0.2648793,0.011550984224285106,0.022285167656620156,0.004206270617057468,0.14601693214127168,0.02648322781334023,0.03706524967999371,0.035830213111538174,0.04437026431182407
0.2653448,0.011644055373672371,0.02289989142307518,0.004207956143880519,0.14622432175190367,0.026885531514762015,0.03709866536269266,0.035804429587238513,0.044869411037595335
0.2658103,0.011737095880957093,0.023523083177260665,0.004213035298887141,0.14642475081370143,0.027294566477408445,0.03713070747774185,0.035779730838915835,0.045368807658290974
0.2662759,0.01183009640221128,0.02415471504428948,0.00422142759682219,0.14661821599377567,0.027710276144840264,0.03716138315832433,0.035756151506629,0.04586839166865633
0.2667414,0.011923047603593522,0.024794756989027906,0.004233052662446093,0.1468047147352858,0.0281326031484241,0.037190700196828026,0.035733726012529804,0.046368100567017956
0.2672069,0.012015940164876395,0.02544317680659872,0.004247830253068792,0.1469842452436922,0.02856148931586047,0.037218667041548935,0.03571248854341679,0.046867871876960836
0.2676724,0.012108764783009537,0.02609994011343287,0.004265680280909691,0.14715680647306129,0.028996875679808742,0.037245292793038384,0.035692473033548826,0.04736764316910779
0.2681379,0.012201512175717305,0.02676501033887742,0.004286522835278031,0.14732239811243458,0.0294387024866124,0.03727058720009415,0.03567371314772317,0.047867352082990186
0.2686034,0.012294173085129841,0.0274383487173674,0.004310278204568292,0.14748102057227216,0.029886909205127703,0.03729456065539595,0.03565624226462273,0.04836693634899898
0.269069,0.012386738281446317,0.028119914281169098,0.00433686689806549,0.14763267497098131,0.03034143453565878,0.03731722419078636,0.03564009346043685,0.048866333810404505
0.2695345,0.012479198566629162,0.02880966385370254,0.0043662096675553775,0.14777736312154047,0.030802216419002028,0.037338589472198834,0.03562529949275972,0.04936548244543318
0.27,0.012571544778127977,0.02950755204345054,0.0043982275287347975,0.14791508751822907,0.03126919204560268,0.03735866879423481,0.035611892784770414,0.049864320389389025
0.2704655,0.012663767792631926,0.030213531238461693,0.004432841782417572,0.14804585132347287,0.03174229786482641,0.03737747507439276,0.03559990540969842,0.05036278595680735
0.270931,0.012755858529849283,0.03092755160145446,0.004469974035531468,0.14816965835481444,0.03222146959434871,0.037395021846952876,0.03558936907557826,0.0508608176636277
0.2713966,0.012847807956312813,0.03164956106552948,0.004509546221901868,0.148286513072018,0.03270664222966476,0.03741132325652228,0.03558031511029656,0.05135835424937292
0.2718621,0.012939607089209689,0.032379505330496855,0.004551480622817843,0.1483964205643173,0.033197750053722185,0.03742639405124692,0.03557277444693477,0.05185533469932082
0.2723276,0.013031247000234532,0.033117327859825255,0.00459569988737642,0.14849938653781555,0.03369472664667924,0.037440249575696714,0.03556677760941049,0.05235169826665468
0.2727931,0.013122718819464183,0.03386296987821935,0.004642127052600829,0.14859541730304832,0.03419750489579063,0.03745290576343114,0.03556235469842004,0.052847384494578785
0.2732586,0.013214013739252607,0.03461637036983223,0.004690685563328565,0.14868451976271965,0.034706017005423216,0.037464379129252344,0.035559535377684984,0.05334233323838476
0.2737241,0.013305123018144403,0.03537746607711924,0.004741299291865024,0.14876670139962372,0.0352201945072035,0.03747468676115294,0.03555834886050507,0.053836484687454195
0.2741897,0.013396037984805164,0.03614619150033969,0.004793892557398519,0.14884197026476312,0.035739968270298905,0.03748384631196545,0.03555882389662007,0.054329779387182704
0.2746552,0.013486750041966923,0.03692247889771274,0.004848390145172414,0.14891033496567518,0.03626526851183447,0.03749187599072035,0.03556098875938298,0.0548221582608104
0.2751207,0.013577250670386834,0.03770625828623382,0.004904717325410157,0.1489718046549762,0.03679602480744649,0.03749879455371963,0.035564871233246816,0.0553135626311436
0.2755862,0.013667531432817126,0.03849745744315784,0.004962799871988952,0.14902638901913248,0.03733216610197482,0.03750462129533281,0.03557049860156752,0.05580393424215241
0.2760517,0.013757583977984319,0.03929600190815557,0.005022564080857911,0.14907409826746718,0.037873620720295084,0.03750937603852228,0.03557789763472506,0.05629321528042944
0.2765172,0.013847400044575556,0.04010181498614929,0.005083936788196602,0.14911494312141055,0.038420316378292296,0.037513079125104924,0.035587094578565064,0.05678134839649521
0.2769828,0.013936971465229889,0.04091481775083412,0.005146845388309988,0.1491489348040017,0.03897218019397702,0.037515751405756914,0.03559811514316282,0.05726827672593608
0.2774483,0.014026290170532257,0.04173492904889109,0.00521121785125592,0.14917608502964902,0.039529138698745324,0.03751741422976876,0.03561098449191174,0.05775394391036064
0.2779138,0.01411534819300791,0.04256206550489803,0.005276982740201485,0.1491964059941552,0.04009111784878353,0.03751808943455741,0.03562572723093783,0.058238294118160484
0.2783793,0.014204137671114942,0.043396141526944515,0.005344069228504717,0.14920991036501308,0.04065804303661884,0.03751779933494239,0.03564236739884185,0.05872127206506119
0.2788448,0.014292650853232626,0.04423706931295665,0.005412407116518371,0.14921661127197738,0.041229839102817065,0.037516566712193,0.0356609284567705,0.05920282303444908
0.2793103,0.014380880101643073,0.04508475885773761,0.005481926848112754,0.14921652229791696,0.04180643034782863,0.03751441480285343,0.035681433278817655,0.05968289289745963
0.2797759,0.014468817896503738,0.045939117960729414,0.0055525595269148775,0.14920965746995174,0.04238774054398381,0.03751136728735311,0.03570390414275686,0.060161428132813506
0.2802414,0.014556456839808182,0.046800052234501344,0.005624236932261535,0.1491960312508781,0.0429736929476381,0.03750744827840921,0.03572836272110579,0.06063837584638661
0.2807069,0.014643789659332366,0.04766746511397015,0.005696891534864228,0.1491756585308852,0.043564210311468496,0.0375026823092284,0.03575483007252369,0.0611136837905013
0.2811724,0.014730809212563733,0.04854125786635658,0.005770456512184182,0.14914855461956447,0.04415921489692109,0.03749709432151445,0.03578332663354234,0.06158730038292606
0.2816379,0.014817508490610217,0.04942132960188272,0.0058448657635159435,0.14911473523821434,0.04475862848681038,0.03749070965328841,0.03581387221063155,0.06205917472557166
0.2821034,0.01490388062208627,0.05030757728521408,0.005920053924778313,0.14907421651244218,0.045362372398070394,0.03748355402652783,0.03584648597259957,0.06252925662287165
0.282569,0.014989918876972999,0.051199895747650166,0.005995956383011526,0.149027014965065,0.045970367494657424,0.037475653534631115,0.035881186443329036,0.06299749659983549
0.2830345,0.015075616670449555,0.05209817770006665,0.006072509290579702,0.14897314750931034,0.046582534200603785,0.03746703462971297,0.0359179914948488,0.06346384591976244
0.2835,0.015160967566692916,0.053002313746612253,0.0061496495790776505,0.148912631442319,0.047198792513221816,0.03745772410973687,0.03595691834074164,0.06392825660160471
0.2839655,0.01524596528264332,0.05391219239916277,0.006227314972941202,0.14884548443895107,0.047819062016456915,0.03744774910549024,0.03599798352988781,0.06439068143696879
0.284431,0.015330603691732681,0.05482770009253458,0.006305444002760271,0.148771724545896,0.04844326189438805,0.037437137067408366,0.03604120294054389,0.06485107400674432
0.2848966,0.015414876827573382,0.05574872120045956,0.006383976018294015,0.14869137017608722,0.04907131094487401,0.03742591575225351,0.036086591774756364,0.06530938869735087
0.2853621,0.01549877888760481,0.05667513805232288,0.006462851201187596,0.1486044401034216,0.04970312759334317,0.037414113209655736,0.03613416455310898,0.06576558071659343
0.2858276,0.015582304236695056,0.05760683095066467,0.006542010577390199,0.14851095345778412,0.05033862990672448,0.03740175776852264,0.0361839351098027,0.06621960610911927
0.2862931,0.01566544741069515,0.05854367818944624,0.00662139602927416,0.14841092972037834,0.05097773560751673,0.03738887802332479,0.03623591658806684,0.06667142177146916
0.2867586,0.015748203119943294,0.05948555607308105,0.006700950307455065,0.1483043887193649,0.051620362087993095,0.0373755028202639,0.036290121435899575,0.06712098546671764
0.2872241,0.01583056625271659,0.06043233893623033,0.006780617042312804,0.1481913506258083,0.05226642642453785,0.037361661243330756,0.036346561402135935,0.06756825583869747
0.2876897,0.01591253187862807,0.061383899164362835,0.006860340755213608,0.1480718359499324,0.05291584539211196,0.037347382600259584,0.036405247532840926,0.06801319242580531
0.2881552,0.015994095251966794,0.06234010721507807,0.006940066869433099,0.14794586553768463,0.05356853547884445,0.03733269640838607,0.03646619016802548,0.068455755674387
0.2886207,0.016075251814979194,0.06330083164019173,0.007019741720780532,0.14781346056760702,0.054224412900746616,0.0373176323804158,0.036529398938682636,0.06889590695170188
0.2890862,0.016155997201089733,0.06426593910858194,0.007099312567924399,0.14767464254801252,0.05488339361654563,0.03730222041011017,0.036594882764141155,0.06933360855846653
0.2895517,0.016236327238059116,0.0652352944297943,0.007178727602419682,0.14752943331446297,0.055545393342634454,0.03728649055789646,0.03666264984973359,0.06976882374097837
0.2900172,0.01631623795107818,0.06620876057840328,0.007257935958437009,0.14737785502754558,0.0562103275681344,0.03727047303640893,0.03673270768477572,0.07020151670281927
0.2904828,0.01639572556579556,0.06718619871912701,0.007336887722194047,0.14721993017094365,0.05687811157006692,0.03725419819596765,0.03680506304085385,0.07063165261613903
0.2909483,0.01647478651127715,0.06816746823269215,0.007415533941089451,0.14705568154979684,0.057548660428630785,0.037237696510001125,0.036879721970416245,0.07105919763251813
0.2914138,0.016553417422895195,0.06915242674244466,0.007493826632539784,0.14688513228934544,0.05822188904258073,0.03722099856041943,0.03695668980566477,0.07148411889340825
0.2918793,0.016631615145144916,0.07014093014170253,0.007571718792519768,0.1467083058338527,0.058897712144703504,0.03720413502294359,0.03703597115774237,0.07190638454014901
0.2923448,0.01670937673438651,0.07113283262184583,0.007649164403806252,0.14652522594579856,0.059576044317387104,0.03718713665239749,0.037117569916211825,0.07232596372355861
0.2928103,0.016786699461510353,0.07212798670113917,0.0077261184439262505,0.14633591670533638,0.06025680000827844,0.03717003426796836,0.03720148924882111,0.07274282661309585
0.2932759,0.016863580814523226,0.07312624325428131,0.007802536892809389,0.14614040251000432,0.06093989354602493,0.03715285873844192,0.037287731601550286,0.07315694440559037
0.2937414,0.01694001850105339,0.07412745154267687,0.007878376740145063,0.14593870807468262,0.061625239156095184,0.03713564096741845,0.037376298698935134,0.07356828933353743
0.2942069,0.017016010450772074,0.07513145924542432,0.0079535959924446,0.14573085843178668,0.062312750976674006,0.037118411878515827,0.037467191544662416,0.0739768346729531
0.2946724,0.017091554817728956,0.0761381124910142,0.008028153679808758,0.1455168789316868,0.06300234307462674,0.0371012024005658,0.03756041042243229,0.07438255475078515
0.2951379,0.017166649982599116,0.07714725588973129,0.008102009862400922,0.14529679524334532,0.06369392946152796,0.03708404345280946,0.037655954897083274,0.07478542495187462
0.2956034,0.017241294554838717,0.07815873256675408,0.008175125636626453,0.14507063335516215,0.06438742410974903,0.03706696593009784,0.037753823815975404,0.07518542172546283
0.296069,0.017315487374746686,0.07917238419594404,0.008247463141018737,0.14483841957602087,0.06508274096859878,0.03705000068810353,0.03785401531062752,0.07558252259123849
0.2965345,0.017389227515429578,0.08018805103431681,0.0083189855618325,0.14460018053652768,0.06577979398051173,0.03703317852854919,0.03795652679860449,0.07597670614492015
0.297,0.017462514284666917,0.08120557195718754,0.00838965713834504,0.1443559431904368,0.06647849709727767,0.03701653018445898,0.038061354985650206,0.0763679520633696
0.2974655,0.01753534722667441,0.08222478449398143,0.00845944316786597,0.14410573481625497,0.06717876429630733,0.037000086305438995,0.03816849586806213,0.07675624110923221
0.297931,0.017607726123762595,0.0832455248647013,0.008528310010456138,0.1438495830190182,0.06788050959692864,0.03698387744299278,0.03827794473530311,0.07714155513510045
0.2983966,0.01767965099788858,0.08426762801704339,0.008596225093356436,0.14358751573223336,0.06858364707670858,0.036967934035878176,0.03838969617284604,0.07752387708719705
0.2988621,0.017751122112098693,0.08529092766415299,0.008663156915127203,0.14331956121997685,0.06928809088779524,0.036952286395511555,0.038503744065247224,0.07790319100857379
0.2993276,0.017822139971859777,0.08631525632301067,0.008729075049498946,0.14304574807914264,0.06999375527327478,0.03693696469142564,0.038620081599443974,0.07827948204182231
0.2997931,0.0178927053262768,0.08734044535344028,0.008793950148935125,0.1427661052418307,0.07070055458353784,0.03692199893678695,0.03873870126827178,0.07865273643129313
0.3002586,0.01796281916919449,0.08836632499772912,0.008857753947907717,0.14248066197786746,0.07140840329264958,0.03690741897397882,0.03885959487419634,0.07902294152481969
0.3007241,0.018032482740180603,0.08939272442084961,0.008920459265886253,0.14218944789744845,0.07211721601471748,0.036893254460255945,0.038982753533255504,0.07939008577494484
0.3011897,0.018101697525388462,0.09041947175127182,0.00898204001004099,0.14189249295389447,0.07282690752025131,0.03687953485347635,0.03910816767920604,0.07975415873964803
0.3016552,0.018170465258296332,0.09144639412235568,0.009042471177660901,0.14158982744651374,0.07353739275250919,0.036866289397916606,0.03923582706786965,0.08011515108257208
0.3021207,0.01823878792032123,0.09247331771431042,0.009101728858287084,0.14128148202356294,0.07424858684382374,0.036853547110176466,0.03936572078167279,0.08047305457274931
0.3025862,0.018306667741304777,0.09350006779670982,0.009159790235562225,0.14096748768530204,0.07496040513190229,0.03684133676517902,0.03949783723437438,0.0808278620838278
0.3030517,0.018374107199868955,0.09452646877155062,0.009216633588796682,0.14064787578713803,0.07567276317609464,0.03682968688227227,0.039632164175975745,0.08117956759280022
0.3035172,0.018441109023639612,0.09555234421684165,0.009272238294251695,0.1403226780428537,0.07638557677362162,0.036818625711438124,0.03976868869780716,0.08152816617823841
0.3039828,0.018507676189335933,0.09657751693071086,0.009326584826140212,0.13999192652791784,0.07709876197575719,0.036808181219614294,0.0399073972377859,0.0818736540180389
0.3044483,0.01857381192272411,0.09760180897601695,0.009379654757345738,0.13965565368287258,0.07781223510395667,0.036798381077134505,0.040048275585840856,0.08221602838668424
0.3049138,0.018639519698433474,0.09862504172545195,0.009431430759859673,0.13931389231679395,0.07852591276592272,0.036789252644292135,0.040191308889499504,0.08255528765202622
0.3053793,0.018704803239633385,0.09964703590712069,0.009481896604937598,0.13896667561082066,0.07923971187160038,0.036780822958032165,0.04033648165963352,0.08289143127159568
0.3058448,0.018769666517569287,0.10066761165058233,0.00953103716297502,0.13861403712174622,0.07995354964909242,0.036773118718776275,0.040483777776359905,0.08322445978844456
0.3063103,0.018834113750956276,0.10168658853333824,0.00957883840310328,0.13825601078566907,0.0806673436604856,0.03676616627738556,0.040633180495094845,0.08355437482652446
0.3067759,0.018898149405229,0.10270378562775065,0.0096252873925065,0.13789263092169557,0.08138101181757837,0.03675999162226548,0.04078467245275796,0.08388117908560608
0.3072414,0.018961778191646895,0.10371902154837509,0.009670372295460588,0.13752393223569143,0.08209447239750042,0.036754620366617315,0.04093823567412457,0.08420487633574368
0.3077069,0.019025005066254267,0.10473211449969012,0.009714082372095522,0.1371499498240764,0.08280764405821456,0.036750077735840485,0.041093851578323834,0.08452547141128838
0.3081724,0.019087835228695,0.10574288232420613,0.009756407976882236,0.13677071917765682,0.08352044585389161,0.03674638855509009,0.04125150098548037,0.08484297020445408
0.3086379,0.01915027412088214,0.10675114255093546,0.009797340556845521,0.136386276185489,0.08423279725014977,0.03674357723699416,0.04141116412349707,0.08515737965844031
0.3091034,0.019212327425522764,0.10775671244420515,0.009836872649504313,0.1359966571387674,0.08494461813915023,0.03674166776953494,0.04157282063497638,0.08546870776011639
0.309569,0.019274001064498926,0.10875940905279298,0.0098749978805409,0.13560189873472792,0.08565582885454133,0.03674068370409866,0.04173644958427727,0.08577696353227178
0.3100345,0.019335301197105432,0.10975904925936779,0.009911710961200589,0.13520203808055847,0.08636635018624363,0.03674064814369812,0.041902029464704775,0.08608215702543712
0.3105,0.019396234218145483,0.11075544983021506,0.009947007685423547,0.134797112697307,0.08707610339506751,0.036741583731372464,0.042069538205828774,0.08638429930928077
0.3109655,0.01945680675588531,0.11174842746522926,0.009980884926710665,0.13438716052377708,0.08778501022715486,0.03674351263876814,0.04223895318092844,0.08668340246358464
0.311431,0.019517025669869018,0.11273779884815532,0.010013340634725401,0.13397221992040131,0.08849299292823612,0.036746456554905035,0.04241025121455859,0.0869794795688034
0.3118966,0.019576898048594926,0.1137233806970622,0.010044373831633636,0.13355232967308103,0.08919997425769285,0.03675043667513155,0.04258340859023407,0.08727254469621035
0.3123621,0.01963643120705459,0.11470498981503234,0.010073984608183647,0.1331275289969809,0.08990587750241599,0.03675547369027232,0.04275840105822829,0.08756261289763276
0.3128276,0.019695632684135742,0.11568244314105162,0.010102174119528289,0.13269785754026592,0.09061062649044925,0.03676158777597184,0.04293520384348166,0.0878497001947797
0.3132931,0.019754510239890204,0.11665555780108465,0.010128944580791456,0.13226335538776748,0.09131414560440701,0.03676879858223741,0.043113791653615986,0.08813382356816504
0.3137586,0.019813071852668,0.11762415115931979,0.010154299262380935,0.13182406306456482,0.09201635979465529,0.036777125223184756,0.0432941386870501,0.08841500094562882
0.3142241,0.0198713257161186,0.11858804086956842,0.010178242485049666,0.1313800215394669,0.0927171945922446,0.03678658626698947,0.04347621864121223,0.0886932511904597
0.3146897,0.01992928023606049,0.11954704492680258,0.010200779614707466,0.13093127222838152,0.09341657612158254,0.03679719972604756,0.04366000472084457,0.08896859408912208
0.3151552,0.01998694402721996,0.12050098171881521,0.010221917056985231,0.13047785699755735,0.09411443111283418,0.03680898304734834,0.04384546964639556,0.08924105033859085
0.3156207,0.020044325909840174,0.1214496700779875,0.01024166225155359,0.1300198181666872,0.09481068691403914,0.036821953103062924,0.044032585662495696,0.08951064153329752
0.3160862,0.020101434906161498,0.12239292933314855,0.010260023666197882,0.1295571985118617,0.09550527150293375,0.036836126181351826,0.044221324546512494,0.08977739015169113
0.3165517,0.020158280236774097,0.12333057936151276,0.010277010790651311,0.12909004126836374,0.09619811349846871,0.03685151797739523,0.044411657617181084,0.0900413195424181
0.3170172,0.02021487131684405,0.12426244064068051,0.010292634130188081,0.1286183901332948,0.09688914217201228,0.036868143584649606,0.04460355574330691,0.09030245391012487
0.3174828,0.02027121775221436,0.12518833430068776,0.010306905198978162,0.12814228926802493,0.09757828745822983,0.03688601748633446,0.04479698935253726,0.09056081830088701
0.3179483,0.020327329335382668,0.12610808217608943,0.010319836513205425,0.12766178330045863,0.0982654799656304,0.03690515354715265,0.04499192844019897,0.09081643858726823
0.3184138,0.020383216041357635,0.12702150685806035,0.010331441583950716,0.127176917327109,0.0989506509867706,0.03692556500524792,0.045188342578199904,0.09106934145301154
0.3188793,0.02043888802339658,0.12792843174649685,0.010341734909841513,0.1266877369149743,0.0996337325081064,0.036947264464402586,0.04538620092399244,0.09131955437736462
0.3193448,0.020494355608627127,0.12882868110210108,0.010350731969469798,0.12619428810321265,0.10031465721948342,0.03697026388647852,0.045585472229597516,0.09156710561904113
