Time,Rectus Femoris right,Rectus Femoris left,Hamstrings right,Hamstrings left,TibilaisÂ Anterior right,TibilaisÂ Anterior left,Gastrocnemius right,Gastrocnemius left
0.0,-0.0009013157496845052,0.001972689985481939,0.0014611996482360933,-0.0016748111540992976,-0.01790274847032493,-0.014788211595286874,0.003904906440129602,0.012450548833402342
0.0004655,-0.0008754038273276013,0.0020309929229957637,0.001493538429143642,-0.0014496116465262752,-0.01760957753800304,-0.014074728597111542,0.003957248512567587,0.01258673468650184
0.000931,-0.0008495418683289063,0.0020893366030554587,0.0015258635453918783,-0.0012247415671847504,-0.017316785351664532,-0.01336182214150085,0.004009948978605063,0.01272243938926185
0.0013966,-0.0008237322916744935,0.002147713557257113,0.001558169436789305,-0.00100023069328095,-0.01702440290759969,-0.012649586205373924,0.004063005305355501,0.012857640087235427
0.0018621,-0.0007979774748641012,0.002206116303789503,0.0015904505269532202,-0.0007761087143297685,-0.016732460952525254,-0.011938114617778358,0.004116414922924473,0.012992314009769216
0.0023276,-0.0007722797526749029,0.002264537349624726,0.0016227012250927082,-0.0005524052231681207,-0.0164409899731111,-0.011227501031484642,0.004170175225390605,0.013126438477814412
0.0027931,-0.0007466414159397333,0.002322969192714373,0.0016549159278119768,-0.0003291497070186131,-0.0161500201856602,-0.010517838894708186,0.004224283571796491,0.013259990911721822
0.0032586,-0.0007210647103405959,0.0023814043241899346,0.0016870890209334166,-0.00010637153860868173,-0.015859581525949056,-0.009809221422979011,0.00427873728714852,0.013392948839015399
0.0037241,-0.0006955518352182556,0.002439835230566179,0.00171921488133976,0.00011590003264969149,-0.015569703639235447,-0.009101741571178656,0.004333533663424635,0.013525289902138582
0.0041897,-0.0006701049423987007,0.0024982543959462264,0.0017512878788347225,0.00033763588941459197,-0.01528041587043975,-0.0083954920057633,0.004388669960588982,0.01365699186616781
0.0046552,-0.000644726135037234,0.002556654304227065,0.0017833023780215106,0.0005588070550980416,-0.014991747254505897,-0.0076905650771914,0.004444143407612422,0.013788032626487538
0.0051207,-0.0006194174664809427,0.002615027441304246,0.0018152527401985932,0.0007793847024740645,-0.01470372650694756,-0.006987052792573388,0.004499951203497868,0.013918390216421186
0.0055862,-0.0005941809391502767,0.002673366297274511,0.0018471333252721342,0.0009993401622059145,-0.014416382014585019,-0.006285046788559942,0.0045560905183093595,0.014048042814812377
0.0060517,-0.0005690185034404571,0.002731663368635113,0.001878938493684498,0.0012186449312874589,-0.014129741826477912,-0.005584638304484222,0.004612558494203803,0.014176968753550873
0.0065172,-0.0005439320566434146,0.002789911160478592,0.001910662608358229,0.001437270681393754,-0.013843833645058983,-0.0048859181557723294,0.004669352246464285,0.014305146525037608
0.0069828,-0.0005189234418909375,0.002848102188681756,0.0019423000366549266,0.001655189267135893,-0.013558684817473679,-0.004188976707635199,0.004726468864533886,0.014432554789583194
0.0074483,-0.0004939944471196777,0.002906228982087627,0.001973845152348417,0.0018723727342152652,-0.013274322327130187,-0.0034939038490542145,0.004783905413048913,0.014559172382734204
0.0079138,-0.0004691468040586317,0.002964284084679096,0.0020052923376116367,0.002088793327472456,-0.012990772785464297,-0.002800788967072137,0.004841658932870486,0.01468497832252169
0.0083793,-0.00044438218723967575,0.0030222600577430145,0.0020366359850166227,0.0023044234988261673,-0.012708062423922898,-0.0021097209214003087,0.004899726442113396,0.014809951816626359
0.0088448,-0.00041970221303170685,0.003080149482023479,0.0020678704995470095,0.0025192359150976885,-0.012426217086169592,-0.0014207880193524704,0.004958104937171194,0.014934072269454935
0.0093103,-0.0003951084386989107,0.003137944959863099,0.0020989903006224235,0.002733203465716639,-0.012145262220515367,-0.0007340779911149244,0.0050167913937364216,0.015057319289122429
0.0097759,-0.0003706023614836594,0.0031956391173310855,0.0021299898241341707,0.002946299270303838,-0.011865222872576875,-4.967796536221595e-05,0.00507578276781497,0.015179672694335185
0.0102414,-0.0003461854177145285,0.003253224606337089,0.0021608635244916175,0.0031584966861272767,-0.011586123678164521,0.0006323255547729553,0.005135075996733558,0.015301112521170055
0.0107069,-0.0003218589819399085,0.0033106941067297907,0.0021916058766786317,0.0033697693154272445,-0.011307988856402305,0.0013118467153673766,0.0051946680001393845,0.015421619029745282
0.0111724,-0.0002976243660876731,0.0033680403283793798,0.0022222113783194604,0.0035800910126067057,-0.011030842203081113,0.001988800335004859,0.005254555680991016,0.015541172710779117
0.0116379,-0.00027348281865134655,0.003425256013243118,0.002252674551753399,0.003789435891283125,-0.0107547070842469,0.0026631019276966423,0.005314735926539593,0.01565975429203236
0.0121034,-0.00024943552390319177,0.0034823339374132844,0.002282989946117584,0.0039977783311980555,-0.010479606430025087,0.00333466772541824,0.0053752056092994695,0.015777344744631192
0.012569,-0.0002254836011346189,0.003539266913146856,0.002313152139437232,0.0042050929849810105,-0.010205562728682257,0.0040034147002568155,0.0054359615880074244,0.015893925289266773
0.0130345,-0.0002016281039242952,0.003596047790876315,0.002343155740722635,0.004411354784764374,-0.009932598020926086,0.004669260586163571,0.005497000708569625,0.016009477402268366
0.0135,-0.00017787001943432514,0.0036526694612010004,0.0023729953920721986,0.004616538948646437,-0.009660733894444287,0.005332123900305911,0.005558319804995569,0.016123982821546957
0.0139655,-0.0001542102677348577,0.003709124856858444,0.0024026657707807973,0.00482062098699994,-0.009389991478683208,0.005991923964014323,0.005619915700318301,0.01623742355240678
0.014431,-0.00013064970115746595,0.0037654069546751248,0.0024321615914527175,0.00502357670862386,-0.009120391439866626,0.006648580923319086,0.005681785207500164,0.016349781873222325
0.0148966,-0.00010718910367763288,0.0038215087774960796,0.00246147760811844,0.0052253822267365035,-0.008851953976255142,0.007302015769072042,0.0057439251303234625,0.01646104034097854
0.0153621,-8.382919032666182e-05,0.0038774233960927845,0.002490608616354509,0.005426013964808273,-0.008584698813646492,0.007952150356648808,0.0058063322642654385,0.016571181796672014
0.0158276,-6.057060663331439e-05,0.003933143931048723,0.0025195494554057225,0.005625448662232735,-0.008318645201117005,0.008598907425226978,0.005869003397357023,0.01668018937057085
0.0162931,-3.741392809546378e-05,0.003988663554622067,0.0025482950103088552,0.005823663379834857,-0.008053811907004323,0.009242210616636024,0.005931935311024932,0.01678804648733104
0.0167586,-1.4359659682040897e-05,0.0040439754925848765,0.0025768402140171356,0.006020635505215429,-0.0077902172151314555,0.009881984493774752,0.005995124780916713,0.016894736870967146
0.0172241,8.591764634459988e-06,0.00409907302603827,0.0026051800495246577,0.006216342757930806,-0.007527878921272083,0.010518154558592488,0.0060585685777083615,0.01700024454967505
0.0176897,3.143998231466063e-05,0.004153949493202993,0.0026333095519899233,0.0064107631945071394,-0.007266814329857043,0.01115064726963048,0.006122263467894105,0.01710455386050482
0.0181552,5.418470265792508e-05,0.004208598291184828,0.002661223810857672,0.006603875213288335,-0.007007040250921733,0.011779390059120418,0.006186206214557985,0.017207649453881684
0.0186207,7.682570717671809e-05,0.004263012877714272,0.002688917971978167,0.006795657559116957,-0.006748572997294182,0.012404311349637367,0.006250393578126757,0.017309516297973282
0.0190862,9.936284993950729e-05,0.004317186772859879,0.0027163872397230654,0.006986089327847258,-0.006491428382023393,0.013025340570304801,0.006314822317103653,0.017410139682901688
0.0195517,0.0001217960578820461,0.004371113560714671,0.0027436268790970277,0.007175149970689565,-0.006235621716047497,0.013642408172549728,0.0063794891887824405,0.017509505224798588
0.0200172,0.00014412533108689522,0.004424786891054963,0.002770632217844207,0.007362819298385198,-0.005981167806101115,0.014255445645406446,0.00644439094994124,0.017607598869702385
0.0204828,0.00016635074303105664,0.004478200480970991,0.0027973986485487585,0.007549077485211239,-0.005728080952861269,0.014864385530368004,0.006509524357515462,0.017704406897296153
0.0209483,0.00018847244080161019,0.00453134811646871,0.0028239216307285164,0.007733905072814545,-0.005476374949331003,0.015469161435784985,0.006574886169249277,0.017799915924485845
0.0214138,0.0002104906452792627,0.004584223654042173,0.0028501966929209647,0.007917282973874734,-0.005226063079459697,0.01606970805081157,0.006640473144324959,0.017894112908818722
0.0218793,0.00023240565128974347,0.004636821022215902,0.002876219434760619,0.008099192475596081,-0.004977158116998938,0.01666596115889907,0.0067062820439695164,0.017986985151742626
0.0223448,0.0002542178277230053,0.004689134223056672,0.0029019855290469097,0.00827961524302866,-0.004729672324592623,0.017257857650837243,0.006772309632038004,0.018078520301707153
0.0228103,0.00027592761762021097,0.004741157333654138,0.002927490723801637,0.008458533322219314,-0.004483617453099828,0.017845335537343653,0.006838552675572981,0.01816870635710806
0.0232759,0.0002975355382285038,0.00479288450756974,0.002952730844315069,0.008635929143193362,-0.00423900474114888,0.018428333961201544,0.00690500794533954,0.018257531669076454
0.0237414,0.0003190421810235762,0.004844309976253375,0.002977701795179698,0.008811785522768192,-0.003995844914920902,0.019006793208946608,0.006971672216335465,0.018344984944114292
0.0242069,0.0003404482117000693,0.004895428050427348,0.0030023995623106917,0.008986085667200102,-0.0037541481881610277,0.019580654722103207,0.007038542268276092,0.018431055246577878
0.0246724,0.0003617543701298576,0.004946233121437142,0.0030268202149520357,0.009158813174665947,-0.003513924262415312,0.02014986110797051,0.007105614886053586,0.018515732001011004
0.0251379,0.00038296147028829623,0.004996719662568592,0.0030509599076673564,0.009329952037581338,-0.003275182327491256,0.02071435614995922,0.007172886860170372,0.018599004994329406
0.0256034,0.00040407040014852843,0.0050468822303310415,0.0030748148823143855,0.009499486644757325,-0.0030379310621397697,0.021274084817479513,0.007240354987146462,0.01868086437785829
0.026069,0.0004250821215439691,0.005096715465706047,0.003098381470002026,0.009667401783397688,-0.002802178634956303,0.021828993275380952,0.007308016069900392,0.018761300669224754
0.0265345,0.00044599766999910205,0.005146214095361178,0.0031216560930289365,0.009833682640939092,-0.002567932705498801,0.022379028892945182,0.007375866918103446,0.01884030475410692
0.027,0.00046681815452874394,0.005195372932828425,0.0031446352668025334,0.009998314806736472,-0.002335200425620071,0.02292414025243227,0.007443904348506767,0.018917867887841635
0.0274655,0.0004875447574059502,0.005244186879646704,0.003167315601737304,0.010161284273596015,-0.002103988441012083,0.023464277157181534,0.007512125185240972,0.018993981696892343
0.027931,0.0005081787338987576,0.005292650926467926,0.003189693805131321,0.010322577439158155,-0.0018743028929596782,0.023999390639267648,0.007580526260087718,0.019068638180178805
0.0283966,0.0005287214119759744,0.005340760154126115,0.003211766683019832,0.010482181107132936,-0.0016461494203010834,0.0245294329667128,0.007649104412722733,0.019141829710270026
0.0288621,0.0005491741919822421,0.005388509734669049,0.003233531142004832,0.01064008248839008,-0.0014195331615925806,0.025054357650255932,0.007717856490929728,0.0192135490344417
0.0293276,0.000569538546282597,0.005435894932351949,0.0032549841910595283,0.01079626920190612,-0.0011944587574746304,0.02557411944968012,0.0077867793507846025,0.01928378927559931
0.0297931,0.0005898160188767596,0.005482911104592756,0.0032761229433066422,0.010950729275570892,-0.0009709303532366866,0.0260886743796994,0.00785586985680943,0.019352543933067862
0.0302586,0.0006100082249833807,0.005529553702888604,0.0032969446177694983,0.011103451146855734,-0.0007489516015778948,0.026597979715406506,0.00792512488209577,0.019419806883249142
0.0307241,0.0006301168505944746,0.005575818273693095,0.0033174465410948993,0.011254423663345522,-0.0005285256655608194,0.027101993997283212,0.007994541308397001,0.01948557238014722
0.0311897,0.0006501436520002687,0.005621700459254039,0.0033376261492467957,0.01140363608313675,-0.0003096552217552902,0.027600677035775203,0.008064116026189486,0.019549835055762854
0.0316552,0.0006700904552847062,0.005667195998411305,0.0033574809891697933,0.011551078075103742,-9.234246356939282e-05,0.028093989915433798,0.008133845934702484,0.01961258992035743
0.0321207,0.0006899591557918529,0.005712300727354473,0.0033770087204215487,0.011696739719034968,0.0001234108952354392,0.028581894998627337,0.00820372794191682,0.01967383236258704
0.0325862,0.0007097517175634689,0.005757010580339953,0.0033962071167730986,0.011840611505641382,0.00033760361684834287,0.029064355928825468,0.008273758964532432,0.019733558149507373
0.0330517,0.0007294701727480278,0.005801321590367233,0.00341507406777618,0.011982684336438638,0.0005502349355351288,0.02954133763345979,0.008343935927905204,0.019791763426450004
0.0335172,0.0007491166209814728,0.005845229889813911,0.003433607580296596,0.012122949523505,0.0007613045535897868,0.030012806326364282,0.008414255765953631,0.019848444716770726
0.0339828,0.0007686932287400065,0.005888731711029159,0.003451805780012698,0.01226139878911681,0.0009708126371146402,0.03047872950979891,0.00848471542103613,0.019903598921470485
0.0344483,0.0007882022286652081,0.0059318233868852505,0.003469666912878076,0.012398024265263433,0.0011787598116324131,0.030939075976059504,0.008555311843799943,0.019957223318689515
0.0349138,0.0008076459188617737,0.005974501351286824,0.0034871893465475623,0.0125328184930437,0.0013851471575334932,0.03139381580867705,0.00862604199300261,0.020009315563075204
0.0353793,0.0008270266621681704,0.006016762139637571,0.0035043715717656874,0.012665774421945957,0.0015899762053616935,0.03184292038320936,0.008696902835307024,0.020059873685024134
0.0358448,0.0008463468854004887,0.00605860238926412,0.0035212122037166947,0.012796885409013836,0.0017932489309418576,0.03228636236762822,0.008767891345051043,0.020108896089798718
0.0363103,0.0008656090785697794,0.0061000188397969685,0.0035377099833352374,0.012926145217899906,0.0019949677503527034,0.03272411572230506,0.008839004503992602,0.0201563815565188
0.0367759,0.0008848157940731605,0.006141008333508338,0.00355386377857687,0.01305354801780931,0.00219513551474836,0.03315615569959839,0.008910239301031254,0.02020232923702841
0.0372414,0.000903969645858991,0.006181567815606884,0.0035696725856474497,0.01317908838233554,0.0023937555050321173,0.03358245884304616,0.008981592731906995,0.020246738654637914
0.0377069,0.000923073308566409,0.006221694334489254,0.0035851355301905895,0.013302761288190577,0.002590831426385967,0.03400300298616625,0.009053061798877212,0.020289609702741757
0.0381724,0.0009421295166395445,0.006261385041948458,0.0036002518684323135,0.01342456211383165,0.002786367402659544,0.0344177672508682,0.009124643510372486,0.02033094264331183
0.0386379,0.0009611410634167197,0.006300637193339079,0.003615020988282075,0.013544486637986984,0.0029803679706221216,0.03482673204547945,0.009196334880631978,0.020370738105266756
0.0391034,0.0009801108001949495,0.006339448147699362,0.003629442410389332,0.013662531038082949,0.0031728380740813173,0.03522987906238987,0.00926813292931903,0.02040899708271761
0.039569,0.0009990416352700507,0.006377815367830247,0.0036435157891548807,0.013778691888575034,0.0033637830578721766,0.03562719127531865,0.009340034681117609,0.020445720933090758
0.0400345,0.0010179365329526643,0.006415736420331386,0.0036572409136961725,0.013892966159185073,0.0035532086617203035,0.03601865293620852,0.00941203716531013,0.020480911375129012
0.0405,0.0010367985125604945,0.006453208975594218,0.0036706177087658474,0.014005351213047069,0.0037411210139827117,0.03640424957175199,0.009484137415337188,0.020514570486772396
0.0409655,0.00105563064738706,0.006490230807752097,0.0036836462356227345,0.014115844804763881,0.003927526625270138,0.036783967979555084,0.009556332468339744,0.020546700702920025
0.041431,0.0010744360636472583,0.006526799794587495,0.0036963266928545743,0.014224445078376976,0.0041124323819546225,0.037157796223943475,0.00962861936468426,0.02057730481307481
0.0418966,0.0010932179394000374,0.006562913917396271,0.003708659417151718,0.01433115056525142,0.004295845539566258,0.03752572363141645,0.009700995147471324,0.020606385958872764
0.0423621,0.0011119795034484803,0.006598571260809007,0.003720644884031058,0.014435960181878111,0.004477773716083137,0.03788774078575385,0.009773456862028306,0.02063394763149907
0.0428276,0.0011307240342176,0.006633770012569483,0.0037322837085094294,0.014538873227595209,0.004658224885118579,0.03824383952278122,0.009846001555386598,0.020659993668993265
0.0432931,0.0011494548586101485,0.006668508463270318,0.0037435766457257448,0.014639889382230665,0.004837207369009788,0.03859401292479862,0.009918626275744132,0.020684528253446063
0.0437586,0.0011681753508407426,0.0067027850060458445,0.003754524591511128,0.014739008703667586,0.005014729831812076,0.03893825531467789,0.009991328071913896,0.02070755590809045
0.0442241,0.0011868889312485985,0.006736598136222271,0.0037651285829063356,0.014836231625334147,0.005190801272202785,0.03927656224963365,0.01006410399275927,0.02072908149428955
0.0446897,0.0012055990650891785,0.006769946450925169,0.003775389798625794,0.014931558953619655,0.005365431016299016,0.039608930514672354,0.010136951086617082,0.020749110208423835
0.0451552,0.0012243092613050488,0.006802828648644397,0.003785309559467611,0.015024991865218251,0.005538628710393248,0.03993535811572432,0.010209866400709243,0.02076764757868005
0.0456207,0.0012430230712762575,0.006835243528756617,0.0037948893286689988,0.015116531904401743,0.005710404313610907,0.040255844272463086,0.010282846980543848,0.02078469946174434
0.0460862,0.0012617440875505436,0.006867189991005695,0.003804130712206565,0.015206180980222866,0.005880768090493927,0.04057038941081665,0.010355889869306568,0.020800272039401865
0.0465517,0.0012804759425536817,0.006898667034941403,0.0038130354590409812,0.01529394136365021,0.006049730603514328,0.040878995155175374,0.010428992107243174,0.020814371815045172
0.0470172,0.0012992223072802792,0.006929673759316947,0.003821605461305573,0.015379815684635988,0.006217302705521783,0.041181664320301306,0.010502150731034039,0.02082700561009354
0.0474828,0.0013179868899653587,0.006960209361445966,0.0038298427544384587,0.015463806929117713,0.0063834955321291674,0.04147840090294399,0.010575362773161552,0.020838180560325333
0.0479483,0.0013367734347370717,0.006990273136519723,0.003837749517257937,0.015545918435954839,0.006548320494040011,0.04176921007316777,0.010648625261271461,0.020847904112125417
0.0484138,0.0013555857202509135,0.007019864476885266,0.0038453280719809857,0.01562615389380132,0.00671178926932179,0.04205409816539582,0.010721935217529207,0.02085618401864969
0.0488793,0.0013744275583058166,0.007048982871285379,0.0038525808841849162,0.015704517337915006,0.006873913795628892,0.04233307266917608,0.01079528965797234,0.020863028335908765
0.0493448,0.001393302792442504,0.007077627904061133,0.0038595105627124158,0.015781013146904676,0.007034706262379107,0.04260614221967447,0.010868685591860114,0.02086844541877295
0.0498103,0.001412215296524478,0.0071057992543178804,0.003866119859520379,0.015855646039415524,0.007194179102887394,0.04287331658790065,0.010942120021021321,0.02087244391690052
0.0502759,0.0014311689733020147,0.007133496695055465,0.003872411669473073,0.01592842107075377,0.007352344986460683,0.04313460667067148,0.011015589939201355,0.02087503277059133
0.0507414,0.0014501677529595329,0.007160720092263464,0.0038783890300802598,0.01599934362945109,0.007509216810457422,0.04339002448031734,0.011089092331409527,0.020876221206567666
0.0512069,0.0014692155916467024,0.007187469403982261,0.0038840551211809463,0.016068419433769524,0.007664807692315525,0.04363958313413633,0.01116262417326758,0.020876018733684262
0.0516724,0.0014883164699936687,0.007213744679330782,0.003889413264573491,0.01613565452814737,0.007819130961552396,0.04388329684360121,0.011236182430360366,0.020874435138569267
0.0521379,0.0015074743916107848,0.0072395460575017554,0.0038944669235927917,0.016201055279586707,0.007972200151740615,0.044121180903323766,0.011309764057589673,0.020871480481198107
0.0526034,0.0015266933815732504,0.007264873766725414,0.0038992197026353247,0.016264628373982997,0.008124028992462923,0.04435325167978138,0.011383365998532206,0.02086716509040218
0.053069,0.0015459774848910676,0.007289728123202528,0.0039036753466328233,0.016326380812397203,0.008274631401250083,0.044579526599810515,0.011456985184802745,0.02086149955931436
0.0535345,0.0015653307649647415,0.007314109530007686,0.003907837740475364,0.016386319907270748,0.008424021475505257,0.04480002413887174,0.011530618535423573,0.020854494740753404
0.054,0.0015847573020271672,0.007338018475963703,0.003911710908384657,0.016444453278583654,0.008572213484418471,0.04501476380909087,0.011604262956201249,0.020846161742549264
0.0544655,0.0016042611915721397,0.0073614555344880634,0.00391529901323834,0.016500788849955966,0.008719221860874747,0.04522376614708076,0.011677915339111817,0.02083651192281158
0.054931,0.0016238465427699338,0.0073844213624123045,0.003918606355846073,0.016555334844692716,0.008865061193359435,0.04542705270154806,0.011751572561695544,0.020825556885143714
0.0553966,0.0016435174768703947,0.007406916698775307,0.003921637374178234,0.0166080997817725,0.00900974621786425,0.04562464602068916,0.011825231486462265,0.020813308473805015
0.0558621,0.0016632781255939777,0.0074289423635915276,0.003924396642548049,0.016659092471779623,0.009153291809797494,0.04581656963937996,0.011898888960308353,0.02079977876882396
0.0563276,0.0016831326295111805,0.007450499256595289,0.003926888870748001,0.01670832201277996,0.009295712975901895,0.04600284806616371,0.011972541813946299,0.020784980081065003
0.0567931,0.0017030851364108325,0.007471588355962331,0.0039291189031414,0.01675579778614039,0.009437024846183528,0.04618350677004158,0.012046186861347827,0.020768924947251778
0.0572586,0.0017231397996577233,0.00749221071700986,0.0039310917177099655,0.016801529452291842,0.009577242665855289,0.04635857216707069,0.012119820899201479,0.020751626124949425
0.0577241,0.001743300776540075,0.007512367470876402,0.003932812425058317,0.016845526946435804,0.009716381787298426,0.04652807160677482,0.01219344070638546,0.02073309658750858
0.0581897,0.0017635722266073795,0.0075320598231827865,0.003934286267376178,0.016887800474194328,0.00985445766204561,0.046692033358372756,0.012267043043456695,0.020713349518973544
0.0586552,0.0017839583099991468,0.007551289052675612,0.003935518617359144,0.01692836050720329,0.009991485832789049,0.0468504865968295,0.012340624652156875,0.020692398308957013
0.0591207,0.0018044631857651212,0.007570056509854572,0.003936514977088769,0.016967217778648805,0.010127481925417067,0.04700346138873561,0.012414182254936412,0.020670256547483796
0.0595862,0.001825091010177546,0.0075883636155849934,0.003937280976872775,0.017004383278746472,0.010262461641082509,0.047150988678019895,0.012487712554497096,0.020646938019805695
0.0600517,0.0018458459350360686,0.007606211859696949,0.003937822374046098,0.017039868250163105,0.010396440748306302,0.047293100271501125,0.01256121223335429,0.020622456701189784
0.0605172,0.0018667321059658796,0.0076236027995722575,0.003938145051733516,0.017073684183380542,0.010529435075119376,0.047429828824284676,0.012634677953419356,0.020596826751682187
0.0609828,0.0018877536607096784,0.0076405380587206894,0.003938255017574577,0.017105842812001084,0.010661460501246105,0.047561207825010374,0.01270810635560304,0.020570062510849495
0.0614483,0.0019089147274140602,0.0076570193253466135,0.003938158402411513,0.01713635610799415,0.010792532950332319,0.04768727158095794,0.012781494059440426,0.020542178492499803
0.0619138,0.0019302194229109063,0.007673048350907306,0.003937861458940833,0.017165236276883822,0.010922668382220871,0.04780805520301669,0.01285483766273799,0.020513189379385344
0.0623793,0.0019516718509943489,0.007688626948664069,0.003937370560329306,0.017192495752877048,0.011051882785277684,0.047923594590525934,0.01292813374124325,0.02048311001788855
0.0628448,0.001973276100693878,0.007703756992227291,0.0039366921987950155,0.017218147193932387,0.011180192168771082,0.04803392641599261,0.013001378848337367,0.020451955412693325
0.0633103,0.0019950362445441514,0.007718440414096521,0.003935832984154231,0.017242203476769337,0.011307612555307208,0.0481390881096925,0.013074569514750991,0.020419740721443147
0.0637759,0.0020169563368520695,0.007732679204196589,0.003934799642334812,0.01726467769181842,0.011434159973324264,0.04823911784416145,0.013147702248303535,0.020386481249387616
0.0642414,0.0020390404119616868,0.007746475408410741,0.003933599013856877,0.017285583138112334,0.011559850449648282,0.048334054518582775,0.013220773533665946,0.020352192444018747
0.0647069,0.0020612924825175478,0.007759831127111722,0.003932238052281481,0.017304933318118557,0.011684700002113083,0.048423937743076684,0.013293779832147024,0.020316889889698295
0.0651724,0.0020837165377270614,0.007772748513691667,0.003930723822628024,0.017322741932513996,0.011808724632247015,0.048508807822897314,0.013366717581503158,0.020280589302277184
0.0656379,0.00210631654162254,0.007785229773091628,0.003929063499761119,0.017339022874902195,0.011931940318028992,0.04858870574254306,0.013439583195771357,0.020243306523707913
0.0661034,0.0021290964313235533,0.007797277160331511,0.003927264366747594,0.01735379022647394,0.012054363006716346,0.048663673149785674,0.013512373065125306,0.020205057516650752
0.066569,0.0021520601153002584,0.0078088929790411515,0.003925333813184337,0.017367058250612234,0.012176008607746864,0.048733752339623695,0.013585083555754258,0.020165858359074404
0.0670345,0.0021752114716383783,0.00782007957999326,0.0039232793334975985,0.017378841387443014,0.012296892985717386,0.048798986238165434,0.01365771100976454,0.02012572523885187
0.0675,0.002198554346306529,0.007830839359638896,0.003921108525214407,0.01738915424833345,0.012417031953441285,0.04885941838644661,0.013730251745103556,0.020084674448352113
0.0679655,0.002222092551426601,0.007841174758646107,0.003918829087206704,0.01739801161033986,0.012536441265087054,0.04891509292418759,0.013802702055506252,0.020042722379028165
0.068431,0.002245829863547931,0.007851088260442361,0.003916448817908834,0.017405428410607625,0.012655136609400207,0.04896605457349474,0.013875058210463979,0.019999885516002288
0.0688966,0.002269770021926007,0.007860582389761327,0.0039139756135089954,0.01741141974072554,0.01277313360301064,0.04901234862251005,0.013947316455215698,0.01995618043264873
0.0693621,0.0022939167268064735,0.00786965971119458,0.003911417466115296,0.017416000841037088,0.012890447783827568,0.049054020909013,0.01401947301076154,0.019911623785174574
0.0698276,0.002318273637715214,0.007878322827748724,0.003908782461897011,0.017419187094911043,0.013007094604524028,0.04909111780397836,0.014091524073898567,0.019866232307199146
0.0702931,0.002342844371755306,0.007886574379408403,0.003906078779201664,0.017420994022973958,0.013123089426112967,0.04912368619509347,0.014163465817278738,0.0198200228043324
0.0707586,0.0023676325019116383,0.00789441704170562,0.003903314686648508,0.01742143727730709,0.013238447511616706,0.049151773470238865,0.014235294389489044,0.019773012148752635
0.0712241,0.0023926415553639792,0.007901853524295763,0.003900498541198948,0.017420532635610542,0.013353184019831614,0.04917542750093585,0.014307005915153798,0.019725217273783933
0.0716897,0.0024178750118092817,0.00790888656954065,0.0038976387862044424,0.01741829599533755,0.013467313999189644,0.049194696625764936,0.014378596495059062,0.019676655168473632
0.0721552,0.0024433363017939877,0.00791551895109892,0.0038947439494323786,0.017414743367801883,0.013580852381718331,0.04920962963375954,0.014450062206299333,0.019627342872170092
0.0726207,0.0024690288050570903,0.00792175347252404,0.003891822641070407,0.017409890872261788,0.013693813977100787,0.049220275747780276,0.014521399102446672,0.019577297469101064
0.0730862,0.0024949558488847035,0.007927592965870155,0.003888883551709683,0.01740375472998378,0.013806213466837145,0.04922668460787572,0.014592603213742743,0.01952653608295296
0.0735517,0.002521120706476885,0.00793304029030601,0.0038859354503074602,0.01739635125828996,0.01391806539850886,0.049228906254636544,0.014663670547314364,0.019475075871451548
0.0740172,0.002547526595327467,0.00793809833073712,0.0038829871821294427,0.017387696864592635,0.01402938418014714,0.049226991112550106,0.014734597087413327,0.01942293402094482
0.0744828,0.0025741766756176647,0.0079427699964363,0.0038800476666723052,0.017377808040420124,0.014140184074706767,0.04922098997336278,0.01480537879568137,0.019370127740989215
0.0749483,0.0026010740486242393,0.007947058219682702,0.003877125895566794,0.01736670135543784,0.014250479194646446,0.04921095397945768,0.014876011611441125,0.019316674258940413
0.0754138,0.002628221755142996,0.00795096595440933,0.0038742309304618246,0.017354393451468657,0.014360283496616768,0.04919693460725536,0.014946491452013934,0.019262590814550423
0.0758793,0.0026556227739283978,0.007954496174859075,0.0038713719008900164,0.017340901036516605,0.014469610776256843,0.04917898365064453,0.015016814213065598,0.01920789465457285
0.0763448,0.0026832800201500775,0.007957651874249225,0.003868558002115119,0.017326240878797878,0.014578474663100584,0.04915715320445003,0.015086975768981152,0.019152603027378652
0.0768103,0.002711196343867017,0.007960436063444402,0.0038657984929618117,0.017310429800783105,0.014686888615593563,0.04913149564794493,0.015156971973269928,0.019096733177584906
0.0772759,0.0027393745285201427,0.007962851769637872,0.003863102693628381,0.017293484673254658,0.014794865916221261,0.04910206362841352,0.01522679865900221,0.019040302340699315
0.0777414,0.0027678172894440795,0.007964902035041117,0.0038604799834828017,0.01727542240938294,0.014902419666749548,0.049068910044771874,0.01529645163927883,0.01898332773778319
0.0782069,0.002796527272398775,0.007966589915581575,0.0038579397988427627,0.01725625995882538,0.015009562783578054,0.04903208803125267,0.01536592670773505,0.018925826570135643
0.0786724,0.002825507052121718,0.007967918479608429,0.003855491630740166,0.017236014301851912,0.015116307993207035,0.04899165094116059,0.015435219639079956,0.018867816014001615
0.0791379,0.002854759130901433,0.007968890806606356,0.003853145022670627,0.01721470244350056,0.015222667827818247,0.048947652330704534,0.015504326189672592,0.018809313215306326
0.0796034,0.0028842859371729273,0.007969509985917188,0.0038509095683284572,0.017192341407766768,0.015328654620970281,0.04890014594291235,0.015573242098135858,0.018750335284418728
0.080069,0.0029140898241357465,0.007969779115469455,0.003848794909327626,0.017168948231829927,0.015434280503408783,0.04884918569163368,0.01564196308600916,0.01869089929094639
0.0805345,0.0029441730683952973,0.007969701300515874,0.003846810732909127,0.017144539960320455,0.015539557398991922,0.04879482564563594,0.01571048485844072,0.018631022258564386
0.081,0.0029745378686280815,0.007969279652378857,0.003844966769635163,0.01711913363963069,0.015644497020731417,0.048737120012798875,0.015778803104920344,0.018570721159880756
0.0814655,0.0030051863442714967,0.007968517287204225,0.0038432727910705363,0.01709274631227282,0.015749110866949384,0.048676123124412246,0.015846913500053322,0.018510012911341106
0.081931,0.0030361205342388656,0.007967417324723284,0.0038417386074516115,0.01706539501128703,0.01585341021755123,0.04861188941958171,0.01591481170437622,0.018448914368174828
0.0823966,0.003067342395660349,0.007965982887023501,0.0038403740653431707,0.017037096754702937,0.015957406130414867,0.04854447342974757,0.015982493365215088,0.018387442319385397
0.0828621,0.0030988538026503684,0.007964217097328025,0.003839189045283515,0.01700786854005746,0.01606110943789657,0.04847392976332105,0.016049954117586574,0.018325613482787072
0.0833276,0.003130656545102181,0.00796212307878426,0.0038381934594181473,0.016977727338972157,0.016164530743453767,0.048400313090442695,0.01611718958514239,0.018263444500090147
0.0837931,0.003162752327510215,0.007959703953261775,0.0038373972491224087,0.01694669009179313,0.016267680418385132,0.04832367812786738,0.016184195381157337,0.018200951932036854
0.0842586,0.003195142767820782,0.007956962840159855,0.00383681038261343,0.01691477370229649,0.016370568598688247,0.04824407962397994,0.01625096710956113,0.018138152253589786
0.0847241,0.0032278293963117406,0.00795390285522505,0.003836442852551786,0.016881995032462425,0.016473205182035235,0.048161572343945226,0.016317500366014075,0.018075061849174685
0.0851897,0.0032608136545017076,0.007950527109379204,0.00383630467363322,0.016848370897320754,0.016575599824866574,0.04807621105499605,0.016383790739026707,0.018011697007979315
0.0856552,0.003294096894089382,0.007946838707558511,0.0038364058801707937,0.016813918059870887,0.016677761939603342,0.04798805051186198,0.016449833811123218,0.017948073919310026
0.0861207,0.0033276803759235414,0.007942840747564225,0.0038367565236678033,0.01677865322607895,0.016779700691978063,0.04789714544234171,0.016515625160048585,0.017884208668007523
0.0865862,0.0033615652690042615,0.007938536318925804,0.0038373666703818035,0.016742593039954703,0.01688142499848415,0.04780355053302146,0.01658116036001915,0.01782011722992315
0.0870517,0.003395752649515897,0.007933928501777243,0.003838246398880064,0.016705754078710822,0.01698294352394387,0.04770732041514161,0.016646434983016316,0.017755815467456987
0.0875172,0.0034302434998923275,0.007929020365747485,0.00383940579758677,0.016668152848007052,0.017084264679194713,0.047608509650613376,0.01671144460012283,0.017691319125158825
0.0879828,0.003465038707914969,0.007923814968865798,0.003840854962322278,0.016629805777281504,0.01718539661889383,0.047507172718187565,0.016776184782901184,0.017626643825393074
0.0884483,0.0035001390658440192,0.007918315356483066,0.0038426039938347285,0.016590729215171372,0.017286347239440426,0.04740336399977745,0.016840651104813455,0.0175618050640685
0.0889138,0.0035355452695834014,0.007912524560209931,0.003844662995324275,0.01655093942502517,0.01738712417701572,0.04729713776693779,0.016904839142681746,0.01749681820643382
0.0893793,0.0035712579178798424,0.007906445596872735,0.0038470420699602084,0.016510452580508525,0.017487734805740236,0.04718854816750252,0.016968744478188424,0.01743169848294007
0.0898448,0.003607277511556521,0.007900081467488178,0.0038497513183912103,0.01646928476130551,0.017588186235948124,0.04707764921238366,0.01703236269941515,0.017366460985170685
0.0903103,0.003643604452781693,0.007893435156257591,0.0038528008362489594,0.016427451948917288,0.017688485312578037,0.04696449476253385,0.017095689402419702,0.017301120661840193
0.0907759,0.003680239044372682,0.007886509629581671,0.0038562007116453175,0.016384970022559883,0.01778863861368022,0.04684913851607488,0.01715872019284944,0.01723569231486238
0.0912414,0.0037171814891356104,0.00787930783509648,0.003859961022663299,0.016341854755162737,0.017888652449039224,0.04673163399559435,0.017221450687590237,0.017170190595488653
0.0917069,0.00375443188924124,0.007871832700731449,0.0038640918348420354,0.016298121809469702,0.01798853285891166,0.04661203453561252,0.01728387651644964,0.01710463000051736
0.0921724,0.0037919902456372656,0.007864087133790094,0.0038686031986559415,0.016253786734243998,0.018088285612878344,0.046490393270221086,0.017345993323873002,0.017039024868574677
0.0926379,0.0038298564574974175,0.007856074020054109,0.003873505146988278,0.016208864960578516,0.018187916208810172,0.04636676312089529,0.01740779677069138,0.016973389376467828
0.0931034,0.003868030321707714,0.007847796222911457,0.0038788076925993084,0.016163371798312887,0.01828742987194694,0.04624119678448104,0.017469282535900063,0.016907737535611287
0.093569,0.003906511532390212,0.007839256582509058,0.003884520825589236,0.01611732243255859,0.018386831554088393,0.04611374672135814,0.01753044631846655,0.016842083188526792
0.0940345,0.003945299680464616,0.00783045791493062,0.0038906545108561242,0.016070731920333252,0.018486125932896745,0.04598446514378111,0.017591283839166715,0.016776440005417944
0.0945,0.003984394253248117,0.007821403011400168,0.003897218685548988,0.016023615187305267,0.01858531741130986,0.04585340400439872,0.017651790842447907,0.01671082148082041
0.0949655,0.004023794634093831,0.007812094637511741,0.0039042232565162462,0.015975987024649738,0.01868441011706426,0.04572061498495325,0.01771196309831752,0.016645240930328504
0.095431,0.0040635001020681944,0.007802535532485683,0.00391167809774974,0.01592786208601667,0.018783407902327135,0.04558614948516044,0.017771796404255497,0.016579711487399028
0.0958966,0.004103509831667693,0.007792728408451941,0.003919593047824491,0.015879254884612354,0.018882314343436433,0.04545005861177055,0.017831286587149116,0.016514246100233013
0.0963621,0.004143822892575279,0.007782675949760677,0.003927977907334375,0.01583017979039469,0.018981132740748023,0.04531239316781097,0.01789042950524827,0.016448857528736
0.0968276,0.004184438249456822,0.007772380812320506,0.003936842436323855,0.015780651027383255,0.01907986611858891,0.04517320364201028,0.017949221050139297,0.016383558341557334
0.0972931,0.004225354761797949,0.00776184562296455,0.003946196351715896,0.015730682671084885,0.019178517225315352,0.045032540198403505,0.018007657148735326,0.01631836091320882
0.0977586,0.0042665711837815735,0.0077510729788445205,0.003956049324736183,0.015680288646035403,0.019277088533474734,0.04489045266611788,0.01806573376528098,0.01625327742126302
0.0982241,0.004308086164206422,0.00774006544685293,0.003966410978333713,0.01562948272345813,0.019375582240069928,0.04474699052933827,0.01812344690336914,0.01618831984363125
0.0986897,0.0043498982464468495,0.007728825563073505,0.00397729088459785,0.015578278519039656,0.01947400026692483,0.04460220291745108,0.01818079260796744,0.016123499955921425
0.0991552,0.0043920058684542304,0.007717355832259844,0.003988698562171902,0.015526689490823241,0.01957234426114977,0.044456138595365555,0.01823776696745219,0.016058829328875653
0.0996207,0.004434407362800208,0.007705658727342249,0.00400064347366326,0.015474728937220216,0.01967061559570542,0.04430884595401104,0.01829436611564738,0.015994319325887518
0.1000862,0.0044771009567620874,0.007693736688962711,0.004013135023050182,0.01542240999513955,0.019768815370064037,0.044160373001009015,0.018350586233866446,0.01592998110059881
0.1005517,0.00452008477245067,0.007681592125037927,0.004026182553085203,0.01536974563823569,0.01986694441096678,0.04401076735151848,0.018406423552954423,0.015865825594575497
0.1010172,0.004563356826980808,0.007669227410350191,0.0040397953426952295,0.015316748675274761,0.019965003273276268,0.04386007621925415,0.018461874355328343,0.015801863535062667
0.1014828,0.004606915032684942,0.007656644886165993,0.004053982604378275,0.015263431748619046,0.02006299224092362,0.04370834640767626,0.01851693497701372,0.015738105432818162
0.1019483,0.004650757197369909,0.007643846859882096,0.00406875348159685,0.015209807332829626,0.02016091132794954,0.0435556243013518,0.01857160180967529,0.0156745615800247
0.1024138,0.004694881024617264,0.007630835604698789,0.004084117046167947,0.01515588773338688,0.02025876027963911,0.04340195585748654,0.018625871302640307,0.01561124204828041
0.1028793,0.004739284114127382,0.007617613359320007,0.004100082295649629,0.015101685085528555,0.02035653857374987,0.04324738659762829,0.01867973996491283,0.015548156686667801
0.1033448,0.004783963962107586,0.007604182327680013,0.004116658150724232,0.015047211353204859,0.020454245421832773,0.0430919615995417,0.018733204367177635,0.015485315119901163
0.1038103,0.004828917961704517,0.0075905446786962965,0.004133853452578299,0.01499247832815004,0.020551879770645494,0.04293572548925541,0.018786261143792685,0.015422726746552505
0.1042759,0.004874143403480968,0.007576702546048411,0.004151676960279434,0.01493749762906966,0.020649440303657403,0.04277872243328249,0.018838906994769394,0.015360400737356108
0.1047414,0.004919637475937409,0.00756265802798243,0.004170137348150348,0.014882280700942774,0.020746925442645604,0.04262099613101496,0.018891138687740304,0.015298346033591839
0.1052069,0.0049653972660784005,0.007548413187140742,0.00418924320314046,0.01482683881443804,0.020844333349381444,0.04246258980729339,0.01894295305991398,0.015236571345547342
0.1056724,0.0050114197600241205,0.007533970050416908,0.004209003022195427,0.014771183065442726,0.020941661927406967,0.04230354620515285,0.018994347020017028,0.015175085151059406
0.1061379,0.005057701843667183,0.007519330608835298,0.004229425209625027,0.014715324374703447,0.02103890882390071,0.042143907578746406,0.019045317550223206,0.015113895694134903
0.1066034,0.005104240303374937,0.007504496817455233,0.004250518074469823,0.014659273487577392,0.02113607143163216,0.04198371568644772,0.019095861708069494,0.015053010983651737
0.107069,0.0051510318267374055,0.00748947059529938,0.004272289827867076,0.014603040973892782,0.021233146891004192,0.041823011784134605,0.019145976628359145,0.014992438792140251
0.1075345,0.005198073003361053,0.007474253825306127,0.004294748580416411,0.014546637227917185,0.02133013209218253,0.04166183661865532,0.01919565952505166,0.01493218665464545
0.108,0.005245360325708531,0.007458848354305702,0.004317902339545777,0.014490072468432346,0.021427023677311252,0.04150023042147952,0.019244907693139694,0.014872261867670374
0.1084655,0.005292890189984627,0.007443255993019779,0.004341759006878277,0.014433356738914169,0.02152381804281312,0.04133823290253532,0.01929371851051295,0.01481267148820088
0.108931,0.0053406588970686,0.007427478516084381,0.004366326375600446,0.014376499907816412,0.0216205113417735,0.041175883244234004,0.019342089439809064,0.014753422332812105
0.1093966,0.00538866265349314,0.007411517662095833,0.004391612127832571,0.01431951166895661,0.021717099486406544,0.041013220095683395,0.01939001803025155,0.01469452097685685
0.1098621,0.0054368975724701524,0.007395375133679548,0.0044176238320016775,0.014262401542002647,0.02181357815060238,0.04085028156709103,0.01943750191947469,0.014635973753736198
0.1103276,0.005485359674963541,0.007379052597581379,0.004444368940217858,0.01420517887305832,0.021909942772554272,0.04068710522435775,0.01948453883533535,0.014577786754252661
0.1107931,0.005534044890809186,0.007362551684781216,0.004471854785654674,0.014147852835346204,0.022006188557464907,0.04052372808386231,0.019531126597711373,0.01451996582604623
0.1112586,0.005582949059882273,0.0073458739906284865,0.004500088579934419,0.01409043242998599,0.02210231048033137,0.04036018660743758,0.01957726312028626,0.014462516573113647
0.1117241,0.005632067933312137,0.00732902107499917,0.004529077410519103,0.014032926486866524,0.022198303288808365,0.04019651669753861,0.019622946412319566,0.014405444355411183
0.1121897,0.005681397174744764,0.0073119944624739615,0.004558828238107988,0.013975343665609727,0.022294161506149553,0.040032753692602986,0.019668174580402376,0.014348754288541214
0.1126552,0.005730932361653065,0.007294795642537223,0.004589347894042521,0.013917692456624584,0.02238987943422657,0.03986893236260365,0.019712945830197066,0.014292451243522806
0.1131207,0.005780668986695025,0.007277426069796457,0.004620643077719487,0.01385998118224946,0.022485451156625473,0.03970508690479434,0.019757258468160382,0.01423653984664651
0.1135862,0.005830602459119804,0.0072598871642220635,0.004652720354013173,0.01380221799798097,0.022580870541820182,0.03954125093964739,0.01980111090324881,0.014181024479413482
0.1140517,0.005880728106221786,0.00724218031140721,0.004685586150707328,0.013744410893787739,0.022676131246422496,0.03937745750698389,0.0198445016486051,0.014125909278558937
0.1145172,0.005931041174842582,0.007224306862847696,0.0047192467559376795,0.01368656769550736,0.022771226718508317,0.0392137390622957,0.01988742932322469,0.014071198136159908
0.1149828,0.005981536832920897,0.007206268136241698,0.0047537083156457965,0.013628696066324924,0.022866150201019682,0.03905012747325895,0.01992989265360063,0.01401689469982717
0.1154483,0.006032210171090156,0.007188065415809299,0.004788976831045103,0.013570803508331451,0.02296089473524206,0.03888665401643868,0.01997189047534555,0.013963002372981145
0.1159138,0.0060830562043237306,0.007169699952631691,0.004825058156099924,0.01351289736416056,0.02305545316435648,0.038723349374184333,0.02001342173478902,0.013909524315211514
0.1163793,0.0061340698736275755,0.007151172965009966,0.0048619579950185164,0.013454984818701669,0.023149818137065844,0.03856024363171574,0.020054485490548463,0.013856463442720254
0.1168448,0.0061852460477800015,0.007132485638843376,0.004899681899761073,0.013397072900887938,0.023243982111294807,0.03839736627439928,0.020095080915071666,0.013803822428847756
0.1173103,0.006236579525118313,0.007113639128026944,0.004938235267563763,0.013339168485557275,0.023337937357962427,0.03823474618521372,0.020135207296148802,0.013751603704681694
0.1177759,0.006288065035371984,0.0070946345548682935,0.0049776233384798505,0.013281278295384622,0.02343167596482679,0.038072411642405234,0.020174864038391693,0.013699809459748203
0.1182414,0.006339697241541988,0.007075473010523534,0.00501785119293897,0.01322340890288389,0.02352518984040068,0.037910390317330955,0.020214050664677845,0.013648441642784986
0.1187069,0.0063914707418258965,0.007056155555452015,0.005058923749325617,0.013165566732477756,0.023618470717937354,0.03774870927249033,0.020252766817556684,0.013597501962595852
0.1191724,0.006443380071588273,0.007036683219889741,0.005100845761577954,0.013107758062633645,0.023711510159485295,0.03758739495974372,0.02029101226061537,0.013546991888986252
0.1196379,0.006495419705375874,0.007017057004341192,0.0051436218168080155,0.013049989028064047,0.023804299560010754,0.03742647321871772,0.020328786879801317,0.013496912653779393
0.1201034,0.006547584058977084,0.006997277880089284,0.005187256332944431,0.012992265621989308,0.023896830151586883,0.037265969275396535,0.020366090684698652,0.013447265251912604
0.120569,0.006599867491524991,0.006977346789723131,0.005231753556398753,0.012934593698460927,0.023989093007648232,0.03710590774089944,0.020402923809755762,0.013398050442613592
0.1210345,0.006652264307643455,0.00695726464768325,0.005277117559756448,0.012876978974743323,0.024081079047309436,0.03694631261044451,0.020439286515461067,0.013349268750656331
0.1215,0.0067047687596354655,0.006937032340823769,0.005323352239493594,0.012819427033751944,0.024172779039746715,0.03678720726249922,0.02047517918946408,0.01330092046769619
0.1219655,0.006757375049713107,0.006916650728991173,0.005370461313720268,0.01276194332654551,0.024264183608640816,0.03662861445811863,0.020510602347638858,0.01325300565368384
0.122431,0.006810077332268368,0.006896120645619103,0.005418448319951603,0.012704533174870166,0.02435528323667994,0.03647055634047204,0.020545556635086837,0.013205524138357624
0.1228966,0.0068628697161840745,0.006875442898338616,0.005467316612907439,0.012647201773753152,0.02444606827012105,0.03631305443455891,0.020580042827076043,0.013158475522813958
0.1233621,0.006915746267184248,0.00685461826960332,0.005517069362341453,0.012589954194143596,0.024536528923407908,0.03615612964711493,0.020614061829913828,0.01311185918115551
0.1238276,0.006968701010223133,0.0068336475173287215,0.005567709550900642,0.012532795385597874,0.024626655283844234,0.035999802266709166,0.02064761468175045,0.01306567426221693
0.1242931,0.007021727931912191,0.006812531375545124,0.005619239972015993,0.01247573017900696,0.024716437316320138,0.0358440919640326,0.020680702553311156,0.013019919691367909
0.1247586,0.0070748209829843015,0.006791270555063411,0.005671663227825142,0.012418763289363031,0.024805864868090062,0.03568901779237877,0.020713326748554757,0.012974594172393447
0.1252241,0.007127974080794404,0.006769865744153046,0.005724981727127799,0.012361899318562568,0.024894927673600367,0.035534598188316786,0.020745488705257074,0.012929696189451311
0.1256897,0.007181181111855773,0.006748317609231631,0.005779197683374644,0.012305142758242987,0.02498361535936456,0.035380850972557026,0.02077718999551795,0.012885224009106709
0.1261552,0.007234435934411068,0.006726626795565412,0.005834313112690413,0.0122484979926499,0.02507191744888417,0.03522779335100999,0.02080843232619079,0.012841175682444302
0.1266207,0.007287732381037244,0.006704793927980162,0.0058903298319318426,0.012191969301531852,0.02515982336761326,0.035075441916038695,0.02083921753923378,0.012797549047257651
0.1270862,0.007341064261283399,0.00668281961158185,0.005947249456781101,0.012135560863059395,0.0252473224479647,0.03492381264790502,0.020869547611982172,0.01275434173031617
0.1275517,0.007394425364340531,0.00666070443248659,0.006005073399875332,0.012079276756765206,0.025334403934356285,0.03477292091641046,0.020899424657341542,0.012711551149709645
0.1280172,0.007447809461742177,0.006638448958559323,0.006063802868972878,0.012023120966501941,0.025421056988295065,0.0346227814827316,0.020928850923902245,0.012669174517270313
0.1284828,0.007501210310094841,0.006616053740160705,0.006123438865156743,0.011967097383414482,0.02550727069349797,0.03447340850145046,0.02095782879597605,0.012627208841072435
0.1289483,0.007554621653837104,0.006593519310901689,0.006183982181075821,0.011911209808923276,0.025593034061046883,0.03432481552277991,0.020986360793556324,0.012585650928009258
0.1294138,0.007608037228026283,0.006570846188405277,0.006245433399224385,0.011855461957715483,0.025678336034576126,0.03417701549498415,0.021014449572203567,0.012544497386447192
0.1298793,0.0076614507611514485,0.006548034875074943,0.006307792890260359,0.011799857460740758,0.02576316549549005,0.034030020766994414,0.02104209792285823,0.012503744628956948
0.1303448,0.0077148559779716104,0.006525085858869249,0.0063710608113629,0.011744399868208574,0.025847511268208452,0.033883843091219897,0.02106930877158289,0.012463388875121367
0.1308103,0.007768246602377851,0.006501999614082166,0.006435237104629859,0.011689092652583985,0.025931362125437413,0.03373849362655379,0.021096085179235828,0.01242342615441965
0.1312759,0.007821616360278104,0.0064787766021286676,0.006500321495515763,0.01163393921157879,0.026014706793463106,0.03359398294157436,0.021122430341077955,0.012383852309187678
0.1317414,0.007874958982503292,0.006455417272335163,0.006566313491310953,0.011578942871134989,0.02609753395746614,0.033450321017940945,0.02114834758631499,0.01234466299765418
0.1322069,0.007928268207733447,0.006431922062734354,0.006633212379662613,0.011524106888397476,0.026179832266854053,0.03330751725398458,0.021173840377576726,0.012305853697052525
0.1326724,0.007981537785442406,0.006408291400864155,0.00670101722713836,0.0114694344546729,0.02626159034060954,0.03316558046849306,0.021198912310335178,0.012267419706807874
0.1331379,0.008034761478859634,0.006384525704570322,0.00676972687783317,0.011414928698371617,0.02634279677265184,0.03302451890469003,0.021223567112263544,0.012229356151799481
0.1336034,0.008087933067947686,0.0063606253828124805,0.006839339952020448,0.011360592687929822,0.026423440137208758,0.0328843402344077,0.021247808642537863,0.012191657985697789
0.134069,0.008141046352393808,0.006336590836473317,0.006909854844848139,0.011306429434708864,0.02650350899419664,0.03274505156245284,0.02127164089108334,0.012154319994375943
0.1345345,0.008194095154614065,0.006312422459170697,0.0069812697250808435,0.011252441895868832,0.02658299189460558,0.032606659431165565,0.02129506797776724,0.012117336799395313
0.135,0.008247073322768401,0.00628812063807251,0.007053582533889027,0.011198632977213477,0.02666187738588712,0.032469169825170556,0.021318094151540245,0.012080702861564558
0.1354655,0.008299974733784935,0.006263685754714121,0.007126790983686438,0.011145005536003451,0.0267401540173417,0.03233258817632016,0.02134072378952817,0.012044412484571713
0.135931,0.008352793296391743,0.006239118185818351,0.007200892557016862,0.011091562383734791,0.026817810345503127,0.032196919368828875,0.021362961396076005,0.012008459818688751
0.1363966,0.008405522954154329,0.006214418304118048,0.007275884505491336,0.011038306288879474,0.02689483493951759,0.03206216774459836,0.021384811601746333,0.011972838864547952
0.1368621,0.008458157688516899,0.006189586479181452,0.007351763848776911,0.010985239979584803,0.026971216386514944,0.03192833710873214,0.021406279162274267,0.011937543476989403
0.1373276,0.0085106915218455,0.006164623078240755,0.007428527373638032,0.010932366146328441,0.027046943296970306,0.031795430735238876,0.02142736895748083,0.011902567368978824
0.1377931,0.008563118520471034,0.00613952846702436,0.007506171633031583,0.010879687444525806,0.027122004310054088,0.031663451372922875,0.021448085990146724,0.01186790411559479
0.1382586,0.008615432797730116,0.006114303010593463,0.007584692945256701,0.010827206497086734,0.027196388098968568,0.03153240125146078,0.02146843538484824,0.011833547158084372
0.1387241,0.00866762851700175,0.006088947074183637,0.0076640873931605145,0.010774925896918364,0.027270083376269218,0.03140228208766308,0.021488422386756974,0.011799489807986143
0.1391897,0.00871969989473779,0.006063461024052091,0.007744350823401013,0.010722848209371229,0.027343078899168715,0.031273095091919306,0.021508052360404966,0.011765725251319373
0.1396552,0.008771641203485196,0.00603784522833128,0.007825478845768313,0.010670975974625584,0.027415363474821656,0.031144840974825602,0.021527330788416642,0.011732246552838175
0.1401207,0.00882344677489809,0.006012100057889483,0.007907466832565603,0.010619311710015136,0.027486925965587897,0.031017519953993416,0.021546263270209077,0.011699046660349339
0.1405862,0.008875111002737681,0.005986225887198969,0.007990309918051035,0.010567857912285383,0.02755775529427231,0.030891131761037728,0.021564855520661903,0.011666118409092496
0.1410517,0.008926628345858105,0.005960223095212314,0.00807400299794186,0.010516617059783911,0.027627840449338706,0.030765675648743246,0.021583113368758126,0.01163345452618117
0.1415172,0.008977993331176244,0.005934092066247435,0.008158540728982122,0.010465591614580352,0.027697170490095686,0.030641150398406786,0.021601042756196908,0.011601047635103213
0.1419828,0.009029200556623576,0.005907833190881831,0.008243917528575248,0.010414784024513866,0.027765734551851988,0.030517554327353747,0.021618649735979396,0.011568890260279031
0.1424483,0.0090802446940781,0.005881446866856533,0.008330127574482881,0.010364196725166358,0.02783352185103896,0.030394885296626376,0.021635940470968538,0.011536974831675897
0.1429138,0.009131120492274361,0.005854933499990204,0.008417164804591286,0.010313832141759835,0.027900521690297626,0.030273140718841383,0.021652921232423742,0.011505293689476536
0.1433793,0.009181822779689552,0.005828293505103803,0.00850502291674658,0.010263692690976628,0.02796672346352785,0.030152317566214115,0.021669598398511205,0.011473839088800094
0.1438448,0.009232346467403625,0.005801527306956135,0.00859369536866004,0.010213780782701293,0.0280321166608972,0.03003241237874629,0.021685978452790716,0.011442603204473512
0.1443103,0.009282686551931308,0.0057746353411906376,0.008683175377884591,0.010164098821683138,0.028096690873807,0.02991342127257404,0.021702067982679703,0.011411578135851249
0.1447759,0.009332838118023804,0.005747618055293652,0.008773455921863632,0.01011464920911835,0.028160435799813373,0.029795339948472853,0.021717873677895305,0.011380755911681213
0.1452414,0.009382796341437943,0.005720475909564386,0.008864529738053215,0.010065434344150722,0.028223341247500953,0.029678163700515847,0.021733402328875537,0.011350128495014718
0.1457069,0.009432556491670546,0.005693209378096749,0.0089563893241186,0.010016456625290068,0.028285397141306807,0.02956188742488158,0.02174866082518072,0.011319687788158218
0.1461724,0.009482113934655697,0.005665818949773182,0.009049026938206141,0.009967718451747522,0.02834659352629215,0.029446505628807552,0.02176365615387657,0.011289425637664509
0.1466379,0.009531464135422711,0.005638305129270547,0.009142434599291479,0.0099192222246871,0.028406920572859186,0.02933201243968525,0.02177839539790053,0.011259333839361
0.1471034,0.009580602660712721,0.005610668438078093,0.009236604087604983,0.009870970348393085,0.028466368581410474,0.029218401614292424,0.021792885734412886,0.011229404143412544
0.147569,0.009629525181551832,0.005582909415527545,0.009331526945135327,0.00982296523135294,0.028524927986947973,0.029105666548158195,0.02180713443313425,0.011199628259416252
0.1480345,0.009678227475778985,0.005555028619835244,0.00942719447621206,0.009775209287255752,0.028582589363609093,0.02899380028505635,0.02182114885467081,0.011169997861525702
0.1485,0.009726705430526627,0.005527026629156269,0.009523597748167948,0.009727704935906276,0.028639343429136765,0.02888279552662221,0.021834936448828623,0.011140504593601752
0.1489655,0.009774955044652424,0.005498904042650427,0.00962072759208183,0.009680454604054846,0.028695181049280687,0.02877264464208841,0.021848504752918146,0.011111140074387155
0.149431,0.009822972431120217,0.005470661481559969,0.009718574603602566,0.00963346072614354,0.028750093242126497,0.02866333967813514,0.0218618613900501,0.011081895902702086
0.1498966,0.009870753819328518,0.005442299590298836,0.009817129143854684,0.00958672574496911,0.028804071182349626,0.02855487236885046,0.021875014067423672,0.011052763662657632
0.1503621,0.009918295557385002,0.005413819037553195,0.009916381340426203,0.00954025211226329,0.02885710620539047,0.028447234145796568,0.021887970574608007,0.011023734928884279
0.1508276,0.0099655941143256,0.005385220517393009,0.010016321088439004,0.009494042289191224,0.02890918981154727,0.02834041614817799,0.02190073878181791,0.010994801271772447
0.1512931,0.010012646082277036,0.005356504750394343,0.010116938051702102,0.009448098746768899,0.02896031366998317,0.028234409233107566,0.02191332663818461,0.010965954262722215
0.1517586,0.010059448178561853,0.005327672484772092,0.010218221663948089,0.0094024239662005,0.029010469622643913,0.02812920398596606,0.021925742170022283,0.010937185479399461
0.1522241,0.010105997247745142,0.005298724497522832,0.010320161130152952,0.009357020439136702,0.029059649688082532,0.02802479073085128,0.021937993479090964,0.010908486510995746
0.1526897,0.010152290263622328,0.005269661595577471,0.010422745427939405,0.00931189066785487,0.029107846065187747,0.02792115954111243,0.021950088740856463,0.010879848963489338
0.1531552,0.010198324331147488,0.005240484616963385,0.010525963309063802,0.009267037165362202,0.029155051136812514,0.027818300249965525,0.02196203620274767,0.010851264464904824
0.1536207,0.010244096688301719,0.005211194431975775,0.010629803300986672,0.009222462455422787,0.02920125747329924,0.02771620246118557,0.021973844182411686,0.010822724670568844
0.1540862,0.010289604707901119,0.005181791944357933,0.010734253708526811,0.009178169072509667,0.02924645783589823,0.027614855559871216,0.021985521065966906,0.010794221268359681
0.1545517,0.010334845899343926,0.005152278092490127,0.010839302615598782,0.009134159561683054,0.02929064518007565,0.027514248723277533,0.02199707530625431,0.010765745983948484
0.1550172,0.010379817910296364,0.005122653850586817,0.010944937887033624,0.009090436478396009,0.029333812658707627,0.027414370931712735,0.022008515421086856,0.010737290586029949
0.1554828,0.01042451852831667,0.005092920229901886,0.01105114717048246,0.009047002388229107,0.029375953625156888,0.027315210979494683,0.022019849991496816,0.010708846891540374
0.1559483,0.010468945682416818,0.005063078279941588,0.011157917898402628,0.009003859866555775,0.029417061636228495,0.02721675748596343,0.022031087659980828,0.010680406770860948
0.1564138,0.010513097444561362,0.0050331290896848836,0.011265237290125841,0.00896101149814013,0.029457130455001538,0.027118998906546298,0.02204223712874213,0.010651962153004225
0.1568793,0.01055697203110283,0.005003073788810829,0.011373092354007866,0.008918459876669303,0.029496154053533716,0.02702192354387218,0.022053307157929504,0.010623505030781723
0.1573448,0.01060056780415305,0.004972913548932684,0.011481469889659071,0.008876207604222258,0.029534126615436182,0.02692551955893179,0.022064306563872135,0.010595027465950542
0.1578103,0.010643883272889834,0.004942649584838384,0.011590356490255133,0.008834257290677145,0.029571042538316366,0.026829774982280452,0.022075244217309775,0.010566521594336907
0.1582759,0.010686917094798458,0.004912283155737033,0.011699738544927134,0.00879261155305928,0.029606896436086872,0.026734677725279956,0.02208612904161722,0.010537979630934426
0.1587414,0.010729668076847512,0.004881815566511025,0.011809602241230222,0.008751273014831711,0.029641683141138776,0.02664021559137597,0.022096970011022163,0.010509393874974775
0.1592069,0.01077213517659882,0.004851248168973427,0.011919933567689918,0.008710244305130429,0.029675397706377983,0.026546376287407233,0.022107776148815296,0.010480756714968488
0.1596724,0.010814317503251191,0.004820582363130173,0.012030718316425113,0.00866952805794613,0.02970803540712367,0.026453147434942884,0.0221185565255515,0.010452060633713473
0.1601379,0.010856214318617993,0.004789819598446636,0.012141942085846728,0.008629126911254522,0.02973959174286843,0.02636051658164425,0.022129320257240615,0.01042329821326877
0.1606034,0.01089782503803849,0.004758961375118078,0.012253590283431022,0.008589043506097033,0.029770062438900836,0.026268471212647193,0.022140076503526427,0.01039446213989103
0.161069,0.010939149231223048,0.004728009245343474,0.012365648128566421,0.008549280485613814,0.029799443447792083,0.0261769987619611,0.02215083446585211,0.010365545208931166
0.1615345,0.01098018662303225,0.004696964814602159,0.012478100655472781,0.008509840494030887,0.029827730950749407,0.02608608662388037,0.02216160338561048,0.01033654032968849
0.162,0.011020937094189954,0.004665829742932752,0.012590932716191936,0.008470726175603202,0.02985492135883959,0.025995722164404166,0.022172392542277167,0.01030744053021959
0.1624655,0.011061400681930317,0.004634605746213788,0.012704128983648342,0.008431940173515385,0.02988101131408597,0.025905892732659985,0.022183211251524813,0.010278238962099182
0.162931,0.011101577580578871,0.004603294597445505,0.012817673954778614,0.008393485128741876,0.029905997690442505,0.025816585672326395,0.022194068863316235,0.010248928905130029
0.1633966,0.011141468142067689,0.004571898128032204,0.012931551953728712,0.008355363678868096,0.02992987759464831,0.025727788333050026,0.02220497475997452,0.010219503771998971
0.1638621,0.011181072876384772,0.004540418229064625,0.01304574713511748,0.008317578456874253,0.029952648366966064,0.025639488081851805,0.02221593835422788,0.010189957112876031
0.1643276,0.011220392451957857,0.004508856852601773,0.013160243487365181,0.008280132089883367,0.02997430758180749,0.025551672314517097,0.02222696908722724,0.010160282619953501
0.1647931,0.01125942769597291,0.004477216012951618,0.01327502483608562,0.008243027197875152,0.029994853048249052,0.025464328466964233,0.022238076426534293,0.010130474131921802
0.1652586,0.011298179594627743,0.004445497787950104,0.013390074847540387,0.008206266392367347,0.030014282810440905,0.025377444026585698,0.02224926986407804,0.01010052563837886
0.1657241,0.011336649293321267,0.0044137043202379135,0.013505377032153662,0.00816985227506621,0.030032595147911966,0.025291006543556017,0.022260558914077473,0.010070431284169729
0.1661897,0.01137483809677912,0.004381837818534415,0.013620914748086034,0.008133787436487844,0.03004978857577387,0.025205003642100203,0.02227195311092832,0.01004018537365321
0.1666552,0.011412747469116578,0.004349900558908231,0.013736671204865599,0.008098074454552089,0.03006586184482647,0.02511942303171643,0.022283462007051516,0.010009782374892333
0.1671207,0.011450379033839896,0.004317894886043874,0.013852629467074634,0.008062715893150656,0.030080813941567527,0.025034252518346692,0.02229509517070112,0.009979216923765813
0.1675862,0.011487734573787411,0.004285823214503876,0.013968772458089926,0.008027714300691232,0.03009464408810923,0.02494948001548908,0.02230686218372938,0.009948483827997697
0.1680517,0.011524816031011817,0.004253688029985857,0.014085082963874868,0.007993072208619254,0.03010735174200405,0.024865093555245313,0.02231877263930685,0.0099175780711027
0.1685172,0.011561625506605073,0.004221491890573937,0.014201543636821246,0.007958792129919045,0.030118936595982592,0.024781081299297417,0.02233083613959558,0.009886494816244887
0.1689828,0.011598165260467455,0.004189237427983895,0.014318136999638619,0.007924876557596012,0.03012939857760609,0.0246974315498072,0.02234306229337343,0.009855229410007663
0.1694483,0.0116344377110222,0.0041569273488014594,0.01443484544928913,0.007891327963141528,0.030138737848836243,0.024614132760232287,0.022355460713607743,0.009823777386073377
0.1699138,0.011670445434877136,0.004124564435713059,0.01455165126096547,0.007858148794982091,0.0301469548055251,0.024531173546052425,0.022368041014976664,0.009792134468811272
0.1703793,0.011706191166434683,0.004092151548728377,0.014668536592109729,0.007825341476914298,0.03015405007682758,0.024448542695399766,0.022380812811336782,0.009760296576772855
0.1708448,0.011741677797451593,0.004059691626393988,0.014785483486470841,0.007792908406527147,0.030160024524539145,0.02436622917958699,0.022393785713136174,0.009728259826093976
0.1713103,0.011776908376549811,0.004027187686997372,0.014902473878198277,0.007760851953613162,0.03016487924236101,0.02428422216352712,0.022406969324772485,0.009696020533803031
0.1717759,0.011811886108679793,0.003994642829760517,0.015019489595969656,0.0077291744585697595,0.03016861555509512,0.024202511016038906,0.02242037324189605,0.009663575221034741
0.1722414,0.011846614354537585,0.003962060236022328,0.015136512367149886,0.007697878230792345,0.030171235017770977,0.024121085320031734,0.02243400704865847,0.009630920616149058
0.1727069,0.011881096629936947,0.003929443170409026,0.015253523821979384,0.007666965547060608,0.030172739414706107,0.02403993488256396,0.022447880314907402,0.009598053657754749
0.1731724,0.011915336605137694,0.0038967949819916723,0.015370505497788775,0.007636438649919471,0.030173130758501872,0.023959049744768698,0.022462002593328364,0.009564971497637296
0.1736379,0.011949338104131442,0.00386411910542996,0.015487438843237455,0.007606299746056175,0.030172411288976193,0.02387842019164123,0.02247638341653472,0.009531671503590803
0.1741034,0.011983105103885769,0.003831419062101358,0.015604305222573178,0.007576551004674986,0.03017058347203454,0.02379803676168228,0.022491032294107576,0.009498151262153545
0.174569,0.012016641733547835,0.0037986984612147006,0.015721085919909783,0.007547194555870996,0.030167649998480345,0.023717890256391646,0.022505958709587683,0.009464408581246817
0.1750345,0.012049952273608344,0.0037659610009072742,0.015837762143519996,0.007518232489004476,0.03016361378276588,0.023637971749606603,0.022521172117421967,0.009430441492716666
0.1755,0.012083041155026685,0.0037332104693244294,0.015954315030140172,0.007489666851077268,0.030158477961684343,0.023558272596679756,0.022536681939867725,0.009396248254778077
0.1759655,0.012115912958317935,0.0037004507456807247,0.016070725649283683,0.007461499645112676,0.030152245893003807,0.0234787844434908,0.02255249756385795,0.009361827354361146
0.176431,0.01214857241260236,0.003667685801301604,0.01618697500755975,0.007433732828540296,0.030144921154043495,0.02339949923528705,0.022568628337831298,0.009327177509358823
0.1768966,0.012181024394617953,0.003634919700644605,0.016303044052994473,0.007406368311587233,0.030136507540192797,0.02332040922534753,0.022585083568530385,0.009292297670775846
0.1773621,0.01221327392769639,0.003602156602299105,0.016418913679351145,0.007379407955677113,0.03012700906337348,0.023241506983465835,0.02260187251777214,0.009257187024778535
0.1778276,0.012245326180702773,0.0035694007599636145,0.01653456473044723,0.007352853571838259,0.030116429950445497,0.0231627854042474,0.022619004399193846,0.009221844994645135
0.1782931,0.012277186466939354,0.0035366565233996405,0.0166499780044658,0.0073267069191223794,0.03010477464155698,0.023084237715217094,0.02263648837497869,0.009186271242616418
0.1787586,0.012308860243013366,0.003503928339361135,0.016765134258259696,0.007300969703035054,0.030092047788439016,0.023005857484733733,0.022654333552564705,0.009150465671646266
0.1792241,0.012340353107668976,0.003471220752498521,0.01688001421164704,0.007275643573979289,0.030078254252645823,0.022927638629708577,0.022672548981341134,0.00911442842705198
0.1796897,0.012371670800583297,0.003438538406236291,0.01699459855169702,0.007250730125713381,0.03006339910374097,0.022849575423125483,0.022691143649336266,0.009078159898063988
0.1801552,0.012402819201126227,0.003405886043623133,0.017108867937005143,0.0072262308938243255,0.03004748761742999,0.022771662501361138,0.022710126479900887,0.009041660719274702
0.1806207,0.01243380432708387,0.003373268508153524,0.017222803001957134,0.007202147354217987,0.03003052527363975,0.022693894871304097,0.02272950632839134,0.009004931771986165
0.1810862,0.012464632333345138,0.0033406907445596955,0.01733638436098084,0.00717848092162726,0.030012517754544638,0.022616267917271646,0.022749291978856195,0.008967974185456168
0.1815517,0.012495309510551137,0.0033081577995728835,0.01744959261278542,0.007155232948139396,0.029993470942539714,0.02253877740772354,0.022769492140730402,0.008930789338042477
0.1820172,0.012525842283706765,0.003275674822652746,0.01756240834458714,0.007132404721743737,0.029973390918160644,0.022461419501771395,0.022790115445540642,0.00889337885824481
0.1824828,0.012556237210753907,0.0032432470666838497,0.017674812136321272,0.007109997464901078,0.029952283957950382,0.0223841907554826,0.02281117044362565,0.008855744625644197
0.1829483,0.012586500981105513,0.003210879888638158,0.0177867845648398,0.00708801233313595,0.02993015653227258,0.022307088127977208,0.022832665600874925,0.008817888771739323
0.1834138,0.012616640414139742,0.003178578750202479,0.017898306208095047,0.007066450413653146,0.029907015303071598,0.02223010898731643,0.022854609295489194,0.008779813680679456
0.1838793,0.012646662457653283,0.0031463492183698848,0.018009357649309568,0.007045312723979931,0.029882867121579254,0.02215325111618092,0.022877009814765852,0.008741521989893532
0.1843448,0.012676574186272873,0.0031141969659941654,0.0181199194811332,0.00702460021063538,0.029857719025968395,0.022076512717337272,0.022899875351912402,0.008703016590614945
0.1848103,0.012706382799823938,0.0030821277723064155,0.018229972309788515,0.00700431374782834,0.02983157823895368,0.021999892418890544,0.022923214002890727,0.008664300628301615
0.1852759,0.012736095621655273,0.0030501475233928954,0.018339496759206368,0.006984454136185521,0.029804452165340042,0.021923389279320783,0.022947033763295082,0.008625377502950775
0.1857414,0.012765720096918478,0.0030182622126333413,0.018448473475153573,0.006965022101511205,0.029776348389519324,0.02184700279230124,0.022971342525266485,0.008586250869307982
0.1862069,0.012795263790800907,0.002986477941098894,0.01855688312935506,0.006946018293579994,0.029747274672915592,0.0217707328912958,0.022996148074446318,0.008546924636969813
0.1866724,0.012824734386710755,0.002954800917908822,0.01866470642361311,0.006927443284963998,0.029717238951379777,0.021694579953933067,0.023021458086971747,0.008507402970379684
0.1871379,0.012854139684412833,0.0029232374605452013,0.018771924093926324,0.006909297569895821,0.029686249332534317,0.021618544806154386,0.02304728012651565,0.00846769028871622
0.1876034,0.012883487598113594,0.0028917939951246963,0.018878516914611072,0.006891581563168644,0.02965431409306879,0.021542628726133033,0.023073621641373443,0.008427791265673635
0.188069,0.01291278615449392,0.002860477056626588,0.01898446570242806,0.006874295599074688,0.029621441675987722,0.02146683344796172,0.023100489961599142,0.008387710829133492
0.1885345,0.01294204349068811,0.0028292932890761637,0.01908975132071663,0.006857439930383277,0.029587640687812063,0.02139116116510555,0.023127892296192765,0.008347454160727331
0.189,0.012971267852207568,0.0027982494456825764,0.019194354683539312,0.006841014727359642,0.029552919895735958,0.021315614533617393,0.023155835730341093,0.008307026695289594
0.1894655,0.013000467590807722,0.002767352388930275,0.019298256759838952,0.006825020076825606,0.029517288224740743,0.02124019667511276,0.02318432722271368,0.008266434120200396
0.189931,0.013029651162296589,0.0027366090906230994,0.01940143857761077,0.006809455981263176,0.02948075475466822,0.021164911179501058,0.02321337360281588,0.00822568237461779
0.1903966,0.013058827124283452,0.0027060266318801635,0.019503881228091564,0.006794322357962035,0.02944332871725555,0.02108976210747022,0.02324298156840068,0.008184777648599297
0.1908621,0.0130880041338661,0.002675612203082701,0.01960556586996804,0.0067796190382118805,0.029405019493134406,0.021014753992721878,0.02327315768294096,0.008143726382112696
0.1913276,0.013117190945254988,0.0026453731037711435,0.019706473733606376,0.006765345766540486,0.029365836608797487,0.02093989184395433,0.02330390837316383,0.00810253526393624
0.1917931,0.013146396407332634,0.0026153167424918114,0.01980658612530471,0.006751502199998367,0.029325789733535446,0.020865181146591028,0.02333523992664846,0.008061211230448588
0.1922586,0.013175629461146554,0.0025854506365926948,0.019905884431570396,0.006738087907490831,0.029284888676347327,0.020790627864252637,0.023367158489488688,0.008019761464308982
0.1927241,0.01320489913733387,0.002555782411967931,0.020004350123423522,0.006725102369158205,0.029243143382827696,0.020716238439971106,0.023399670064021563,0.007978193393028365
0.1931897,0.013234214553475765,0.002526319802750675,0.02010196476072811,0.006712544975804971,0.029200563932033224,0.020642019797144504,0.023432780506622727,0.007936514687432368
0.1936552,0.013263584911379864,0.002497070650954135,0.020198709996552332,0.0067004150283784935,0.029157160533331596,0.02056797934023178,0.023466495525569436,0.0078947332600173
0.1941207,0.0132930194942886,0.002468042906060611,0.020294567581558863,0.0066887117374979975,0.029112943523235353,0.020494124955186946,0.02350082067897177,0.0078528572632003
0.1945862,0.013322527664011565,0.002439244624558408,0.020389519368426427,0.006677434223034421,0.029067923362223236,0.020420465009632405,0.023535761372772517,0.007810895087464886
0.1950517,0.013352118857979909,0.002410683969426511,0.020483547316303533,0.006666581513741747,0.02902211063155155,0.020347008352771416,0.02357132285881609,0.007768855359403089
0.1955172,0.013381802586220737,0.002382369209566907,0.02057663349529519,0.0066561525469403466,0.02897551603005779,0.02027376431503959,0.02360751023298673,0.007726746939655276
0.1959828,0.013411588428249655,0.0023543087191844393,0.020668760090983552,0.006646146168252878,0.028928150370958736,0.020200742707495407,0.02364432843341631,0.007684578920748804
0.1964483,0.013441486029879664,0.00232651097711408,0.020759909408983267,0.006636561131393198,0.028880024578645008,0.020127953820949708,0.023681782238761887,0.007642360624836539
0.1969138,0.013471505099944875,0.002298984566095498,0.02085006387953249,0.006627396098008782,0.02883114968547382,0.020055408424834307,0.023719876266553086,0.0076001016013362965
0.1973793,0.0135016554069378,0.0022717381719948265,0.020939206062120443,0.006618649637577041,0.02878153682856147,0.019983117765809955,0.02375861497160929,0.0075578116244722155
0.1978448,0.013531946775559262,0.002244780582973544,0.02102731865015259,0.006610320227355923,0.028731197246576894,0.019911093566113917,0.02379800264452654,0.007515500690719126
0.1983103,0.013562389083180143,0.0022181206886044136,0.021114384475654457,0.0066024062523891165,0.02868014227653744,0.019839348021647506,0.023838043410233878,0.007473179016150958
0.1987759,0.013592992256214326,0.0021917674789344276,0.021200386514015145,0.00659490600556615,0.028628383350607727,0.019767893799803846,0.023878741226618875,0.007430857033694254
0.1992414,0.013623766266402377,0.0021657300434947424,0.02128530788877169,0.006587817687737634,0.028575931992902256,0.019696744037036373,0.023920099883222017,0.007388545390287867
0.1997069,0.013654721127005545,0.0021400175702575995,0.021369131876435302,0.006581139407885825,0.028522799816292292,0.0196259123361686,0.023962122999999474,0.007346254943949904
0.2001724,0.013685866888910008,0.002114639344540281,0.02145184191136045,0.006574869183350703,0.028468998519217213,0.019555412763445842,0.024004814026153985,0.007303996760752924
0.2006379,0.01371721363664143,0.002089604747856196,0.02153342159065776,0.006569004940111713,0.028414539882500412,0.019485259845329703,0.02404817623903342,0.007261782111708345
0.2011034,0.013748771484290156,0.00206492325671323,0.0216138546791514,0.006563544513125261,0.028359435766169692,0.019415468565036,0.02409221274309687,0.007219622469561
0.201569,0.013780550571347505,0.0020406044413595263,0.021693125114381553,0.006558485646718082,0.02830369810628217,0.019346054358816867,0.024136926468948064,0.007177529505494695
0.2020345,0.013812561058453725,0.0020166579644768754,0.021771217011652366,0.006553825995036509,0.028247338911753697,0.01927703311198757,0.02418232017243585,0.00713551508574964
0.2025,0.01384481312305836,0.001993093579821901,0.02184811466912557,0.006549563122551652,0.028190370261193226,0.019208421154698452,0.024228396433821724,0.007093591268152551
0.2029655,0.013877316954993791,0.001969921130815237,0.021923802572959818,0.006545694504620503,0.02813280429974288,0.01914023525745235,0.024275157657014098,0.0070517702985602535
0.203431,0.013910082751963022,0.0019471505490789031,0.02199826540249552,0.006542217528102922,0.028074653235925034,0.019072492626367593,0.024322606068869268,0.0070100646072176545
0.2038966,0.013943120714942926,0.0019247918529221135,0.02207148803548483,0.006539129492034465,0.028015929338497926,0.01900521089818658,0.024370743718558976,0.006968486805030913
0.2043621,0.01397644104350439,0.0019028551457757688,0.022143455553366265,0.006536427608355014,0.02795664493332183,0.0189384081350298,0.02441957247700484,0.006927049679756693
0.2048276,0.014010053931051087,0.0018813506145758973,0.022214153246583157,0.006534109002693129,0.027896812400238002,0.01887210281889514,0.024469094036380017,0.006885766192108419
0.2052931,0.014043969559978704,0.0018602885280963293,0.0222835666199451,0.0065321707152059755,0.027836444169962938,0.018806313845902266,0.02451930990967876,0.00684464947178049
0.2057586,0.01407819809675658,0.001839679235230912,0.022351681398031252,0.006530609701474682,0.02777555272100072,0.018741060520282123,0.024570221430354457,0.006803712813391464
0.2062241,0.014112749686933747,0.0018195331632255899,0.02241848353063419,0.006529422833454931,0.027714150576576498,0.018676362548111874,0.0246218297520268,0.0067629696723472766
0.2066897,0.014147634450071424,0.0017998608158607096,0.022483959198242857,0.00652860690048253,0.027652250301593986,0.01861224003079609,0.024674135848258436,0.0067224336606255645
0.2071552,0.014182862474604088,0.0017806727715839329,0.022548094817563046,0.006528158610333678,0.02758986449961987,0.018548713458295507,0.02472714051240156,0.006682118542482185
0.2076207,0.014218443812631465,0.0017619796815941564,0.022610877047073527,0.006528074590339604,0.027527005809897944,0.018485803702105105,0.024780844357514535,0.006642038230080992
0.2080862,0.014254388474644048,0.0017437922678768562,0.02267229279261595,0.006528351388555191,0.027463686904395813,0.01842353200798381,0.02483524781634868,0.006602206779047929
0.2085517,0.014290706424184988,0.0017261213211912704,0.02273232921301627,0.006528985474981168,0.027399920484886736,0.018361919988438766,0.02489035114140547,0.006562638383950485
0.2090172,0.01432740757245145,0.0017089776990098324,0.022790973725735495,0.006529973242839401,0.027335719280069174,0.018300989614967674,0.02494615440506419,0.006523347373703548
0.2094828,0.01436450177283874,0.0016923723234102668,0.022848214012547212,0.00653131100990075,0.02727109604272644,0.01824076321006335,0.025002657499780492,0.006484348206902684
0.2099483,0.014401998815430587,0.0016763161789207467,0.02290403802523936,0.00653299501986496,0.027206063546928515,0.01818126343898491,0.02505986013835602,0.006445655467085833
0.2104138,0.014439908421439048,0.001660820310318524,0.02295843399133738,0.006535021443792004,0.02714063458527815,0.01812251330130042,0.025117761854279323,0.006407283857924401
0.2108793,0.014478240237597497,0.0016458958203824524,0.023011390419845845,0.00653738638158425,0.02707482196620298,0.01806453612220587,0.025176362002138162,0.006369248198344702
0.2113448,0.014517003830510194,0.001631553867599846,0.02306289610700551,0.006540085863518793,0.027008638511295462,0.018007355543625835,0.02523565975810312,0.006331563417580692
0.2118103,0.014556208680961786,0.001617805663828154,0.02311294014206254,0.006543115851829225,0.026942097052702278,0.017950995515101015,0.025295654120482288,0.006294244550159006
0.2122759,0.014595864178190055,0.0016046624719119704,0.023161511913046634,0.0065464722423360855,0.0268752104305651,0.017895480284468194,0.025356343910346753,0.006257306730817284
0.2127414,0.014635979614125185,0.0015921356032559358,0.023208601112554513,0.006550150866125185,0.02680799149051448,0.017840834388338188,0.025417727772226315,0.006220765189356981
0.2132069,0.014676564177598715,0.0015802364153541227,0.023254197743535265,0.006554147491272925,0.026740453081218814,0.017787082642377543,0.025479804174874884,0.006184635245432014
0.2136724,0.014717626948525363,0.0015689763092765112,0.023298292125073856,0.006558457824617743,0.026672608051990163,0.01773425013139989,0.025542571412104736,0.006148932303274828
0.2141379,0.014759176892060973,0.0015583667271131699,0.023340874898168988,0.006563077513576764,0.026604469250448685,0.017682362199273025,0.02560602760368865,0.006113671846361678
0.2146034,0.014801222852739805,0.0015484191493767543,0.023381937031501425,0.006568002148006703,0.02653604952024726,0.017631444438647947,0.02567017069632877,0.006078869432019088
0.215069,0.014843773548594603,0.0015391450923639312,0.02342146982718859,0.006573227262108012,0.02646736169885797,0.017581522680516343,0.025734998464690937,0.006044540685973606
0.2155345,0.014886837565262817,0.0015305561054763269,0.023459464926521217,0.0065787483363712596,0.026398418615421828,0.01753262298360325,0.02580050851250295,0.006010701296847116
0.216,0.014930423350082503,0.0015226637685015927,0.023495914315677553,0.006584560799564701,0.026329233088663306,0.017484771623602013,0.025866698273715207,0.005977367010600171
0.2164655,0.014974539206181388,0.0015154796888551597,0.023530810331410378,0.006590660030761913,0.026259817924870817,0.017437995082258986,0.025933565013721877,0.005944553624926008
0.216931,0.015019193286562683,0.0015090154987832598,0.02356414566670221,0.0065970413614084514,0.026190185915944377,0.017392320036315405,0.02600110583064061,0.005912276983597969
0.2173966,0.015064393588191212,0.0015032828525277746,0.023595913376383646,0.006603700077426436,0.02612034983751147,0.01734777334631399,0.026069317656648612,0.005880552970773141
0.2178621,0.015110147946083403,0.0014982934234534632,0.023626106882709868,0.0066106314213559905,0.026050322447111945,0.017304382045277723,0.026138197259372716,0.005849397505254989
0.2183276,0.015156464027404757,0.001494058901138113,0.023654719980890176,0.006617830594532464,0.025980116482452943,0.017262173327268072,0.026207741243330807,0.005818826534717754
0.2187931,0.015203349325578297,0.0014905909884261428,0.023681746844565366,0.0066252927592983235,0.025909744659734762,0.017221174535829907,0.02627794605142174,0.005788856029895331
0.2192586,0.015250811154407587,0.0014879013984461873,0.023707182031227562,0.006633013041248621,0.025839219672048764,0.017181413152330172,0.026348807966460618,0.0057595019787372885
0.2197241,0.01529885664221782,0.001486001851593184,0.023731020487576936,0.0066409865315088445,0.025768554187848746,0.017142916784197305,0.026420323112756303,0.005730780380534705
0.2201897,0.015347492726018453,0.0014849040724754735,0.023753257554809688,0.006649208289043967,0.025697760849497184,0.017105713153068337,0.026492487457727653,0.005702707240018468
0.2206552,0.015396726145690832,0.0014846197868274387,0.023773888973831418,0.006657673342997453,0.025626852271887955,0.017069830082850512,0.02656529681355496,0.0056752985614326665
0.2211207,0.015446563438204101,0.0014851607183882052,0.02379291089038993,0.00666637669505897,0.025555841041146932,0.017035295487704195,0.026638746838862935,0.0056485703425857275
0.2215862,0.015497010931862686,0.0014865385857469446,0.02381031986012136,0.006675313321859517,0.02548473971341188,0.017002137359953713,0.02671283304043125,0.005622538568881942
0.2220517,0.015548074740588554,0.0014887650991553243,0.023826112853503528,0.006684478177392653,0.025413560813692768,0.016970383757932698,0.026787550774928708,0.005597219207335962
0.2225172,0.015599760758241397,0.001491851957307669,0.02384028726071009,0.006693866195460499,0.025342316834813507,0.016940062793770454,0.026862895250666857,0.005572628200572861
0.2229828,0.015652074652979926,0.0014958108440894123,0.023852840896359157,0.006703472292143091,0.02527102023643594,0.016911202621125745,0.026938861529368842,0.0055487814608163296
0.2234483,0.01570502186166759,0.0015006534252944223,0.02386377200414974,0.006713291368289693,0.025199683444166617,0.01688383142287435,0.02701544452794936,0.005525694863867542
0.2239138,0.015758607584326206,0.0015063913453117954,0.02387307926137947,0.006723318312030575,0.025128318848746764,0.016857977398756743,0.02709263902030174,0.005503384243077247
0.2243793,0.015812836778641044,0.0015130362237827082,0.023880761783336743,0.006733548001307784,0.025056938805325547,0.016833668752992106,0.02717043963908842,0.005481865383313628
0.2248448,0.01586771415452116,0.0015205996522279276,0.023886819127560455,0.006743975306423323,0.024985555632816712,0.016810933681864825,0.027248840877531613,0.005461154014928494
0.2253103,0.015923244168718664,0.001529093190646584,0.023891251297960266,0.006754595092603194,0.024914181613338488,0.0167898003612895,0.02732783709120129,0.005441265807724295
0.2257759,0.01597943101951065,0.0015385283640868372,0.023894058748790404,0.006765402222575705,0.02484282899173652,0.016770296934360312,0.027407422499797666,0.005422216364924484
0.2262414,0.01603627864144743,0.0015489166591890688,0.02389524238846966,0.006776391559162402,0.024771509975189496,0.016752451498890604,0.027487591188925554,0.005404021217149726
0.2267069,0.016093790700170574,0.001560269520702263,0.023894803583240268,0.006787557967880017,0.024700236732897007,0.016736292094948247,0.027568337111857733,0.005386695816402404
0.2271724,0.016151970587304162,0.0015725983479742505,0.02389274416065816,0.006798896319551796,0.024629021395848924,0.016721846692392392,0.027649654091284604,0.00537025553006185
0.2276379,0.01621082141542261,0.0015859144914165,0.023889066412907077,0.006810401492926602,0.024557876056675552,0.01670914317841698,0.02773153582104743,0.005354715634892702
0.2281034,0.016270346013098312,0.0016002292489441549,0.023883773099928913,0.006822068377304167,0.024486812769577558,0.01669820934510636,0.02781397586785238,0.005340091311068748
0.228569,0.01633054692003227,0.0016155538623920062,0.023876867452362782,0.006833891875164922,0.024415843550334576,0.016689072877008215,0.027896967672962732,0.005326397636214565
0.2290345,0.016391426382270865,0.0016318995139071107,0.023868353174285494,0.0068458669048028,0.024344980376391327,0.01668176133872882,0.027980504553866477,0.005313649579467241
0.2295,0.016452986347511828,0.0016492773223187754,0.023858234445746643,0.006857988402959403,0.024274235187019908,0.01667630216255557,0.02806457970591702,0.005301861995560419
0.2299655,0.016515228460502317,0.0016676983394866532,0.023846515925092127,0.006870251327457882,0.024203619883556852,0.016672722636111637,0.028149186203944566,0.005291049618932875
0.230431,0.01657815405853195,0.0016871735466277309,0.023833202751070707,0.006882650659834846,0.024133146329713397,0.0166710498900474,0.02823431700383633,0.005281227057863805
0.2308966,0.016641764167023544,0.0017077138506230234,0.023818300544718913,0.006895181407968565,0.024062826351957247,0.01667131088577326,0.028319964944083606,0.005272408788636985
0.2313621,0.01670605949522417,0.0017293300803048173,0.02380181541102024,0.00690783860870168,0.023992671739963955,0.016673532403238208,0.02840612274729413,0.005264609149735906
0.2318276,0.01677104043199915,0.0017520329827253292,0.023783753940335037,0.006920617330456573,0.0239226942471359,0.016677741028758578,0.028492783021668213,0.0052578423360719944
0.2322931,0.016836707041731454,0.001775833219407654,0.023764123209597733,0.006933512675841548,0.023852905591186555,0.016683963142901135,0.028579938262437283,0.0052521223932479695
0.2327586,0.01690305906032899,0.0018007413625798815,0.02374293078327812,0.006946519784245853,0.02378331745478782,0.016692224908424664,0.02866758085326338,0.005247463211858385
0.2332241,0.016970095891342105,0.0018267678913932728,0.02372018471410361,0.006959633834421652,0.023713941486277864,0.016702552258284,0.02875570306759816,0.005243878521829394
0.2336897,0.01703781660219361,0.0018539231881253867,0.023695893543539796,0.006972850047050976,0.023644789300427092,0.016714970883700362,0.028844297069999726,0.005241381886799727
0.2341552,0.01710621992052352,0.0018822175343690636,0.023670066302026834,0.006986163687295721,0.023575872479259918,0.016729506222301703,0.02893335491740559,0.005239986698544853
0.2346207,0.01717530423065059,0.0019116611072081701,0.02364271250896999,0.006999570067328764,0.023507202572929993,0.016746183446336715,0.029022868560359665,0.0052397061714463036
0.2350862,0.017245067570152737,0.0019422639753810369,0.023613842172483142,0.007013064548844247,0.023438791100646686,0.016765027450966027,0.029112829844191317,0.005240553337008064
0.2355517,0.017315507626568184,0.0019740360954325032,0.023583465788884834,0.007026642545545092,0.023370649551650677,0.01678606284263397,0.029203230510144177,0.005242541038421985
0.2360172,0.01738662173421921,0.002006987307855505,0.02355159434194718,0.007040299525605737,0.023302789386236564,0.016809313927524445,0.029294062196452336,0.005245681925184132
0.2364828,0.01745840687116023,0.0020411273332231446,0.02351823930189876,0.007054031014108072,0.023235222036820317,0.016834804700104157,0.029385316439361514,0.005249988447764006
0.2369483,0.017530859656251774,0.0020764657683121986,0.02348341262418318,0.007067832595448548,0.023167958909049526,0.01686255883175653,0.02947698467409286,0.005255472852328568
0.2374138,0.017603976346362,0.002113012082219015,0.02344712674797584,0.007081699915714458,0.02310101138295422,0.01689259965950947,0.02956905823574695,0.005262147175522953
0.2378793,0.017677752833697106,0.002150775612468758,0.023409394594461633,0.007095628685027482,0.023034390814136163,0.016924950174860048,0.02966152836014572,0.005270023239309774
0.2383448,0.017752184643262087,0.0021897655611189297,0.023370229564876877,0.007109614679852777,0.022968108534994133,0.016959633012699166,0.02975438618461005,0.00527911264586885
0.2388103,0.017827266930452976,0.0022299909908581115,0.02332964553831869,0.007123653745272068,0.022902175855982948,0.01699667044033898,0.02984762274867068,0.005289426772559186
0.2392759,0.017902994478781922,0.002271460821100833,0.023287656869325213,0.007137741797219461,0.022836604066903722,0.017036084346645976,0.02994122899471004,0.005300976766944978
0.2397414,0.017979361697736118,0.0023141838240794887,0.023244278385229945,0.0071518748246788355,0.022771404438222904,0.017077896231282558,0.03003519576853287,0.0053137735418873925
0.2402069,0.018056362620771656,0.002358168620934211,0.023199525383293614,0.007166048891841841,0.02270658822241772,0.01712212719405995,0.03012951381986327,0.005327827770703838
0.2406724,0.018133990903443354,0.0024034236778016083,0.02315341362761667,0.007180260140225634,0.022642166655345655,0.01716879792440534,0.03022417380276641,0.00534314988239638
0.2411379,0.018212239821671517,0.002449957301903277,0.023105959345835658,0.00719450479074954,0.022578150957635715,0.01721792869094626,0.03031916627599306,0.0053597500569509526
0.2416034,0.01829110227014652,0.002497777637635005,0.023057179225606766,0.007208779145769865,0.022514552336099065,0.017269539331215097,0.030414481703245646,0.0053776382207089335
0.242069,0.01837057076087214,0.0025468926626575727,0.023007090410879928,0.007223079591072082,0.022451381985156667,0.017323649241476682,0.030510110453364735,0.005396824041812663
0.2425345,0.01845063742184851,0.0025973101839900665,0.02295571049796676,0.007237402597819635,0.022388651088281367,0.017380277366681702,0.03060604280043526,0.00541731692572645
0.243,0.0185312939958956,0.002649037834106631,0.02290305753140591,0.00725174472445864,0.022326370819451852,0.017439442190548746,0.030702268923812025,0.005439126010834577
0.2434655,0.018612531839618078,0.0027020830670375843,0.02284914999962925,0.007266102618577802,0.02226455234461558,0.017501161725777585,0.03079877890806451,0.005462260164117809
0.243931,0.018694341922512455,0.002756453154475836,0.022794006830432274,0.007280473018722952,0.022203206823157896,0.017565453504396283,0.030895562742841335,0.00548672797690987
0.2443966,0.018776714826217247,0.00281215518188954,0.02273764738625209,0.007294852756165668,0.02214234540937424,0.017632334568244555,0.030992610322655063,0.005512537760735359
0.2448621,0.01885964074390695,0.002869196044641911,0.02268009145925626,0.007309238756625503,0.022081979253942473,0.017701821459595615,0.031089911446588462,0.00553969754323051
0.2453276,0.01894310947983052,0.0029275824441191106,0.022621359266245766,0.007323628041945316,0.02202211950539221,0.01777393021191874,0.031187455817923735,0.005568215064148253
0.2457931,0.019027110448994956,0.0029873208838671083,0.022561471443375326,0.0073380177317192465,0.021962777311568236,0.017848676340784457,0.03128523304369661,0.0055980977714489575
0.2462586,0.019111632676994648,0.0030484176657383914,0.022500449040694284,0.007352405044872827,0.021903963821084796,0.01792607483491424,0.031383232634177916,0.005629352817478267
0.2467241,0.019196664799987093,0.0031108788860494006,0.022438313516511342,0.007366787301194713,0.021845690184767626,0.018006140147376382,0.03148144400228606,0.005661987055233372
0.2471897,0.019282195064815655,0.0031747104317495596,0.022375086731586363,0.007381161922819484,0.02178796755708041,0.018088886186929616,0.0315798564629346,0.005696007034719013
0.2476552,0.019368211329280197,0.0032399179766027667,0.022310790943152532,0.007395526435661009,0.021730807097532466,0.018174326309515834,0.03167845923231948,0.005731418999394531
0.2481207,0.019454701062556503,0.003306506977382239,0.022245448798772185,0.007409878470795833,0.021674219972064163,0.018262473309903233,0.03177724142715103,0.005768228882713155
0.2485862,0.019541651345765642,0.0033744826700796266,0.02217908333002963,0.00742421576579604,0.021618217354406704,0.01835333941348089,0.03187619206383568,0.005806442304754723
0.2490517,0.019629048872694673,0.003443850066129317,0.022111717946064455,0.007438536166011061,0.021562810427412746,0.018446936268205785,0.031975300057612684,0.0058460645689529835
0.2495172,0.019716879950670382,0.003514613948648855,0.022043376426948737,0.007452837625797856,0.021508010384354386,0.018543274936702953,0.03207455422165077,0.00588710065891855
0.2499828,0.019805130501587935,0.0035867788686964074,0.021974082916911816,0.007467118209698848,0.02145382843018509,0.018642365888519523,0.03217394326611,0.005929555235358557
0.2504483,0.019893786063096483,0.003660349141546167,0.021903861917416275,0.007481376093566972,0.021400275782762136,0.018744218992532938,0.032273455797174035,0.005973432633094029
0.2509138,0.019982831789943752,0.0037353288429826104,0.02183273828008891,0.007495609565637149,0.021347363674026194,0.01884884350951376,0.03237308031605823,0.006018736858175947
0.2513793,0.02007225245548162,0.0038117218056144954,0.02176073719951056,0.007509817027543444,0.021295103351134697,0.018956248084843138,0.03247280521799867,0.006065471585100934
0.2518448,0.020162032453334543,0.003889531615209519,0.021687884205868584,0.007523996995281177,0.021243506077545608,0.019066440741384888,0.032572618791227484,0.006113640154127507
0.2523103,0.020252155799232795,0.003968761607050576,0.02161420515747596,0.007538148100113172,0.021192583134048117,0.019179428872512026,0.03267250921593944,0.006163245568693758
0.2527759,0.02034260613301222,0.004049414862314586,0.021539726233160854,0.007552269089419305,0.021142345819736837,0.019295219235287334,0.032772464563255076,0.006214290492937345
0.2532414,0.020433366720782147,0.004131494204474892,0.021464473924530575,0.0075663588274884576,0.021092805452926106,0.019413817943797446,0.03287247279418544,0.006266777249318622
0.2537069,0.02052442045726306,0.0042150021957282294,0.021388475028113866,0.007580416296251987,0.02104397337200091,0.019535230462639788,0.032972521758603886,0.006320707816347703
0.2541724,0.020615749868295338,0.0042999411334473225,0.021311756637385507,0.007594440595957735,0.020995860936200948,0.01965946160056148,0.03307259919423009,0.0063760838264162465
0.2546379,0.020707337113520404,0.0043863130466601265,0.021234346134677184,0.007608430945783565,0.02094847952633406,0.0197865155042492,0.033172692725631635,0.006432906563734673
0.2551034,0.02079916398923537,0.004474119692556766,0.021156271182978654,0.0076223866843893925,0.02090184054541528,0.01991639565226884,0.03327278986324851,0.0064911769623755555
0.255569,0.02089121193142239,0.004563362553025209,0.021077559717633348,0.007636307270406604,0.020855955419227662,0.020049104849153548,0.03337287800244564,0.006550895604423865
0.2560345,0.020983462018953767,0.004654042831216679,0.020998239937932473,0.007650192282863791,0.020810835596800754,0.020184645219638732,0.033472944422598405,0.006612062718234734
0.2565,0.02107589497697384,0.004746161448141799,0.020918340298611865,0.007664041421547669,0.0207664925508029,0.020323018203042352,0.033572976286215896,0.006674678176799371
0.2569655,0.0211684911804586,0.004839719039298415,0.020837889501255678,0.007677854507298107,0.02072293777784366,0.020464224547788873,0.03367296063810644,0.006738741496219724
0.257431,0.02126123065795391,0.004934715951332086,0.020756916485611142,0.007691631482236196,0.02068018279868309,0.020608264306075263,0.033772884404589504,0.00680425183429244
0.2578966,0.02135409309549303,0.005031152238730176,0.02067545042081853,0.007705372409924353,0.02063823915834507,0.020755136828677717,0.03387273439275801,0.006871207989202694
0.2583621,0.021447057840694183,0.005129027660550508,0.020593520696560428,0.0077190774754574846,0.020597118426132478,0.020904840759898104,0.03397249728979473,0.006939608398328417
0.2588276,0.021540103907038657,0.005228341677185536,0.02051115691413437,0.0077327469854842675,0.0205568321955424,0.02105737403264969,0.03407215966234628,0.0070094511371554275
0.2592931,0.02163320997832998,0.005329093447162975,0.02042838887745275,0.007746381368157687,0.020517392084079687,0.021212733863681995,0.034171707955958065,0.007080733918303992
0.2597586,0.021726354413334432,0.005431281823983821,0.02034524658397386,0.007759981173014057,0.020478809732967673,0.021370916748945045,0.03427112849457335,0.007153454090667258
0.2602241,0.021819515250603036,0.0055349053529986985,0.020261760215567835,0.007773547070779918,0.020441096806755064,0.021531918459093573,0.034370407480099514,0.007227608638661955
0.2606897,0.021912670213475146,0.005639962268323502,0.020177960129321024,0.00778707985310637,0.020404264992818468,0.02169573403513218,0.03446953099204441,0.00730319418159175
0.2611552,0.02200579671526333,0.005746450489795363,0.020093876848282264,0.007800580432230612,0.020368326000760485,0.021862357784202948,0.03456848498722561,0.007380206973123564
0.2616207,0.022098871864619334,0.005854367619970014,0.02000954105215438,0.007814049840564607,0.020333291561703475,0.022031783275517542,0.03466725529955489,0.007458642900877145
0.2620862,0.02219187247108067,0.00596371094116175,0.01992498356793418,0.007827489230210975,0.02029917342747945,0.02220400333643635,0.03476582763990025,0.007538497486128166
0.2625517,0.02228477505079725,0.006074477412527274,0.01984023536050408,0.007840899872406349,0.020265983369716543,0.022379010048697297,0.034864187596027454,0.007619765883625059
0.2630172,0.022377555832437477,0.006186663667194807,0.019755327523178656,0.00785428315689253,0.020233733178822825,0.022556794744797253,0.03496232063262286,0.007702442881519796
0.2634828,0.022470190763272987,0.006300266009439963,0.0196702912682094,0.0078676405912158,0.02020243466286856,0.022737348004529177,0.03506021209139912,0.0077865229014127115
0.2639483,0.022562655515441343,0.006415280411909998,0.019585157917250972,0.007880973799954782,0.020172099646368295,0.022920659651678218,0.035157847191285056,0.007871999998511472
0.2644138,0.02265492549238572,0.006531702512898117,0.019499958891792377,0.007894284523877264,0.02014273996896465,0.023106718750880013,0.035255211028700946,0.00795886786190426
0.2648793,0.022746975835470626,0.0066495276136696235,0.019414725703556384,0.007907574619026483,0.020114367484016134,0.0232955136046444,0.035352288577920145,0.008047119814947249
0.2653448,0.022838781430772528,0.006768750675841785,0.019329489944870562,0.007920846055737478,0.020086994057091367,0.023487031750547574,0.03544906469151821,0.008136748815766575
0.2658103,0.022930316916044097,0.0068893663188193625,0.01924428327901324,0.007934100917584284,0.020060631564372648,0.0236812599585958,0.035545524100910365,0.008227747457875035
0.2662759,0.023021556687850754,0.007011368817287827,0.01915913743053761,0.007947341400258923,0.020035291890971765,0.023878184228763887,0.035641651416978275,0.008320107970903873
0.2667414,0.023112474908877856,0.007134752098766319,0.019074084175577103,0.00796056981038329,0.020010986929161218,0.024077789788711928,0.03573743113078687,0.008413822221450056
0.2672069,0.02320304551540681,0.007259509741222421,0.01898915533213514,0.007973788564255213,0.019987728576524,0.024280061091684322,0.03583284761439174,0.008508881714039452
0.2676724,0.023293242224958228,0.007385634970750836,0.01890438275036216,0.007987000186530015,0.01996552873402506,0.024484981814595377,0.03592788512173754,0.008605277592206343
0.2681379,0.023383038544100187,0.007513120659318039,0.01881979830282298,0.008000207308838986,0.019944399304007498,0.02469253485630613,0.03602252778964726,0.008703000639689672
0.2686034,0.023472407776419495,0.007641959322574928,0.0187354338747574,0.008013412668346135,0.01992435218811635,0.024902702336097156,0.03611675963890228,0.008802041281746425
0.269069,0.02356132303065381,0.007772143117739539,0.018651321354337065,0.008026619106244621,0.019905399285152735,0.025115465592342182,0.036210564575412746,0.008902389586582493
0.2695345,0.023649757228982455,0.007903663841551894,0.018567492622921684,0.008039829566194272,0.019887552488860965,0.025330805181387462,0.03630392639147788,0.009004035266901272
0.27,0.023737683115473602,0.008036512928303029,0.018483979545317664,0.008053047092701514,0.01987082368565117,0.02554870087664196,0.036396828767135785,0.009106967681570276
0.2704655,0.0238250732646854,0.008170681447940295,0.018400813960042266,0.008066274829443101,0.01985522475225979,0.025769131667883343,0.036489255271602766,0.009211175837405895
0.270931,0.023911900090418454,0.008306160104251066,0.018318027669596407,0.008079516017534956,0.019840767553350323,0.025992075760784862,0.036581189364802195,0.0093166483910764
0.2713966,0.023998135854616885,0.008442939233126952,0.0182356524307491,0.008092773993747452,0.01982746393905677,0.0262175105766681,0.03667261439898327,0.009423373651123295
0.2718621,0.024083752676415045,0.008581008800910723,0.018153719944836534,0.008106052188668464,0.019815325742472162,0.026445412752486415,0.03676351362043016,0.009531339580101068
0.2723276,0.024168722541326744,0.008720358402828119,0.018072261848078544,0.008119354124815589,0.01980436477708469,0.02667575814104382,0.03685387017126185,0.009640533796835419
0.2727931,0.02425301731057369,0.008860977261506761,0.01799130970191527,0.008132683414698888,0.019794592834163807,0.02690852181145409,0.036943667091322976,0.009750943578799959
0.2732586,0.024336608730549856,0.0090028542255844,0.017910894983366548,0.008146043758835552,0.01978602168009882,0.027143678049844563,0.03703288732016619,0.009862555864611409
0.2737241,0.02441946844241825,0.009145977768408723,0.01783104907541648,0.008159438943717895,0.019778663053692146,0.027381200360309055,0.037121513699126245,0.009975357256643239
0.2741897,0.024501567991836594,0.009290335986830975,0.01775180325742552,0.008172872839736105,0.01977252866340955,0.027621061466114087,0.03720952897348639,0.010089334023757666
0.2746552,0.024582878838808324,0.0094359166000956,0.01767318869557235,0.008186349399057201,0.019767630184589286,0.027863233311162427,0.03729691579473744,0.01020447210415588
0.2751207,0.024663372367655204,0.009582706948828165,0.017595236433327725,0.008199872653461721,0.019763979256612142,0.028107687061717714,0.03738365672292983,0.010320757108346297
0.2755862,0.02474301989710793,0.009730693994123728,0.017517977381962476,0.008213446712139635,0.019761587480034204,0.028354393108393838,0.03746973422911886,0.010438174322230664
0.2760517,0.02482179269051087,0.009879864316737878,0.01744144231109184,0.008227075759447079,0.0197604664136841,0.028603321068412464,0.0375551306979037,0.01055670871030767
0.2765172,0.024899661966137136,0.010030204116382568,0.01736566183925823,0.008240764052625527,0.01976062757172645,0.028854439788131882,0.037639828430060335,0.010676344918993778
0.2769828,0.02497659890761031,0.010181699211128933,0.017290666424554516,0.008254515919485169,0.019762082420693168,0.02910771734585023,0.03772380964526907,0.010797067280060814
0.2774483,0.025052574674429097,0.010334335036919162,0.017216486355289863,0.008268335756054393,0.019764842376484314,0.029363121054885987,0.03780705648493751,0.010918859814189863
0.2779138,0.025127560412591357,0.01048809664718956,0.0171431517407,0.00828222802419737,0.019768918801340143,0.02962061746693837,0.03788955101512041,0.011041706234640895
0.2783793,0.025201527265313876,0.01064296871260684,0.017070692501703837,0.008296197249201843,0.01977432300078593,0.029880172375730086,0.03797127522953836,0.011165589951037485
0.2788448,0.025274446383844264,0.010798935520919725,0.016999138361708147,0.008310248017339253,0.019781066220551105,0.030141750820934836,0.03805221105269772,0.011290494073265963
0.2793103,0.025346288938361213,0.01095598097692776,0.01692851883746205,0.008324384973399337,0.019789159643464074,0.030405317092391543,0.038132340343114406,0.011416401415488163
0.2797759,0.025417026128959363,0.011114088602569277,0.016858863229963116,0.008338612818201292,0.019798614386323993,0.030670834734607286,0.03821164489664424,0.011543294500266952
0.2802414,0.02548662919671491,0.011273241537130314,0.016790200615416685,0.008352936306083556,0.01980944149675062,0.030938266551550502,0.03829010644992256,0.011671155562803608
0.2807069,0.02555506943482798,0.01143342253757622,0.016722559836250275,0.008367360242374224,0.019821651950013223,0.031207574611735886,0.03836770668391557,0.011799966555286017
0.2811724,0.025622318199837804,0.0115946139790076,0.016655969492184775,0.008381889480844076,0.019835256645839423,0.03147872025360216,0.0384444272275858,0.011929709151346666
0.2816379,0.02568834692290656,0.011756797855242107,0.016590457931364086,0.008396528921144142,0.0198502664052047,0.03175166409118361,0.03852024966167399,0.01206036475062924
0.2821034,0.02575312712116779,0.011919955779523594,0.016526053241544797,0.008411283506229687,0.019866691967103195,0.03202636602007605,0.03859515552259932,0.012191914483462605
0.282569,0.02581663040913504,0.012084068985359974,0.016462783241347468,0.008426158219772469,0.019884543985300256,0.03230278522369766,0.0386691263064798,0.012324339215640887
0.2830345,0.025878828510166218,0.012249118327491083,0.016400675471570883,0.008441158083563065,0.019903833025067114,0.03258088017984477,0.03874214347327431,0.012457619553308201
0.2835,0.02593969326797901,0.012415084282987812,0.01633975718657067,0.008456288154905026,0.01992456955989794,0.03286060866754278,0.03881418845104743,0.012591735847946579
0.2839655,0.02599919665821259,0.012581946952483684,0.016280055345703547,0.008471553524002513,0.0199467639682095,0.033141927774191775,0.038885242640357955,0.012726668201465476
0.284431,0.02605731080003073,0.01274968606153997,0.01622159660483844,0.008486959311343103,0.019970426530023535,0.033424793903006594,0.03895528741877172,0.012862396471391235
0.2848966,0.026114007967761265,0.012918280962145453,0.016164407307935665,0.008502510665077338,0.019995567423632014,0.033709162780750625,0.03902430414549919,0.01299890027615474
0.2853621,0.0261692606025669,0.01308771063435184,0.016108513478695328,0.008518212758396598,0.02002219672224548,0.03399498946576279,0.03909227416615818,0.013136159000475552
0.2858276,0.026223041324142316,0.01325795368804579,0.016053940812276242,0.008534070786910757,0.020050324390624666,0.03428222835627703,0.039159178817661656,0.013274151800840723
0.2862931,0.026275322942432594,0.01342898836485844,0.0160007146670865,0.008550089966027099,0.020079960281695675,0.03457083319903351,0.03922499943323074,0.013412857611076613
0.2867586,0.026326078469367898,0.013600792540213335,0.015948860056647078,0.008566275528331892,0.020111114133149078,0.03486075709818119,0.03928971734753247,0.013552255148012098
0.2872241,0.026375281130609517,0.013773343725513474,0.01589840164152989,0.008582632720975973,0.020143795564023216,0.03515195252447114,0.03935331390194193,0.013692322917231787
0.2876897,0.02642290437730215,0.01394661907046824,0.01584936372137189,0.008599166803065704,0.020178014071272128,0.03544437132474026,0.03941577044992787,0.01383303921891792
0.2881552,0.02646892189782731,0.014120595365560809,0.015801770226966855,0.00861588304306059,0.020213779026318657,0.03573796473168465,0.03947706836256086,0.01397438215377976
0.2886207,0.026513307629552556,0.014295249044656613,0.015755644712436748,0.008632786716178831,0.020251099671593473,0.03603268337392193,0.03953718903414276,0.014116329629069264
0.2890862,0.02655603577057107,0.01447055618775331,0.01571101034748456,0.008649883101812125,0.02028998511706114,0.036328477286341504,0.039596113887955905,0.014258859364681834
0.2895517,0.026597080791425986,0.014646492523872717,0.015667889909730535,0.008667177480950982,0.020330444336734508,0.036625295920741915,0.039653824382130484,0.01440194889934093
0.2900172,0.026636417446813682,0.014823033434095056,0.015626305777133778,0.008684675133621842,0.020372486165178925,0.036923088156754075,0.03971030201562792,0.01454557559686531
0.2904828,0.02667402078725999,0.015000153954736016,0.015586279920501062,0.008702381336337243,0.020416119294007686,0.03722180231304901,0.03976552833433819,0.0146897166525177
0.2909483,0.026709866170763322,0.015177828780667015,0.015547833896084646,0.00872030135956027,0.02046135226837015,0.03752138615882852,0.03981948493728879,0.014834349099433592
0.2914138,0.02674392927439843,0.015356032268779171,0.015510988838270822,0.008738440465184428,0.020508193483433825,0.037821786925597047,0.03987215348296278,0.014979449815128906
0.2918793,0.026776186105874525,0.015534738441591488,0.015475765452360808,0.008756803904030086,0.020556651180861613,0.038122951319212714,0.039923515695723326,0.015124995528085125
0.2923448,0.026806613015041118,0.01571392099100365,0.015442184007445547,0.008775396913358558,0.020606733445285345,0.03842482553221529,0.03997355337234202,0.015270962824410437
0.2928103,0.026835186705334982,0.01589355328219385,0.015410264329375844,0.008794224714404874,0.020658448200776485,0.038727355256428765,0.04002224838862806,0.01541732815457543
0.2932759,0.026861884245161265,0.016073608357661924,0.01538002579382924,0.008813292509930216,0.020711803207314892,0.039030485695835934,0.04006958270615522,0.015564067840221655
0.2937414,0.026886683079201605,0.01625405894141795,0.015351487319474957,0.008832605481794998,0.02076680605725644,0.03933416157972217,0.04011553837908364,0.015711158081041482
0.2942069,0.02690956103964199,0.016434877443316388,0.015324667361238126,0.008852168788553449,0.02082346417180021,0.03963832717608535,0.04016009756107331,0.015858574961727455
0.2946724,0.026930496357312782,0.016616035963535745,0.01529958390366449,0.00887198756307056,0.020881784797456008,0.03994292630530861,0.04020324251228595,0.01600629445898934
0.2951379,0.02694946767273326,0.016797506297203633,0.015276254454386738,0.008892066910162194,0.020941775002512986,0.04024790235409233,0.040244955606471934,0.016154292448636923
0.2956034,0.02696645404705292,0.01697925993916705,0.015254696037693657,0.008912411904259112,0.021003441673510016,0.04055319828964131,0.040285219338138674,0.01630254471272653
0.296069,0.026981434972881774,0.01716126808890766,0.015234925188203276,0.008933027587095674,0.021066791511708552,0.04085875667410304,0.040324016329796424,0.01645102694676911
0.2965345,0.026994390385001822,0.017343501655601775,0.01521695794464128,0.00895391896542389,0.021131831029568473,0.04116451967925243,0.04036132933927733,0.016599714766997696
0.297,0.027005300670951922,0.01752593126332467,0.015200809843726007,0.008975091008753506,0.02119856654722748,0.04147042910141817,0.04039714126712329,0.016748583717691768
0.2974655,0.027014146681478206,0.017708527256398814,0.015186495914161487,0.008996548647118694,0.021267004188984532,0.04177642637664553,0.04043143516403802,0.01689760927855619
0.297931,0.0270209097408424,0.01789125970488559,0.015174030670740087,0.009018296768871926,0.021337149879787676,0.042082452596090086,0.04046419423839849,0.017046766872152105
0.2983966,0.02702557165698058,0.018074098410219938,0.015163428108556486,0.009040340218505504,0.021409009341726713,0.04238844852163664,0.040495401863820876,0.0171960318713773
0.2988621,0.027028114731505154,0.018257012910987396,0.015154701697334834,0.009062683794501154,0.021482588090531,0.04269435460173744,0.0405250415867761,0.017345379606993474
0.2993276,0.0270285217695433,0.01843997248884302,0.015147864375871048,0.009085332247208037,0.021557891432072814,0.04300011098746368,0.04055309713425021,0.017494785375197924
0.2997931,0.0270267760894052,0.01862294617457169,0.01514292854659241,0.009108290276749458,0.021634924458876523,0.043305657548764205,0.04057955242144526,0.017644224445237184
0.3002586,0.027022861532075605,0.01880590275428939,0.015139906070236731,0.009131562530958481,0.02171369204663386,0.04361093389092506,0.04060439155951651,0.017793672067060222
0.3007241,0.027016762470522104,0.018988810775785125,0.015138808260653478,0.009155153603342608,0.021794198850725508,0.043915879371223765,0.04062759886334201,0.01794310347900893
0.3011897,0.027008463818813472,0.019171638555002975,0.015139645879729319,0.009179068031077646,0.021876449302749193,0.044220433115771486,0.040649158859320536,0.018092493915543705
0.3016552,0.02699795104104132,0.01935435418266394,0.015142429132440615,0.009203310293030845,0.02196044760705464,0.04452453403653626,0.04066905629319397,0.018241818615001876
0.3021207,0.026985210160038266,0.019536925531027108,0.015147167662035407,0.009227884807813353,0.02204619773728574,0.04482812084853999,0.04068727613788974,0.018391052827386897
0.3025862,0.026970227765885632,0.019719320260789812,0.015153870545347415,0.00925279593186197,0.022133703432930377,0.04513113208722195,0.04070380360137912,0.018540171822185862
0.3030517,0.02695299102420376,0.019901505828126494,0.015162546288244486,0.009278047957550205,0.022222968195878476,0.04543350612596092,0.04071862413454727,0.01868915089621302
0.3035172,0.026933487684217956,0.020083449491866016,0.01517320282121397,0.00930364511132848,0.02231399528698886,0.04573518119374798,0.040731723439071055,0.018837965381476713
0.3039828,0.026911706086593188,0.02026511832080724,0.01518584749508731,0.009329591551893337,0.02240678772266554,0.04603609539300202,0.04074308747530058,0.018986590653067167
0.3044483,0.026887635171030648,0.020446479201172745,0.015200487076906152,0.009355891368385407,0.022501348271443945,0.04633618671751939,0.04075270247014087,0.019135002137062325
0.3049138,0.026861264483619467,0.020627498844200436,0.015217127745932098,0.009382548578615828,0.02259767945058773,0.04663539307054933,0.04076055492492985,0.01928317531844893
0.3053793,0.02683258418393687,0.020808143793872788,0.015235775089802145,0.009409567127320752,0.02269578352269663,0.04693365228298637,0.040766631623309034,0.01943108574905585
0.3058448,0.026801585051890144,0.020988380434783252,0.015256434100831728,0.00943695088444355,0.022795662492325897,0.04723090213167119,0.04077091963908339,0.01957870905549652
0.3063103,0.026768258494293838,0.021168175000139317,0.015279109172467178,0.009464703643444249,0.022897318102618046,0.04752708035779067,0.0407734063440672,0.019726020947117295
0.3067759,0.026732596551175408,0.021347493579901435,0.015303804095889346,0.009492829119635754,0.023000751831947684,0.04782212468536818,0.04077407941591277,0.019872997223948308
0.3072414,0.026694591901802584,0.021526302129057075,0.015330522056770013,0.009521330948546323,0.02310596489058026,0.04811597283983507,0.040772926845919134,0.020019613784653414
0.3077069,0.026654237870425687,0.02170456647602884,0.01535926563218269,0.00955021268430779,0.023212958217345713,0.048408562566674244,0.04076993694681804,0.02016584663447564
0.3081724,0.026611528431728208,0.021882252331215497,0.015390036787669287,0.009579477798068906,0.02332173247632807,0.048699831650127055,0.0407650983605342,0.020311671893174465
0.3086379,0.02656645821597923,0.022059325295664747,0.01542283687446426,0.009609129676433166,0.023432288053571854,0.04898971793195513,0.040758400065916925,0.02045706580295124
0.3091034,0.026519022513881864,0.022235750869876336,0.015457666626877871,0.009639171619920455,0.023544625053806396,0.04927815933024921,0.040749831386440005,0.02060200473635901
0.309569,0.02646921728111285,0.022411494462734143,0.015494526159840405,0.00966960684145184,0.023658743297188898,0.04956509385827747,0.040739381997866586,0.020746465204193047
0.3100345,0.026417039142549448,0.022586521400566013,0.01553341496660948,0.009700438464856836,0.023774642316067424,0.049850459643366346,0.040727041935875695,0.02089042386335869
0.3105,0.026362485396180985,0.022760796936329954,0.015574331916642653,0.009731669523402651,0.023892321351764917,0.050134194945807425,0.040712801603646986,0.021033857524713262
0.3109655,0.026305554016703425,0.022934286258925456,0.015617275253637805,0.009763302958344927,0.024011779351385324,0.05041623817778472,0.04069665177940006,0.021176743160879207
0.311431,0.02624624365879597,0.02310695450262863,0.015662242593743846,0.009795341617499686,0.024133014964642967,0.05069652792231788,0.04067858362388467,0.021319057914025757
0.3118966,0.02618455366007929,0.023278766756649888,0.015709230923944318,0.009827788253836327,0.024256026540716104,0.050975002952217144,0.04065858868781793,0.021460779103616746
0.3123621,0.026120484043755218,0.023449688074812715,0.01575823660061661,0.00986064552409159,0.024380812125125568,0.05125160224904675,0.04063665891926469,0.0216018842341224
0.3128276,0.026054035520928283,0.023619683485352014,0.015809255348269408,0.009893915987404512,0.02450736945663927,0.051526265022093204,0.04061278667095718,0.021742351002693176
0.3132931,0.025985209492609754,0.023788718000830326,0.0158622822584611,0.009927602103972517,0.024635695964203532,0.05179893072733522,0.040586964707549855,0.021882157306793958
0.3137586,0.025914008051405563,0.023956756628170057,0.01591731178890184,0.00996170623372888,0.024765788763902435,0.05206953908641191,0.04055918621280534,0.022021281251796778
0.3142241,0.025840433982889807,0.02412376437879976,0.01597433776274185,0.009996230635041937,0.02489764465594662,0.05233803010558609,0.04052944479670686,0.022159701158530328
0.3146897,0.025764490766665923,0.024289706278912346,0.016033353368048668,0.010031177463436453,0.025031260121693138,0.05260434409469924,0.04049773450249258,0.02229739557078422
0.3151552,0.025686182577117928,0.024454547379832856,0.01609435115747573,0.010066548770337597,0.025166631320698088,0.05286842168611443,0.040464049813606934,0.02243434326276594
