Time,Rectus Femoris right,Rectus Femoris left,Hamstrings right,Hamstrings left,TibilaisÂ Anterior right,TibilaisÂ Anterior left,Gastrocnemius right,Gastrocnemius left
0.0,-0.002968139514814422,-0.004565756114436798,-0.005142057276750718,0.0018550211562219374,0.008176422133912965,0.009921615114084837,0.0045215726469297534,0.003587261926111794
0.0004655,-0.00282390527685748,-0.0042991773652782,-0.004845421310015422,0.0019672272877675964,0.008273679725624572,0.01044590249592366,0.004625569971017168,0.004008899941713812
0.000931,-0.0026799499660683963,-0.00403329166239823,-0.00454882672343863,0.0020794750158113903,0.008370873766542284,0.010969708127192697,0.004729885756581488,0.004430345088001022
0.0013966,-0.0025362941419040086,-0.0037681366457125776,-0.004252308471839996,0.0021917513294399346,0.008467989495122445,0.011492961380460647,0.004834506714274793,0.00485154291194359
0.0018621,-0.002392958320628676,-0.0035037497927694287,-0.00395590143670132,0.0023040432321974258,0.008565012131555055,0.01201559172358503,0.004939419445566697,0.0052724390366488474
0.0023276,-0.0022499629695498548,-0.0032401684072542202,-0.0036596404153353117,0.0024163377461176136,0.00866192688211411,0.012537528740630693,0.005044610446193876,0.0056929791784638825
0.0027931,-0.00210732850128613,-0.0029774296075872455,-0.003363560110124853,0.0025286219157275498,0.008758718943517343,0.013058702152653829,0.005150066109662369,0.006113109164012822
0.0032586,-0.001965075268071006,-0.0027155703156216855,-0.0030676951178409797,0.002640882812018917,0.00885537350729215,0.013579041838332296,0.005255772730801302,0.006532774947155854
0.0037241,-0.0018232235560957102,-0.0024546272454493505,-0.002772079919047636,0.0027531075363828386,0.00895187576414441,0.014098477854424456,0.0053617165093666165,0.006951922625857337
0.0041897,-0.0016817935798942361,-0.0021946368923210302,-0.0024767488676010097,0.002865283224504232,0.009048210908326918,0.014616940456039966,0.005467883553693363,0.007370498458950736
0.0046552,-0.001540805476773791,-0.0019356355216879517,-0.0021817361802510117,0.0029773970502120083,0.009144364142004141,0.015134360116706932,0.005574259884395135,0.007788448882788452
0.0051207,-0.001400279301293782,-0.0016776591583705278,-0.0018870759263521551,0.0030894362292816667,0.00924032067960997,0.01565066754822057,0.005680831438109154,0.008205720527764894
0.0055862,-0.0012602350197964405,-0.0014207435758603372,-0.0015928020176907592,0.003201388023187071,0.009336065752195193,0.01616579372025932,0.005787584071285502,0.008622260234701605
0.0060517,-0.001120692504992129,-0.0011649242857611007,-0.0012989481984350313,0.003313239742798385,0.009431584611761419,0.01667966987975507,0.005894503564018998,0.009038015071083818
0.0065172,-0.0009816715306023406,-0.0009102365273742785,-0.0010055480352141979,0.0034249787520232713,0.00952686253557816,0.017192227570004912,0.006001575623922161,0.009452932347138553
0.0069828,-0.0008431917660633412,-0.0006567152574347611,-0.0007126349073324522,0.003536592471388576,0.009621884830479741,0.017703398649512578,0.006108785890037703,0.00986695963174512
0.0074483,-0.0007052727712933475,-0.0004043951400019429,-0.00042024199712311353,0.0036480683815597846,0.009716636837138705,0.0182131153105482,0.0062161199367889485,0.010280044768169636
0.0079138,-0.0005679339915260699,-0.00015331053651123115,-0.00012840228044801166,0.003759394026795637,0.009811103934312287,0.01872131009741544,0.006323563277966582,0.010692135889615767
0.0083793,-0.00043119475221332915,9.650450400925307e-05,0.00016285148265322708,0.003870557018335331,0.009905271543058486,0.019227915924415476,0.006431101370750041,0.011103181434584362
0.0088448,-0.0002950742539992939,0.00034501625455235317,0.00045348675715964516,0.003981545037715812,0.009999125130918215,0.019732866093497684,0.006538719619761888,0.011513130162035135
0.0093103,-0.00015959156776866438,0.0005921913195718441,0.0007434712421071542,0.004092345840016663,0.010092650216059935,0.020236094311587436,0.006646403381153421,0.011921931166343864
0.0097759,-2.4765629770875048e-05,0.0008379966442449011,0.0010327728794647722,0.004202947257030141,0.010185832371383112,0.020737534707581905,0.006754137966719756,0.01232953389204895
0.0102414,0.00010938476317787342,0.0010823995235535334,0.0013213598628455164,0.004313337200353907,0.010278657228576894,0.021237121849005457,0.006861908648042587,0.012735888148381428
0.0107069,0.00024284095841317873,0.0013253676111816468,0.0016092006460488764,0.004423503664403991,0.010371110482130456,0.0217347907583168,0.00696970066065875,0.0131409441235728
0.0111724,0.000375584452060224,0.001566868928224558,0.0018962639514320848,0.004533434729345573,0.010463177893291613,0.022230476928860682,0.007077499208252658,0.013544652398935266
0.0116379,0.0005075968935895619,0.001806871871707924,0.002182518778107681,0.004643118563939159,0.01055484529397039,0.022724116340457658,0.007185289466870685,0.013946963962709325
0.0121034,0.000638860090289778,0.0020453452229131715,0.0024679344099651362,0.004752543428299768,0.010646098590584548,0.023215645474626113,0.007293056589155435,0.014347830223673934
0.012569,0.0007693560116559976,0.002282258155506673,0.002752480423514563,0.0048616976765667305,0.0107369237678441,0.023705001329431652,0.007400785708597847,0.01474720302451475
0.0130345,0.0008990667936932862,0.0025175802434701067,0.003036126695550792,0.004970569759481772,0.01082730689247204,0.024192121433959646,0.007508461943804982,0.01514503465494614
0.0135,0.0010279747431341149,0.0027512814688296717,0.0033188434106363202,0.005079148226873093,0.010917234116858621,0.024676943862407662,0.007616070402781282,0.015541277864582785
0.0139655,0.0011560623415692122,0.0029833322291820488,0.0036006010684018707,0.005187421730043301,0.011006691682646503,0.02515940724779522,0.007723596187221068,0.015935885875556964
0.014431,0.0012833122494913271,0.003213703345015143,0.0038813704906635036,0.005295379024059279,0.011095665924244243,0.025639450795289048,0.007831024396809978,0.01632881239487799
0.0148966,0.0014097073102516454,0.003442366066821733,0.004161122828355387,0.00540300896994231,0.011184143272265464,0.026117014295142568,0.007938340133533001,0.016720011626530397
0.0153621,0.0015352305539288343,0.0036692920820042083,0.004439829568277486,0.005510300536757154,0.011272110256891127,0.0265920381352488,0.008045528505986796,0.017109438283307948
0.0158276,0.0016598652011108983,0.003894453521568618,0.004717462539657521,0.005617242803599039,0.011359553511152287,0.027064463313306492,0.008152574633693973,0.017497047598380732
0.0162931,0.0017835946665901816,0.004117822966606332,0.004993993920526613,0.005723824961477829,0.01144645977413078,0.027534231448600253,0.00825946365141706,0.01788279533659314
0.0167586,0.0019064025629719427,0.004339373454561737,0.005269396243908065,0.005830036315098933,0.011532815894075333,0.028001284793396516,0.008366180713469841,0.018266637805490864
0.0172241,0.0020282727041969774,0.004559078485284676,0.005543642403818766,0.005935866284540688,0.01161860883143083,0.028465566243958133,0.008472710998023785,0.01864853186607542
0.0176897,0.002149189108978768,0.004776912026866619,0.005816705661082632,0.006041304406828142,0.011703825661778596,0.028927019351181187,0.008579039711407265,0.01902843494328484
0.0181552,0.0022691360041556226,0.004992848521259966,0.006088559648955548,0.006146340337403309,0.011788453578685828,0.02938558833085793,0.00868515209239524,0.019406305036199376
0.0186207,0.0023880978279582654,0.005206862889680296,0.006359178378561218,0.006250963851492064,0.011872479896462403,0.029841218073570135,0.008791033416486996,0.019782100727971035
0.0190862,0.00250605923319331,0.005418930537791716,0.006628536244137349,0.006355164845368092,0.011955892052823611,0.030293854154217162,0.008896669000169648,0.02015578119547593
0.0195517,0.0026230050903430506,0.00562902736067586,0.006896608028091586,0.006458933337514605,0.0120386776114575,0.03074344284118295,0.009002044205165094,0.020527306218688323
0.0200172,0.00273892049058199,0.005837129747585354,0.007163368905866646,0.006562259469684945,0.01212082426449578,0.031189931105146326,0.009107144442658179,0.02089663618977528
0.0204828,0.0028537907487105186,0.006043214586482844,0.007428794450614118,0.006665133507863723,0.01220231983488753,0.03163326662753885,0.009211955177503887,0.021263732121910836
0.0209483,0.0029676014060061678,0.006247259268366863,0.007692860637676413,0.006767545843130473,0.01228315227867516,0.032073397808654446,0.009316461932411466,0.021628555657808635
0.0214138,0.003080338232992884,0.006449241691385985,0.007955543848876407,0.006869486992428179,0.012363309687172298,0.03251027377541531,0.00942065029210339,0.02199106907797219
0.0218793,0.003191987232128799,0.006649140264742852,0.008216820876614335,0.00697094759923913,0.012442780289043505,0.032943844388798306,0.009524505907447233,0.022351235308662093
0.0223448,0.0033025346404130353,0.006846933912389792,0.008476668927771526,0.00707191843417069,0.012521552452286021,0.033374060250926256,0.009628014499558512,0.022709017929579484
0.0228103,0.003411966931912132,0.007042602076517836,0.00873506562742066,0.007172390395453572,0.012599614686114174,0.03380087271182829,0.009731161863872628,0.023064381181265442
0.0232759,0.0035202708202067257,0.007236124720841029,0.008991989022342233,0.007272354509355256,0.012676955642747498,0.0342242338758736,0.009833933874184082,0.023417289972215996
0.0237414,0.0036274332607591597,0.00742748233367798,0.00924741758434698,0.0073718019305111975,0.01275356411910395,0.0346440966078825,0.009936316486651078,0.02376770988571254
0.0242069,0.0037334414532027376,0.007616655930832647,0.009501330213404087,0.007470723942176384,0.012829429058399781,0.03506041453891882,0.010038295743763703,0.024115607186367485
0.0246724,0.003838282843553406,0.007803627058276343,0.00975370624057507,0.007569111956399829,0.012904539551657697,0.035473142071767425,0.010139857778273732,0.024460948826384967
0.0251379,0.0039419451263446835,0.00798837779463295,0.010004525430753284,0.007666957514124516,0.01297888483912491,0.0358822343861009,0.010240988817084103,0.024803702451536503
0.0256034,0.004044416246686704,0.00817089075346934,0.010253767985209092,0.0077642522852152795,0.013052454311602684,0.03628764744333967,0.010341675185096056,0.025143836406851694
0.026069,0.004145684402250251,0.008351149085393094,0.010501414543940808,0.007860988068417075,0.013125237511689009,0.03668933799121029,0.010441903309011923,0.02548131974202454
0.0265345,0.004245738045176621,0.008529136479959539,0.010747446187831654,0.007957156791246039,0.013197224134936103,0.037087263568007296,0.010541659721091567,0.02581612221653629
0.027,0.004344565883914173,0.00870483716739028,0.010991844440612998,0.008052750509815725,0.013268404030924575,0.037481382506564305,0.010640931062860607,0.0261482143044962
0.0274655,0.0044421568849823375,0.008878235920105285,0.011234591270634243,0.008147761408600842,0.013338767204256138,0.03787165393794035,0.010739704088768608,0.026477567199201798
0.027931,0.004538500274663889,0.009049318054070634,0.011475669092439777,0.00824218180014076,0.013408303815466824,0.038258037794827636,0.010837965669795568,0.026804152817420435
0.0283966,0.004633585540626207,0.00921806942996404,0.011715060768153535,0.008336004124685024,0.013477004181862635,0.03864049481468665,0.010935702797005063,0.027127943803393936
0.0288621,0.0047274024334722576,0.00938447645416025,0.01195274960867182,0.008429220949783009,0.013544858778279604,0.03901898654261443,0.011032902585042425,0.02744891353256831
0.0293276,0.004819940968221966,0.00954852607953843,0.01218871937466532,0.00852182496981982,0.013611858237770185,0.039393475333951836,0.011129552275576332,0.027767036115050717
0.0297931,0.004911191425724642,0.00971020580611362,0.01242295427739146,0.008613809005500477,0.013677993352217937,0.03976392435663532,0.01122563924068228,0.028082286398795786
0.0302586,0.005001144354003064,0.009869503681494252,0.012655438979318553,0.008705166003284344,0.013743255072882385,0.040130297593298773,0.011321150986166352,0.028394639972523603
0.0307241,0.005089790569529839,0.010026408301167671,0.012886158594563513,0.008795889034771754,0.013807634510875978,0.04049255984313093,0.011416075154827813,0.028704073168371622
0.0311897,0.005177121158436586,0.010180908808615571,0.013115098689145146,0.008885971296044714,0.013871122937575076,0.04085067672349373,0.01151039952965913,0.029010563064282558
0.0316552,0.005263127477656499,0.010332994895261153,0.013342245281055277,0.008975406106963495,0.013933711784966803,0.04120461467130699,0.011604112036982013,0.029314087486130277
0.0321207,0.005347801156000867,0.010482656800249904,0.013567584840150077,0.009064186910420937,0.013995392645933599,0.04155434094420435,0.011697200749518117,0.029614625009585633
0.0325862,0.0054311340951700765,0.010629885310065883,0.013791104287863983,0.009152307271556167,0.014056157274477265,0.041899823621465625,0.011789653889393119,0.029912154961723975
0.0330517,0.005513118470699675,0.010774671757985542,0.01401279099674871,0.009239760876929463,0.014115997585884206,0.042241031604730264,0.011881459831072888,0.03020665742237599
0.0335172,0.005593746732842081,0.010917008023371273,0.014232632789839808,0.00932654153365992,0.014174905656833506,0.042577934618496606,0.011972607104230574,0.030498113225223562
0.0339828,0.005673011607384558,0.011056886530806947,0.014450617939853302,0.009412643168527605,0.014232873725449595,0.042910503210411434,0.012063084396543522,0.03078650395864253
0.0344483,0.00575090609640411,0.011194300249077778,0.01466673516821499,0.009498059827041891,0.014289894191301226,0.04323870875135404,0.012152880556419169,0.031071811966294244
0.0349138,0.005827423478960006,0.01132924268999694,0.014880973643925013,0.009582785672477718,0.014345959615348658,0.043562523435318905,0.012241984595649123,0.0313540203474683
0.0353793,0.005902557311724732,0.011461707907081398,0.015093322982260215,0.009666814984881518,0.014401062719841089,0.0438819202791008,0.01233038569199081,0.03163311295717884
0.0358448,0.0059763014295542375,0.01159169049407944,0.015303773243317062,0.009750142160048575,0.014455196388166494,0.04419687312178598,0.012418073191676008,0.031909074406017084
0.0363103,0.006048649945998422,0.011719185583352481,0.015512314930397812,0.009832761708473527,0.014508353664656179,0.044507356624052724,0.012505036611845644,0.0321818900597628
0.0367759,0.006119597253752887,0.011844188844113751,0.015718938988242847,0.009914668254275665,0.014560527754346467,0.04481334626728448,0.012591265642910018,0.032451546038757495
0.0372414,0.006189138025053015,0.011966696480526522,0.01592363680111223,0.009995856534100641,0.014611712022700028,0.04511481835249863,0.01267675015083373,0.032718029217042574
0.0377069,0.006257267212011475,0.012086705229664494,0.016126400190719616,0.010076321396000102,0.01466189999528946,0.04541174999909356,0.012761480179344475,0.032981327221265754
0.0381724,0.006323980046900292,0.012204212359336934,0.01632722141402173,0.01015605779829071,0.014711085357445796,0.04570411914341692,0.012845445952064804,0.033241428429359995
0.0386379,0.006389272042378603,0.012319215665781123,0.016526093160866673,0.010235060808393969,0.014759261953874713,0.04599190453715762,0.012928637874566013,0.03349832196899914
0.0391034,0.0064531389916671995,0.012431713471224562,0.016723008551504437,0.01031332560165812,0.014806423788243175,0.04627508574556419,0.013011046536343374,0.033751997715834696
0.039569,0.006515576968670971,0.01254170462131929,0.01691796113396312,0.010390847460163407,0.014852565022739373,0.04655364314549209,0.013092662712711938,0.03400244629151848
0.0400345,0.0065765823280503006,0.012649188482450596,0.0171109448812945,0.010467621771511868,0.014897679977608703,0.046827557923282054,0.013173477366622336,0.034249659061516106
0.0405,0.006636151705242434,0.012754164938922289,0.0173019541886927,0.010543644027602807,0.01494176313066854,0.047096812072471815,0.01325348165039621,0.03449362813271627
0.0409655,0.006694282016433813,0.012856634390020672,0.017490983870489692,0.010618909823395035,0.014984809116804457,0.047361388391343164,0.013332666907381078,0.0347343463508412
0.041431,0.006750970458484323,0.012956597746959191,0.017678029157031212,0.01069341485565702,0.015026812727450442,0.04762127048030637,0.013411024673524516,0.034971807297663256
0.0418966,0.006806214508804388,0.013054056429705812,0.017863085691436766,0.010767154921706015,0.015067768910055611,0.047876442739124045,0.013488546678867725,0.03520600528803261
0.0423621,0.006860011925185828,0.013149012363695088,0.018046149526247134,0.01084012591813731,0.015107672767539824,0.048126890363976264,0.013565224848958588,0.03543693536672111
0.0428276,0.006912360745587381,0.013241467976426932,0.018227217119963012,0.010912323839544696,0.015146519557740616,0.048372599344369376,0.013641051306184431,0.03566459330508669
0.0432931,0.006963259287875766,0.013331426193954084,0.018406285333478434,0.010983744777233274,0.01518430469285374,0.048613556459890496,0.01371601837102478,0.035888975597562905
0.0437586,0.0070127061495231366,0.01341889043726017,0.018583351426412768,0.011054384917925729,0.015221023738869676,0.0488497492768098,0.013790118563224348,0.036110079457977416
0.0442241,0.007060700207261726,0.013503864618530266,0.01875841305334528,0.011124240542463191,0.015256672415008348,0.04908116614453255,0.01386334460288648,0.036327902815703604
0.0446897,0.007107240616696493,0.013586353137315802,0.018931468259956282,0.011193308024501818,0.015291246593154343,0.049307796191902745,0.01393568941148738,0.036542444311648686
0.0451552,0.007152326811876519,0.013666360876595588,0.019102515479079003,0.011261583829206162,0.015324742297294783,0.04952962932336081,0.014007146112811453,0.03675370329408189
0.0456207,0.007195958504825952,0.01374389319873468,0.019271553526666235,0.011329064511940505,0.015357155702961941,0.049746656214957496,0.014077708033808317,0.03696167981430597
0.0460862,0.007238135685035268,0.013818955941342779,0.019438581597675718,0.011395746716959332,0.015388483136682668,0.0499588683102274,0.014147368705372337,0.03716637462217523
0.0465517,0.007278858618913636,0.013891555413033755,0.01960359926187814,0.011461627176098202,0.015418721075436608,0.05016625781592579,0.014216121863045746,0.037367789161463195
0.0470172,0.007318127849203188,0.013961698389087835,0.019766606459591496,0.011526702707466306,0.015447866146125037,0.050368817697633024,0.014283961447646583,0.03756592556508277
0.0474828,0.007355944194355992,0.014029392107017796,0.019927603497345365,0.011590970214141978,0.015475915125052097,0.05056654167523112,0.014350881605822936,0.03776078665016169
0.0479483,0.007392308747874593,0.014094644262040516,0.02008659104347862,0.011654426682872391,0.015502864937420075,0.05075942421825722,0.014416876690534996,0.03795237591297574
0.0484138,0.007427222877616986,0.014157463002455122,0.020243570123673883,0.011717069182778624,0.015528712656840271,0.05094746054113856,0.014481941261466569,0.0381406975237423
0.0488793,0.007460688225066932,0.014217856924928789,0.020398542116431977,0.01177889486406721,0.015553455504860843,0.05113064659831391,0.014546070085367947,0.038325756321276404
0.0493448,0.007492706704570572,0.014275835069691281,0.020551508748489558,0.01183990095674935,0.015577090850512896,0.05130897907924636,0.014609258136332197,0.038507557807511375
0.0498103,0.007523280502540284,0.014331406915639132,0.020702472090182927,0.011900084769368898,0.015599616209875988,0.05148245540333266,0.01467150059600709,0.03868610814188622
0.0502759,0.007552412076626787,0.014384582375350384,0.020851434550761064,0.011959443687740339,0.015621029245664064,0.05165107371471456,0.014732792853745064,0.0388614141356019
0.0507414,0.0075801041548605,0.014435371790010778,0.020998398873650674,0.012017975173698023,0.015641327766832764,0.051814832876997424,0.014793130506693663,0.039033483245748804
0.0512069,0.007606359734763206,0.01448378592425234,0.021143368131676096,0.012075676763858033,0.015660509728208954,0.05197373246788187,0.014852509359828934,0.039202323569307924
0.0516724,0.00763118208243108,0.014529835960905431,0.021286345722236737,0.01213254606839415,0.01567857323014319,0.05212777277371387,0.014910925425934326,0.03936794383702796
0.0521379,0.007654574731590179,0.014573533495665392,0.021427335362444656,0.012188580769829482,0.015695516518185796,0.05227695478395911,0.014968374925527503,0.03953035340718055
0.0526034,0.007676541482625461,0.014614890531675114,0.021566341084224738,0.012243778621845239,0.015711337982787104,0.05242128018560718,0.015024854286737463,0.03968956225919541
0.053069,0.007697086401584387,0.01465391947402489,0.021703367229379784,0.01229813744810813,0.015726036159022412,0.05256075135751107,0.015080360145134235,0.03984558098717699
0.0535345,0.00771621381915614,0.014690633124171178,0.02183841844462278,0.01235165514111785,0.015739609726342092,0.05269537136466721,0.015134889343513383,0.039998420793303784
0.054,0.007733928329627449,0.014725044674275932,0.021971499676578386,0.012404329661075993,0.015752057508347225,0.05282514395244086,0.015188438931637412,0.04014809348111127
0.0544655,0.007750234789815955,0.014757167701468421,0.022102616166755802,0.012456159034777817,0.015763378472591127,0.05295007354074158,0.015241006165936209,0.04029461144865922
0.054931,0.007765138317982012,0.014787016162031506,0.02223177344649517,0.012507141354528165,0.015773571730407023,0.053070165218153005,0.015292588509168488,0.04043798768158386
0.0553966,0.0077786442927197455,0.014814604385514383,0.02235897733188967,0.012557274777082844,0.01578263653676218,0.053185424736021114,0.015343183630046138,0.0405782357460352
0.0558621,0.007790758351828151,0.014839947068773774,0.022484233918685526,0.012606557522616649,0.0157905722901387,0.05329585850250452,0.01539278940282334,0.04071536978149998
0.0563276,0.007801486391162989,0.014863059269945498,0.022607549577162118,0.012654987873719143,0.015797378532441154,0.05340147357659057,0.015441403906852143,0.0408494044935106
0.0567931,0.0078108345634701724,0.014883956402348296,0.022728930946994453,0.012702564174419291,0.01580305494893114,0.053502277662080475,0.015489025426106272,0.040980355146240974
0.0572586,0.007818809277201326,0.0149026542283217,0.02284838493210019,0.01274928482923987,0.01580760136818879,0.05359827910154657,0.015535652448674742,0.041108237554990275
0.0577241,0.007825417195312174,0.014919168852999787,0.02296591869547318,0.012795148302282709,0.015811017762101167,0.05368948687026457,0.015581283666226901,0.04123306807855617
0.0581897,0.007830665234044399,0.014933516718022713,0.023081539654005456,0.012840153116345586,0.015813304245877437,0.05377591057012355,0.015625917973450507,0.04135486361149935
0.0586552,0.007834560561691578,0.014945714595188092,0.02319525547329951,0.012884297852071847,0.015814461078090734,0.05385756042351638,0.015669554467464417,0.041473641576301366
0.0591207,0.007837110597349787,0.014955779580044393,0.02330707406247232,0.012927581147133577,0.015814488660746615,0.053934447267213234,0.015712192447207545,0.041589419915418556
0.0595862,0.00783832300965349,0.014963729085428633,0.023417003568952634,0.012970001695449273,0.01581338753937794,0.054006582546220705,0.015753831412805935,0.0417022170832351
0.0600517,0.007838205715497253,0.014969580834950775,0.023525052373272782,0.01301155824643684,0.015811158403165992,0.05407397830762906,0.01579447106491984,0.041812052037919226
0.0605172,0.007836766878743864,0.014973352856427148,0.02363122908385613,0.013052249604302657,0.01580780208508758,0.05413664719444971,0.015834111304072942,0.0419189442331867
0.0609828,0.007834014908919407,0.014975063475265416,0.023735542531801112,0.013092074627367457,0.015803319562087765,0.05419460243944509,0.015872752229965745,0.042022913609975905
0.0614483,0.007829958459895817,0.014974731307803631,0.023838001765662753,0.013131032227429638,0.01579771195527804,0.05424785785895267,0.01591039414077528,0.042123980588039005
0.0619138,0.007824606428561453,0.014972375254606034,0.0239386160462325,0.01316912136916666,0.015790980530159635,0.0542964278467047,0.015947037532443108,0.04222216605745332
0.0623793,0.007817967953480179,0.014968014493718207,0.024037394841317204,0.013206341069575038,0.015783126696871833,0.05434032736764517,0.015982683097953473,0.042317491370057296
0.0628448,0.007810052413539421,0.014961668473884242,0.024134347820518234,0.013242690397449445,0.015774152010465198,0.05437957195174544,0.016017331726603544,0.04240997833081494
0.0633103,0.007800869426587655,0.014953356907728463,0.024229484850011602,0.013278168472901315,0.01576405817119974,0.054414177687820586,0.016050984503267408,0.04249964918911273
0.0637759,0.007790428848061723,0.0149430997649042,0.024322815987330076,0.013312774466917327,0.015752847024868056,0.054444161217348734,0.01608364270765554,0.04258652662999298
0.0642414,0.0077787407696043595,0.014930917265211953,0.024414351476148156,0.013346507600957977,0.015740520563143512,0.0544695397282961,0.01611530781357127,0.04267063376532757
0.0647069,0.007765815517672272,0.014916829871689165,0.024504101741070677,0.013379367146596426,0.01572708092395346,0.05449033094895084,0.01614598148816565,0.04275199412493615
0.0651724,0.007751663652135056,0.014900858283673754,0.024592077382425737,0.013411352425197712,0.01571253039187745,0.054506553141768686,0.016175665591192063,0.04283063164765275
0.0656379,0.00773629596486517,0.014883023429843423,0.024678289171062403,0.013442462807638327,0.015696871398570383,0.054518225097234016,0.01620436217426175,0.04290657067234489
0.0661034,0.007719723478319158,0.014863346461232652,0.024762748043153666,0.013472697714066145,0.01568010652321039,0.054525366127739845,0.016232073480101333,0.04297983592888929
0.066569,0.0077019574441102,0.014841848744229252,0.02484546509500501,0.013502056613700627,0.01566223849297124,0.054527996061490495,0.01625880194181326,0.04305045252910775
0.0670345,0.007683009341572077,0.014818551853552337,0.024926451577868974,0.013530539024673136,0.015643270183519055,0.05452613523643057,0.016284550182140083,0.04311844595766674
0.0675,0.007662890876314542,0.014793477565213597,0.02500571889276596,0.013558144513907272,0.015623204619533176,0.05451980449420365,0.016309321012733448,0.04318384206294399
0.0679655,0.00764161397877005,0.0147666478494638,0.025083278585311508,0.013584872697039008,0.015602044975250973,0.054509025174143876,0.016333117433428773,0.04324666704786485
0.068431,0.0076191908027317835,0.014738084863726554,0.025159142340550136,0.013610723238376515,0.015579794575036509,0.05449381910730309,0.016355942631526663,0.04330694746071121
0.0688966,0.007595633723882902,0.014707810945521383,0.025233321977796035,0.013635695850899451,0.015556456893973012,0.054474208610515995,0.016377799981082446,0.04336471018590523
0.0693621,0.007570955338316864,0.014675848605378378,0.025305829445480738,0.013659790296297582,0.015532035558479106,0.054450216480505624,0.016398693042205377,0.043419982434769924
0.0698276,0.007545168461048692,0.014642220519746696,0.025376676816008182,0.013683006385048609,0.015506534346948883,0.05442186598803061,0.016418625560369264,0.04347279173626863
0.0702931,0.0075182861245170094,0.01460694952389941,0.025445876280617667,0.013705343976535115,0.015479957190415861,0.05438918087207619,0.016437601465736456,0.043523165927724886
0.0707586,0.007490321577076663,0.014570058604837155,0.02551344014425547,0.013726802979200503,0.015452308173240939,0.054352185334090246,0.016455624872497073,0.04357113314552429
0.0712241,0.007461288281481699,0.014531570894193196,0.02557938082045612,0.013747383350743818,0.01542359153382449,0.05431090403226571,0.016472700078225322,0.04361672181579964
0.0716897,0.007431199913358473,0.01449150966114245,0.02564371082623482,0.013767085098353246,0.015393811665342648,0.054265362075870516,0.01648883156325466,0.04365996064510054
0.0721552,0.007400070359668598,0.014449898305316964,0.02570644277699279,0.013785908278978081,0.015362973116507788,0.05421558501962587,0.016504023990073446,0.04370087861104887
0.0726207,0.007367913717161443,0.014406760349730319,0.02576758938143769,0.013803852999638775,0.015331080592353228,0.054161598858133445,0.01651828220274263,0.04373950495298141
0.0730862,0.007334744290815867,0.014362119433713428,0.025827163436521645,0.013820919417774647,0.015298138955042133,0.054103430020351895,0.01653161122633686,0.043775869162580604
0.0735517,0.00730057659227078,0.01431599930586419,0.025885177822399456,0.013837107741628794,0.015264153224700755,0.054041105364122766,0.01654401626641037,0.043810000974494466
0.0740172,0.007265425338244112,0.014268423817013567,0.02594164549740983,0.013852418230669695,0.01522912858027618,0.053974652170745804,0.016555502708488875,0.04384193035694618
0.0744828,0.007229305448939728,0.014219416913210693,0.02599657949308231,0.013866851196048987,0.015193070360418805,0.05390409813960346,0.016566076117588518,0.04387168750233399
0.0749483,0.007192232046441771,0.014169002628729712,0.026049992909172547,0.013880407001094906,0.01515598406438988,0.053829471382834275,0.01657574223776296,0.04389930281782167
0.0754138,0.007154220453095907,0.014117205079101013,0.026101898908728518,0.01389308606184083,0.01511787535299438,0.05375080042005468,0.01658450699167944,0.04392480691591992
0.0758793,0.007115286189876905,0.01406404845416959,0.026152310713190095,0.013904888847588328,0.01507875004953944,0.05366811417312847,0.01659237648022462,0.043948230605058716
0.0763448,0.0070754449747419705,0.014009557011183223,0.026201241597524464,0.013915815881504017,0.015038614140818423,0.053581441960983224,0.01659935698214091,0.043969604880150746
0.0768103,0.0070347127209692325,0.013953755067913052,0.02624870488539971,0.013925867741249457,0.014997473778120668,0.05349081349447275,0.016605454953693838,0.04398896091314575
0.0772759,0.0069931055354808015,0.013896666995809168,0.026294713944399143,0.013935045059643221,0.014955335278266845,0.05339625887128443,0.01661067702837098,0.04400633004357567
0.0777414,0.006950639717149821,0.01383831721319367,0.026339282181278997,0.013943348525354128,0.014912205124669762,0.053297808570890295,0.01661503001661278,0.044021743769090675
0.0782069,0.00690733175509095,0.01377873017849353,0.02638242303727238,0.013950778883624587,0.014868089968420288,0.053195493449540686,0.01661852090557558,0.044035233735986015
0.0786724,0.006863198326933752,0.013717930383515545,0.02642414998344265,0.013957336937022865,0.01482299662939809,0.053089344735298694,0.01662115685892706,0.044046831729720494
0.0791379,0.006818256297078487,0.01365594234676556,0.02646447651608949,0.01396302354622298,0.014776932097406667,0.05297939402311395,0.01662294521667428,0.04405656966542772
0.0796034,0.006772522714933853,0.013592790606813997,0.026503416152211037,0.013967839630810892,0.01472990353333213,0.0528656732699339,0.016623893495024442,0.04406447957842177
0.080069,0.006726014813136242,0.013528499715709665,0.02654098242502541,0.013971786170115552,0.014681918270325124,0.05274821478985053,0.016624009386278383,0.04407059361469923
0.0805345,0.0066787500057501415,0.013463094232443669,0.026577188879554896,0.013974864204063396,0.014632983815005234,0.052627051249280424,0.016623300758756728,0.044074944021439674
0.081,0.006630745886449324,0.013396598716465188,0.02661204906827592,0.01397707483405489,0.014583107848687172,0.05250221566217579,0.016621775656758646,0.04407756313750682
0.0814655,0.006582020226678504,0.013329037721250702,0.026645576546837663,0.013978419223861673,0.014532298228628063,0.05237374138526426,0.01661944230055307,0.044078483383952094
0.081931,0.006532590973795122,0.013260435787928229,0.026677784869852374,0.013978898600542846,0.01448056298929507,0.05224166211331486,0.01661630908640235,0.04407773725452259
0.0823966,0.006482476249190954,0.013190817438958028,0.026708687586759858,0.013978514255378906,0.014427910343652576,0.05210601187442793,0.016612384586618345,0.04407535730617502
0.0828621,0.006431694346393181,0.013120207171871096,0.026738298237768757,0.013977267544821774,0.014374348684468042,0.05196682502534623,0.016607677549651013,0.044071376149597725
0.0833276,0.006380263729144527,0.013048629453066863,0.02676663034987698,0.013975159891459336,0.014319886585635605,0.05182413624678467,0.016602196900209552,0.0440658264397423
0.0837931,0.006328203029462071,0.012976108711671545,0.026793697432973575,0.013972192784992902,0.014264532803516361,0.05167798053877596,0.01659595173941597,0.04405874086636684
0.0842586,0.006275531045674256,0.012902669333458556,0.02681951297602425,0.01396836778322601,0.014208296278294216,0.051528393216029686,0.016588951344991058,0.04405015214459256
0.0847241,0.00622226674043566,0.012828335654832568,0.026844090443342704,0.013963686513062892,0.014151186135346057,0.05137540990330192,0.0165812051714725,0.044040093005475546
0.0851897,0.00616842923871905,0.012753131956878817,0.02686744327094976,0.013958150671514864,0.014093211686624871,0.051219066530772746,0.016572722850464804,0.044028596186595194
0.0856552,0.006114037825784282,0.012677082459479303,0.02688958486302233,0.013951762026712907,0.014034382432054389,0.0510593993294287,0.016563514190920538,0.04401569442266142
0.0861207,0.00605911194512359,0.012600211315497621,0.026910528588434034,0.013944522418924573,0.013974708060933653,0.050896444826447104,0.016553589179452412,0.044001420436142136
0.0865862,0.00600367119638288,0.012522542605034142,0.026930287777389195,0.013936433761573377,0.013914198453349845,0.0507302398405792,0.016542957980675597,0.0439858069279127
0.0870517,0.005947735333258639,0.012444100329753321,0.026948875718151737,0.013927498042258755,0.01385286368159754,0.05056082147752871,0.01653163093757957,0.04396888656792883
0.0875172,0.005891324261370153,0.012364908407284981,0.026966305653870284,0.013917717323774717,0.013790714011602544,0.05038822712532304,0.01651961857192888,0.04395069198592417
0.0879828,0.005834458036106741,0.012284990665701377,0.026982590779500677,0.013907093745125347,0.013727759904348215,0.05021249444967427,0.016506931584692085,0.043931255762133525
0.0884483,0.005777156860449751,0.01220437083807195,0.02699774423882693,0.013895629522535419,0.01366401201730216,0.050033661389327314,0.01649358085649827,0.04391061041804247
0.0889138,0.005719441082769157,0.012123072557097561,0.02701177912158155,0.013883326950454397,0.01359948120584098,0.04985176615139273,0.016479577448120265,0.043888788407163856
0.0893793,0.005661331194594566,0.012041119349826098,0.027024708460666097,0.013870188402552242,0.013534178524670747,0.04966684720666194,0.016464932600983938,0.043865822105841536
0.0898448,0.005602847828360546,0.011958534632451235,0.027036545229472755,0.013856216332705448,0.013468115229240669,0.04947894328490199,0.01644965773770259,0.04384174380408158
0.0903103,0.005544011755126196,0.011875341705196166,0.027047302339307643,0.013841413275971763,0.013401302777147317,0.049288093370127496,0.01643376446263569,0.04381658569641103
0.0907759,0.005484843882268909,0.011791563747284043,0.02705699263691642,0.01382578184955205,0.013333752829526644,0.049094336695847104,0.016417264562470908,0.04379037987276421
0.0912414,0.005425365251152354,0.011707223811996802,0.027065628902112577,0.013809324753737652,0.013265477252430964,0.04889771274028157,0.016400170006828408,0.0437631583093968
0.0917069,0.005365597034768678,0.01162234482182399,0.027073223845508802,0.013792044772841665,0.013196488118187896,0.048698261221550875,0.016382492948886284,0.04373495285982785
0.0921724,0.005305560535354987,0.011536949563703134,0.02707979010635173,0.013773944776112476,0.013126797706738165,0.04849602209282752,0.016364245726025867,0.04370579524581019
0.0926379,0.005245277181984162,0.01145106068435308,0.027085340250460277,0.013755027718627875,0.013056418506949071,0.04829103553745313,0.016345440860495553,0.04367571704832966
0.0931034,0.005184768528130052,0.011364700685701714,0.027089886768267728,0.013735296642168238,0.012985363217900303,0.04808334196401565,0.01632609106009161,0.04364474969863342
0.093569,0.005124056249207083,0.011277891920409292,0.02709344207296748,0.013714754676067307,0.012913644750138712,0.047872982001384554,0.016306209218854412,0.04361292446928761
0.0940345,0.005063162140084259,0.01119065658748859,0.02709601849876226,0.013693405038039274,0.012841276226898535,0.04765999649370088,0.016285808417778266,0.04358027246526436
0.0945,0.005002108112573544,0.011103016728022991,0.027097628299216536,0.013671251034980847,0.012768270985283497,0.04744442649531957,0.016264901925533058,0.04354682461505819
0.0949655,0.004940916192892542,0.011014994220983575,0.027098283645711548,0.013648296063747116,0.01269464257740711,0.04722631326570103,0.016243503199195767,0.04351261166183242
0.095431,0.004879608519101367,0.010926610779146152,0.027097996626002315,0.013624543611899914,0.0126204047714875,0.047005698264249295,0.01622162588498984,0.0434776641545962
0.0958966,0.004818207338513569,0.0108378879451092,0.02709677924287588,0.01359999725842745,0.012545571552892968,0.04678262314509386,0.01619928381903044,0.043442012439413646
0.0963621,0.004756735005080964,0.010748847087413516,0.027094643412909892,0.013574660674433952,0.01247015712513465,0.04655712975181255,0.016176491028073486,0.043405686650646653
0.0968276,0.004695213976752159,0.010659509396764364,0.02709160096533077,0.013548537623798122,0.012394175910802798,0.04632926011209271,0.01615326173026631,0.04336871670223321
0.0972931,0.0046336668128046585,0.010569895882356838,0.02708766364097073,0.013521631963799232,0.012317642552443286,0.046099056432328485,0.016129610335897777,0.04333113227900322
0.0977586,0.0045721161711503675,0.010480027368305037,0.027082843091322927,0.013493947645709782,0.012240571913371289,0.045866561092152154,0.01610555144814567,0.04329296282803383
0.0982241,0.004510584805614421,0.010389924490175647,0.027077150877694158,0.013465488715353833,0.012162979078419121,0.04563181663889779,0.016081099863819028,0.04325423755004695
0.0986897,0.004449095563187266,0.010299607691626394,0.02707059847045433,0.01343625931363024,0.01208487935461535,0.045394865781996266,0.016056270574093156,0.04321498539085185
0.0991552,0.004387671381249972,0.010209097221149866,0.027063197248382055,0.013406263677000114,0.01200628827179233,0.04515575138730108,0.01603107876523496,0.04317523503283727
0.0996207,0.0043263352847728205,0.010118413128923118,0.027054958498105488,0.013375506137937906,0.01192722158311922,0.04491451647134511,0.016005539819316378,0.04313501488651802
0.1000862,0.004265110383487222,0.010027575263763449,0.027045893413637497,0.01334399112534555,0.011847695265557661,0.04467120419552896,0.015979669314913816,0.04309435308214191
0.1005517,0.004204019869031079,0.009936603270190686,0.027036013096004154,0.013311723164929012,0.011767725520237313,0.04442585786024222,0.015953483027791638,0.043053277461363594
0.1010172,0.004143087012067732,0.00984551658559625,0.027025328552965355,0.013278706879536592,0.011687328772748586,0.044178520898919334,0.015926996931567867,0.043011815568991876
0.1014828,0.0040823351593786755,0.009754334437519203,0.027013850698826263,0.0132449469894582,0.011606521673350122,0.04392923687203263,0.01590022719836038,0.04296999464481715
0.1019483,0.004021787730930224,0.009663075841029446,0.027001590354338193,0.01321044831268482,0.011525321097088778,0.0436780494610251,0.01587319019941197,0.04292784161552526
0.1024138,0.0039614682169143425,0.009571759596218154,0.026988558246687545,0.013175215765127271,0.011443744143830047,0.04342500246218572,0.01584590250569273,0.042885383086704074
0.1028793,0.003901400174763845,0.009480404285795508,0.026974765009571293,0.013139254360793388,0.011361808138197125,0.04317013978047007,0.01581838088847834,0.04284264533494868
0.1033448,0.0038416072261421704,0.009389028272795698,0.02696022118335761,0.013102569211922712,0.011279530629417068,0.04291350542326847,0.015790642319902726,0.04279965430007098
0.1038103,0.0037821130539079303,0.009297649698389117,0.026944937215330186,0.013065165529077749,0.011196929391072636,0.04265514349412396,0.01576270397348371,0.04275643557741961
0.1042759,0.003722941399054435,0.009206286479801607,0.026928923460014905,0.013027048621190784,0.01111402242075857,0.04239509818640203,0.015734583224620156,0.04271301441031568
0.1047414,0.0036641160576243803,0.00911495630834057,0.026912190179587608,0.012988223895565285,0.01103082793964124,0.04213341377691413,0.0157062976510592,0.04266941568260982
0.1052069,0.003605660877599876,0.009023676647527656,0.02689474754436157,0.012948696857830807,0.01094736439192065,0.041870134619496756,0.01567786503333209,0.04262566391136564
0.1056724,0.0035475997557679593,0.008932464731337688,0.026876605633353503,0.012908473111850376,0.010863650444194056,0.041605305138548675,0.015649303355157143,0.04258178323967466
0.1061379,0.0034899566345617337,0.008841337562543416,0.026857774434926675,0.012867558359579239,0.010779704984720445,0.04133896982252856,0.015620630803808388,0.04253779742960768
0.1066034,0.003432755498877247,0.008750311911165633,0.0268382638475097,0.012825958400873848,0.010695547122585275,0.041071173217415706,0.015591865770448302,0.042493729855307215
0.107069,0.0033760203728662296,0.00865940431302811,0.026818083680389477,0.012783679133249943,0.01061119618676492,0.04080195992013659,0.015563026850423076,0.04244960349622601
0.1075345,0.0033197753167047987,0.008568631068416807,0.02679724365457684,0.012740726551588533,0.010526671725090399,0.040531374571960384,0.015534132843518665,0.042405440930516174
0.108,0.003264044423338215,0.008478008240842721,0.02677575340374323,0.012697106747788602,0.010441993503109969,0.04025946185186693,0.015505202754175842,0.04236126432857394
0.1084655,0.0032088518152018158,0.008387551655907717,0.02675362247522704,0.012652825910365513,0.010357181502850239,0.03998626646989127,0.015476255791662317,0.042317095446744515
0.108931,0.00315422164091823,0.008297276900272646,0.026730860331108053,0.012607890323994193,0.010272255921475484,0.03971183316044898,0.015447311370199859,0.042272955621191675
0.1093966,0.0031001780719710193,0.008207199320726994,0.02670747634934846,0.012562306368996391,0.01018723716984473,0.03943620667564675,0.015418389109044361,0.04222886576193652
0.1098621,0.0030467452993548825,0.008117334023359273,0.026683479824998847,0.012516080520771484,0.010102145870966178,0.03915943177858289,0.015389508832516729,0.04218484634706983
0.1103276,0.002993947530202572,0.008027695872827275,0.026658879971467368,0.012469219349170483,0.010017002858348409,0.03888155323664259,0.015360690569982408,0.04214091741714232
0.1107931,0.00294180898438868,0.007938299491727316,0.0266336859218502,0.012421729517813002,0.009931829174247842,0.03860261581479258,0.015331954555777367,0.04209709856973709
0.1112586,0.00289035389111044,0.007849159260061536,0.0266079067303211,0.012373617783346997,0.00984664606781186,0.03832266426888033,0.01530332122907828,0.04205340895422834
0.1117241,0.0028396064854456695,0.007760289314802321,0.0265815513735778,0.012324890994651118,0.009761474993117206,0.03804174333894267,0.015274811233714618,0.04200986726673025
0.1121897,0.002789591004887985,0.0076717035495528505,0.026554628752342775,0.012275556091979563,0.009676337607103323,0.037759897742528976,0.015246445417920291,0.04196649174523957
0.1126552,0.002740331685859381,0.007583415614302739,0.026527147692915684,0.012225620106049257,0.009591255767400669,0.037477172168043554,0.015218244834022511,0.04192330016497543
0.1131207,0.002691852760200275,0.007495438915277684,0.0264991169487747,0.012175090157069393,0.009506251530054058,0.03719361126811216,0.015190230738065448,0.041880309833919285
0.1135862,0.0026441784516371097,0.007407786614881991,0.026470545202223885,0.012123973453713454,0.009421347147141336,0.03690925965297747,0.015162424589366365,0.04183753758855794
0.1140517,0.0025973329722275827,0.007320471631732774,0.026441441066083732,0.01207227729203417,0.00933656506428775,0.036624161883928086,0.015134848050001815,0.04179499978983212
0.1145172,0.002551340518783583,0.007233506640784545,0.026411813085422058,0.012020009054322083,0.009251927918076386,0.036338362466765355,0.015107522984221466,0.041752712319292846
0.1149828,0.0025062252692718986,0.007146904073542884,0.026381669739322412,0.011967176207908672,0.009167458533355153,0.036051905845312246,0.015080471457787112,0.041710690575467425
0.1154483,0.002462011379192759,0.007060676118365792,0.026351019442687265,0.011913786303915165,0.009083179920440845,0.03576483639496817,0.01505371573723429,0.041668949470436784
0.1159138,0.0024187229779362657,0.0069748347208512754,0.026319870548073145,0.011859846975948355,0.008999115272220908,0.035477198416313464,0.015027278289054029,0.04162750342662536
0.1163793,0.002376384165116775,0.006889391584309641,0.026288231347554692,0.011805365938744853,0.008915287961153635,0.03518903612876701,0.015001181778792163,0.04158636637380466
0.1168448,0.0023350190068852686,0.006804358170318947,0.026256110074614744,0.011750350986765282,0.008831721536167503,0.0349003936643003,0.014975449070063799,0.04154555174631121
0.1173103,0.002294651532219768,0.0067197456993619694,0.026223514906057434,0.011694809992740031,0.008748439719460384,0.034611315061211026,0.014950103223480496,0.04150507248047984
0.1177759,0.0022553057291938255,0.006635565151543026,0.02619045396394132,0.011638750906168076,0.008665466403199311,0.03432184425795918,0.01492516749548797,0.04146494101229292
0.1182414,0.00221700554122312,0.006551827267382926,0.026156935317529533,0.011582181751770474,0.00858282564612141,0.03403202508706836,0.014900665337112052,0.041425169275245914
0.1187069,0.0021797748632901657,0.006468542548690293,0.026122966985253918,0.011525110627900093,0.008500541670036546,0.03374190126909494,0.01487662039261081,0.041385768698429755
0.1191724,0.0021436375381471387,0.006385721259507413,0.02608855693669023,0.011467545704909184,0.008418638856232202,0.03345151640666735,0.01485305649803069,0.04134675020483009
0.1196379,0.0021086173524968066,0.006303373427128788,0.02605371309454145,0.01140949522347649,0.008337141741781106,0.033160913978597904,0.014829997679664697,0.04130812420984327
0.1201034,0.00207473803315156,0.006221508843190467,0.026018443336626534,0.011350967492895615,0.008256075015752064,0.03287013733406892,0.014807468152410541,0.0412699006200085
0.120569,0.002042023243170533,0.006140137064828242,0.02598275549787202,0.011291970889326477,0.008175463515324522,0.03257922968689498,0.014785492318026814,0.04123208883195562
0.1210345,0.0020104965779748174,0.006059267415902749,0.02594665737230413,0.011232513854011757,0.008095332221807342,0.03228823410986295,0.014764094763285223,0.04119469773156739
0.1215,0.0019801815614408002,0.0059789089882894605,0.02591015671503907,0.011172604891460332,0.008015706256562286,0.03199719352915113,0.014743300258016902,0.041157735693355
0.1219655,0.0019511016419716638,0.005899070643231569,0.025873261244269554,0.011112252567599673,0.007936610876832671,0.03170615071882879,0.014723133753050784,0.04112121058004528
0.122431,0.0019232801885470951,0.005819761012753684,0.025835978643245484,0.011051465507899188,0.007858071471477681,0.03141514829543733,0.014703620378042017,0.0410851297423779
0.1228966,0.0018967404867512726,0.005740988501134262,0.025798316562246834,0.010990252395466476,0.007780113556612871,0.031124228712654224,0.014684785439188447,0.041049500019110716
0.1233621,0.001871505734779195,0.005662761286434675,0.02576028262054664,0.010928621969118438,0.007702762771157408,0.03083343425604073,0.0146666544168333,0.04101432773723157
0.1238276,0.001847599039421419,0.005585087322082755,0.02572188440836192,0.010866583021429135,0.00762604487228859,0.030542807037874563,0.014649252962952221,0.04097961871237481
0.1242931,0.0018250434120272746,0.0055079743385087025,0.02568312948879017,0.010804144396756256,0.007549985730804226,0.03025238899206843,0.014632606898522867,0.04094537824944079
0.1247586,0.0018038617644466149,0.005431429844831176,0.02564402539972911,0.010741314989248017,0.007474611326393411,0.02996222186917541,0.014616742210775172,0.040911611143416744
0.1252241,0.0017840769049501423,0.005355461130591387,0.025604579655777268,0.010678103740832274,0.0073999477428161944,0.02967234723148199,0.014601685050320461,0.04087832168039714
0.1256897,0.0017657115341283588,0.00528007526753302,0.025564799750113467,0.010614519639189544,0.00732602116299264,0.029382806448189372,0.014587461728157416,0.04084551363880188
0.1261552,0.0017487882407691744,0.005205279111425799,0.025524693156353216,0.010550571715711717,0.0072528578640018255,0.029093640690683563,0.014574098712552884,0.04081319029079037
0.1266207,0.0017333294977142132,0.005131079303930497,0.025484267330380544,0.010486269043448142,0.007180484211991322,0.028804890927894802,0.014561622625795398,0.04078135440386931
0.1270862,0.0017193576576938706,0.005057482274503182,0.025443529712154057,0.010421620735040882,0.007108926656997829,0.02851659792174668,0.014550060240819273,0.04075000824269196
0.1275517,0.0017068949491412036,0.004984494242336532,0.025402487727486444,0.010356635940650916,0.007038211727679714,0.028228802222695283,0.014539438477697064,0.040719153571046156
0.1280172,0.001695963471984762,0.004912121218336066,0.02536114878979682,0.010291323845877103,0.006968366025962221,0.0279415441653587,0.01452978439999818,0.04068879165402837
0.1284828,0.001686585193420501,0.004840369007129194,0.02531952030183575,0.010225693669669692,0.0068994162215962,0.027654863864236812,0.014521125211011548,0.040658923260400846
0.1289483,0.0016787819436629443,0.004769243209105109,0.025277609657382884,0.010159754662240108,0.0068313890466311575,0.027368801209521246,0.014513488249830404,0.04062954866512889
0.1294138,0.0016725754116757926,0.004698749222483633,0.025235424242917394,0.010093516102968684,0.006764311289803472,0.027083395862995113,0.014506900987297624,0.040600667652095364
0.1298793,0.0016679871408821975,0.004628892245411215,0.025192971439261254,0.010026987298311963,0.006698209790840589,0.026798687254021906,0.014501391021810351,0.040572279516989794
0.1303448,0.0016650385248549462,0.004559677278082362,0.025150258623195487,0.009960177579711134,0.00663311143468205,0.026514714575622787,0.014496986074983117,0.04054438307036938
0.1308103,0.0016637508029868227,0.004491109124884822,0.025107293169049222,0.00989309630150311,0.006569043145618177,0.026231516780641242,0.014493713987168989,0.04051697664088929
0.1312759,0.0016641450561414282,0.0044231923965668205,0.025064082450261427,0.009825752838835727,0.006506031881347377,0.025949132577994048,0.014491602712838598,0.040490058078699404
0.1317414,0.0016662422022847504,0.00435593151242467,0.02502063384091493,0.009758156585588486,0.006444104626953041,0.025667600429007207,0.014490680315817184,0.04046362475900447
0.1322069,0.0016700629920977734,0.004289330702509074,0.02497695471724237,0.009690316952300139,0.006383288388801239,0.02538695854383545,0.014490974964379923,0.04043767358578445
0.1326724,0.0016756280045704293,0.004223394009848463,0.024933052459103603,0.009622243364104428,0.006323610188360483,0.02510724487796375,0.014492514926205893,0.0404122009956716
0.1331379,0.0016829576425771886,0.004158125292687743,0.02488893445143414,0.009553945258675183,0.0062650970559449655,0.02482849712878929,0.014495328563191067,0.04038720296198085
0.1336034,0.0016920721284346206,0.004093528226740911,0.024844608085664143,0.009485432084181927,0.006207776024382801,0.02455075273228232,0.014499444326120867,0.04036267499889
0.134069,0.0017029914994412842,0.004029606307456067,0.024800080761107658,0.009416713297257125,0.006151674122610938,0.024274048859724225,0.014504890749203022,0.04033861216576629
0.1345345,0.0017157356034003676,0.003966362852291445,0.02475535988632187,0.009347798360976092,0.006096818369198573,0.02399842241452124,0.01451169644446178,0.04031500907163603
0.135,0.0017303240941255536,0.0039038010030011845,0.024710452880435916,0.00927869674285056,0.006043235765801051,0.023723910029092157,0.01451989009599495,0.0402918598797938
0.1354655,0.001746776426930648,0.003841923727929707,0.024665367174448977,0.009209417912836816,0.005990953290546333,0.02345054806182832,0.01452950045409551,0.04026915831254817
0.135931,0.0017651118541035747,0.0037807338243136582,0.024620110212497097,0.009139971341359259,0.0059399978913561875,0.02317837259412435,0.014540556329239685,0.04024689765610074
0.1363966,0.001785349420365397,0.0037202339205905204,0.024574689453087953,0.00907036649735015,0.005890396479204299,0.022907419427478173,0.014553086585943583,0.040225070765555954
0.1368621,0.001807507958315097,0.0036604264787131434,0.02452911237030289,0.009000612846306308,0.005842175921313493,0.02263772408065889,0.014567120136490452,0.04020367007005905
0.1373276,0.0018316060838609097,0.0036013137964695523,0.024483386454965197,0.008930719848363416,0.005795363034294316,0.022369321786941305,0.01458268593453063,0.04018268757805996
0.1377931,0.001857662191639069,0.0035428980098075233,0.024437519215773487,0.008860696956388603,0.005749984577227163,0.022102247491405796,0.014599812968556228,0.04016211488270084
0.1382586,0.00188569445042089,0.0034851810951635133,0.024391518180399134,0.008790553614091905,0.005706067244690127,0.02183653584830249,0.01461853025525262,0.04014194316732509
0.1387241,0.001915720798509164,0.0034281648717955845,0.02434539089654635,0.008720299254157191,0.005663637659734678,0.021572221218478675,0.014638866832728721,0.04012216321110565
0.1391897,0.0019477589391248874,0.003371851004119994,0.024299144932973638,0.008649943296393115,0.0056227223668112595,0.021309337666868537,0.014660851753628027,0.04010276539479024
0.1396552,0.00198182633578539,0.0033162410040511107,0.024252787880475257,0.008579495145904684,0.0055833478246468055,0.021047918960044393,0.014684514078122445,0.04008373970656116
0.1401207,0.0020179402076749477,0.0032613362333443314,0.02420632735282117,0.008508964191285948,0.005545540399076172,0.020787998563828673,0.014709882866791124,0.04006507574800692
0.1405862,0.002056117525008991,0.003207137905941656,0.02415977098765408,0.008438359802834392,0.0055093263558294225,0.020529609640965858,0.014736987173386668,0.040046762740203044
0.1410517,0.002096375004393005,0.0031536470903195807,0.024113126447341857,0.008367691330787507,0.005474731853276862,0.020272785048853693,0.014765856037491362,0.04002878952989896
0.1415172,0.002138729104177253,0.0031008647118389615,0.024066401419783712,0.008296968103582042,0.005441782935133694,0.02001755733733311,0.014796518477066171,0.04001114459580781
0.1419828,0.0021831960198084315,0.003048791555096504,0.02401960361916844,0.008226199426136317,0.005410505523126099,0.019763958746536345,0.014829003480895398,0.03999381605499599
0.1424483,0.0022297916791794276,0.002997428266277509,0.023972740786682895,0.008155394578155986,0.00538092540962058,0.01951202120479281,0.014863340000929858,0.03997679166936924
0.1429138,0.0022785317379783662,0.0029467753555095138,0.023925820691168984,0.008084562812463534,0.005353068250218334,0.019261776326592303,0.014899556944531498,0.03996005885225223
0.1433793,0.0023294315750382304,0.002896833199216436,0.02387885112972757,0.00801371335335179,0.005326959556316472,0.01901325541060505,0.014937683166622437,0.03994360467505849
0.1438448,0.0023825062876883935,0.0028476020424728432,0.02383183992826766,0.007942855394961623,0.005302624687637899,0.01876648943775799,0.014977747461741442,0.03992741587404767
0.1443103,0.00243777068710948,0.002799082001357947,0.023784794941999362,0.007871998099683983,0.005280088844731706,0.018521509069366743,0.015019778556010867,0.03991147885716695
0.1447759,0.002495239293693042,0.002751273065308945,0.023737724055869044,0.007801150596586333,0.0052593770614459785,0.018278344645322648,0.015063805099017063,0.039895779710973474
0.1452414,0.0025549263324075922,0.002704175099473336,0.023690635184935364,0.007730321979863519,0.005240514197374936,0.01803702618233425,0.015109855655607234,0.039880304207634915
0.1457069,0.0026168457281726233,0.0026577878470598316,0.023643536274684806,0.0076595213073130585,0.005223524930282407,0.017797583372222682,0.01515795869760567,0.039865037812005594
0.1461724,0.002681011101242281,0.002612110931687525,0.023596435301285815,0.007588757598834724,0.005208433748503677,0.017560045580270335,0.01520814259545226,0.039849965688775975
0.1466379,0.002747435762600414,0.0025671438597329507,0.02354934027178086,0.0075180398349543156,0.005195264943327805,0.017324441843622192,0.015260435609766091,0.039835072709693574
0.1471034,0.0028161327093687506,0.002522886022674711,0.023502259224216063,0.00744737695537141,0.005184042601362551,0.017090800869739062,0.01531486588283709,0.03982034346085362
0.147569,0.0028871146202299573,0.0024793366994353447,0.023455200227708237,0.007376777857530821,0.005174790596884042,0.01685915103490176,0.015371461430048569,0.03980576225005766
0.1480345,0.0029603938508673392,0.002436495058720132,0.023408171382449036,0.007306251395217499,0.005167532584173352,0.016629520382765366,0.01543025013123366,0.03979131311423826
0.1485,0.003035982429422928,0.0023943601613525523,0.023361180819646013,0.007235806377174507,0.00516229198984208,0.01640193662296244,0.015491259721968553,0.03977697982694786
0.1489655,0.0031138920519756955,0.002352930962606144,0.023314236701400363,0.007165451565743691,0.0051590920051490415,0.016176427129754273,0.015554517784805438,0.03976274590590946
0.149431,0.0031941340780416157,0.002312206314532515,0.02326734722052107,0.007095195675528634,0.005157955578310133,0.01595301894072924,0.015620051740448043,0.03974859462062669
0.1498966,0.003276719526097322,0.0022721849682852805,0.023220520600275272,0.007025047372079466,0.005158905406803418,0.015731738755547515,0.01568788883887253,0.03973450900005063
0.1503621,0.0033616590691290618,0.00223286557643971,0.02317376509407489,0.006955015270599129,0.00516196392967148,0.015512612934731444,0.015758056150396483,0.039720471840300926
0.1508276,0.0034489630302086834,0.0021942466953078507,0.023127088985099634,0.006885107934670709,0.005167153319823118,0.015295667498500864,0.015830580556698573,0.03970646571243858
0.1512931,0.003538641378098345,0.002156326787248914,0.023080500585856614,0.006815333875005407,0.005174495476336534,0.015080928125652607,0.015905488741791516,0.03969247297028803
0.1517586,0.0036307037228856327,0.0021191042229746922,0.023034008237676717,0.006745701548210794,0.005184012016766159,0.014868420152483295,0.015982807182950795,0.03967847575830635
0.1522241,0.003725159311650742,0.00208257728384978,0.022987620310148022,0.006676219355578902,0.005195724269455345,0.014658168571754582,0.01606256214160168,0.03966445601949711
0.1526897,0.0038220170241673596,0.002046744164186365,0.022941345200486428,0.006606895641893796,0.005209653265857141,0.014450198031699817,0.016144779654167135,0.039650395503366694
0.1531552,0.003921285368638857,0.0020116029735333424,0.022895191332843737,0.006537738694258196,0.005225819732865355,0.014244532835071278,0.016229485522879276,0.03963627577392068
0.1536207,0.004022972477471397,0.001977151738959506,0.022849167157553384,0.006468756740938826,0.0052442440851581205,0.0140411969382271,0.016316705306557155,0.039622078217698344
0.1540862,0.004127086103085516,0.0019433884073305463,0.022803281150314034,0.006399957950230172,0.005264946417556167,0.013840213950257219,0.01640646431135374,0.03960778405184329
0.1545517,0.004233633613767755,0.0019103108475795774,0.02275754181131116,0.006331350429336467,0.005287946497397948,0.013641607132147618,0.016498787581475098,0.03959337433220911
0.1550172,0.004342621989563898,0.0018779168529708917,0.02271195766427671,0.006262942223271844,0.005313263756933784,0.013445399395982192,0.01659369988987461,0.03957882996149877
0.1554828,0.004454057818215403,0.001846204143356641,0.02266653725548709,0.006194741313778716,0.005340917285741121,0.013251613304181505,0.016691225728925133,0.039564131697436944
0.1559483,0.004567947291140624,0.0018151703674261198,0.022621289152699887,0.006126755618264466,0.0053709258231629895,0.013060271068777673,0.016791389301071838,0.039549260160974375
0.1564138,0.004684296199462464,0.0017848131049473216,0.022576221944030087,0.00605899298875657,0.005403307750771738,0.01287139455072447,0.01689421450946843,0.0395341958445234
0.1568793,0.004803109930084147,0.001755129869000421,0.0225313442367667,0.005991461210876207,0.005438081084860118,0.012685005259241745,0.016999724948599394,0.0395189191202232
0.1573448,0.004924393461814825,0.0017261181082028382,0.022486664656131118,0.005924168002830453,0.005475263468961867,0.012501124351192997,0.01710794389489086,0.03950341024823331
0.1578103,0.005048151361546818,0.0016977752089255334,0.022442191843978627,0.00585712101442309,0.005514872166403914,0.012319772630495015,0.017218894297312663,0.03948764938505356
0.1582759,0.005174387780486266,0.0016700984975001744,0.022397934457444396,0.00579032782608407,0.005556924052892437,0.012140970547558392,0.017332598767974102,0.03947161659186836
0.1587414,0.005303106450439038,0.0016430852424168258,0.022353901167535422,0.005723795947917701,0.005601435609135011,0.011964738198757707,0.017449079572715912,0.039455291842913236
0.1592069,0.005434310680153731,0.001616732656511798,0.022310100657669633,0.005657532818769605,0.00564842291350112,0.011791095325930244,0.017568358621700877,0.039438655033861514
0.1596724,0.005568003351723576,0.0015910378991452856,0.02226654162216342,0.0055915458053124876,0.005697901634723403,0.011620061315902158,0.017690457460005485,0.03942168599022928
0.1601379,0.0057041869170491,0.0015659980783684277,0.022223232764668758,0.005525842201150774,0.005749887024641994,0.011451655200041082,0.017815397258214943,0.03940436447579681
0.1606034,0.005842863394363385,0.0015416102530794065,0.022180182796561098,0.005460429225944118,0.005804393910994494,0.01128589565383428,0.017943198803023874,0.039386670201044985
0.161069,0.005984034364821831,0.0015178714351682006,0.022137400435279248,0.005395314024549774,0.005861436690254141,0.0111228009964915,0.018073882487844965,0.039368582831605124
0.1615345,0.006127700969158305,0.0014947785916496002,0.02209489440261887,0.005330503666183816,0.0059210293205188905,0.010962389190571697,0.01820746830342792,0.03935008199672075
0.162,0.006273863904409594,0.0014723286467840904,0.02205267342298142,0.005266005143601114,0.0059831853144541826,0.010804677841632736,0.01834397582849111,0.039331147297719714
0.1624655,0.0064225234207100895,0.0014505184841862083,0.0220107462215807,0.0052018253722940265,0.006047917732292263,0.01064968419790319,0.018483424220368534,0.039311758316495124
0.162931,0.006573679318158554,0.0014293449489199749,0.021969121522609398,0.0051379711897096845,0.00611523917489095,0.010497425149975178,0.018625832205674743,0.03929189462399365
0.1633966,0.006727330943758844,0.001408804849581011,0.021927808047368044,0.005074449354485797,0.006185161776854773,0.010347917230517208,0.018771218070990695,0.03927153578870973
0.1638621,0.006883477188436362,0.0013888949603649402,0.021886814512358792,0.005011266545704809,0.006257697199721418,0.01020117661400584,0.01891959965357344,0.0392506613851845
0.1643276,0.007042116484131977,0.001369612023121676,0.021846149627346295,0.004948429362166262,0.006332856625216466,0.010057219116474968,0.01907099433209273,0.03922925100250794
0.1647931,0.007203246800975114,0.0013509527493951903,0.02180582209338777,0.004885944321677134,0.0064106507485794835,0.009916060195281476,0.019225419017397695,0.03920728425282278
0.1652586,0.007366865644537695,0.0013329138224483436,0.0217658406008342,0.004823817860359954,0.006491089771964555,0.009777714948886027,0.019382890143316914,0.03918474077982847
0.1657241,0.007532970053170549,0.0013154918992723617,0.02172621382730451,0.004762056331978427,0.006574183397918383,0.009642198116647788,0.019543423657495243,0.03916160026728328
0.1661897,0.007701556595423903,0.0012986836125805318,0.021686950435634275,0.004700666007280309,0.006659940822939155,0.009509524078631957,0.019707035012271126,0.03913784244750252
0.1666552,0.007872621367553562,0.0012824855727856846,0.02164805907180056,0.004639653073357237,0.0067483707311193795,0.00937970685542903,0.0198737391555981,0.03911344710985098
0.1671207,0.00804615999111439,0.001266894369961022,0.02160954836282432,0.004579023633021249,0.006839481287875937,0.009252760107984818,0.020043550522014314,0.03908839410922729
0.1675862,0.008222167610642766,0.0012519065757838437,0.021571426914651873,0.004518783704197723,0.006933280133770595,0.009128697137440285,0.020216483023663953,0.03906266337453815
0.1680517,0.008400638891429685,0.0012375187454617236,0.021533703310016878,0.004458939219334469,0.007029774378424234,0.009007530884980335,0.02039255004137432,0.0390362349171599
0.1685172,0.008581568017386253,0.0012237274196406746,0.021496386106284404,0.004399496024826763,0.007128970594528048,0.008889273931690762,0.02057176441579222,0.039009088839384955
0.1689828,0.008764948689003299,0.0012105291262948382,0.021459483833278767,0.004340459880458096,0.007230874811954959,0.008773938498422706,0.020754138438583213,0.038981205342850316
0.1694483,0.008950774121406893,0.0011979203825972322,0.02142300499109661,0.0042818364588564865,0.007335492511974447,0.008661536445664147,0.020939683843697113,0.03895256473694514
0.1699138,0.009139037042511528,0.0011858976967710991,0.021386958047906746,0.004223631344966228,0.007442828621574011,0.008552079273418087,0.02112841179870304,0.03892314744719417
0.1703793,0.009329729691272695,0.001174457569921386,0.0213513514377381,0.0041658500355349565,0.007552887507890368,0.008445578121087193,0.021320332896197218,0.038892934023613664
0.1708448,0.00952284381604055,0.0011635964978458993,0.021316193558256983,0.004108497938616019,0.007665672972753509,0.008342043767364736,0.021515457145286514,0.03886190514903623
0.1713103,0.009718370673016287,0.0011533109728256714,0.021281492768534832,0.004051580373086117,0.007781188247346641,0.008241486630131717,0.021713793963150815,0.03883004164740104
0.1717759,0.009916301024812807,0.0011435974853940746,0.021247257386807585,0.003995102568178294,0.007899435986984995,0.008143916766359977,0.021915352166686865,0.03879732449200584
0.1722414,0.010116625139121226,0.0011344525260842142,0.02121349568822774,0.003939069663030387,0.008020418266016417,0.00804934387202112,0.022120139964236316,0.03876373481371737
0.1727069,0.010319332787484741,0.001125872587154124,0.02118021590261008,0.0038834867062491367,0.008144136572846596,0.007957777282000991,0.02232816494740033,0.03872925390913657
0.1731724,0.010524413244181347,0.0011178541642892898,0.021147426212172027,0.003828358655490214,0.008270591805091754,0.007869225970019435,0.0225394340829432,0.03869386324871517
0.1736379,0.01073185528521684,0.0011103937582820258,0.02111513474926947,0.003773690377054432,0.008399784264861522,0.007783698548555211,0.02275395370478719,0.03865754448481978
0.1741034,0.010941647187429604,0.001103487876687231,0.02108334959412874,0.0037194866455004297,0.008531713654174737,0.0077012032687759305,0.022971729506100883,0.03862027945973983
0.174569,0.01115377672770856,0.0010971330354540584,0.02105207877257556,0.00366575214327412,0.008666379070510802,0.007621748020473114,0.023192766531483416,0.03858205021363548
0.1750345,0.011368231182325706,0.0010913257605330259,0.021021330253761572,0.0036124914603551865,0.008803779002499209,0.007545340332002634,0.023417069169246865,0.038542838992421426
0.1755,0.011584997326384572,0.0010860625894580996,0.020991111947889093,0.0035597090939208866,0.00894391132574978,0.007471987370230925,0.02364464114379911,0.03850262825558273
0.1759655,0.01180406143338589,0.0010813400729032757,0.02096143170393469,0.0035074094480274215,0.009086773298826132,0.007401695940487486,0.023875485508129547,0.0384614006839186
0.176431,0.012025409274911754,0.0010771547762131854,0.020932297307372148,0.0034555968333091027,0.00923236155936478,0.007334472486524216,0.02410960463639988,0.03841913918721027
0.1768966,0.01224902612042947,0.0010735032809072633,0.020903716477895358,0.0034042754666955355,0.009380672120342312,0.007270323090482131,0.024347000216642364,0.03837582691180938
0.1773621,0.012474896737216273,0.0010703821861570378,0.020875696867141684,0.0033534494711470165,0.009531700366492929,0.007209253472866015,0.024587673243568135,0.03833144724814344
0.1778276,0.012703005390405999,0.001067788110236117,0.020848246056416324,0.0033031228754083174,0.009685441050878587,0.007151268992527474,0.024831624011488355,0.03828598383813521
0.1782931,0.012933335843158823,0.0010657176919424709,0.020821371554418273,0.00325329961378103,0.009841888291613938,0.007096374646656872,0.02507885210735118,0.03823942058253276
0.1787586,0.013165871356955065,0.001064167591992629,0.020795080794968383,0.0032039835259145897,0.010001035568748146,0.007044575070784542,0.02532935640389759,0.03819174164814704
0.1792241,0.013400594692014092,0.0010631344943874282,0.020769381134740188,0.003155178356616105,0.010162875721305607,0.006995874538791611,0.025583135052939368,0.038142931474993605
0.1796897,0.013637488107839303,0.0010626151077489671,0.020744279850994325,0.003106887755679075,0.010327400944487515,0.006950276962930754,0.025840185478762306,0.03809297478333556
0.1801552,0.013876533363890192,0.0010626061666284335,0.020719784139317667,0.0030591152777310615,0.010494602787036124,0.006907785893857157,0.026100504371657902,0.03804185658062463
0.1806207,0.014117711720382538,0.0010631044327844862,0.020695901111368598,0.0030118643821003786,0.010664472148763534,0.006868404520669947,0.02636408768158705,0.03798956216833811
0.1810862,0.014361003939217817,0.001064106696431877,0.020672637792630153,0.002965138432701829,0.010836999278246703,0.006832135670964357,0.026630930611979416,0.03793607714870936
0.1815517,0.014606390285043003,0.001065609777460007,0.020650001120172946,0.0029189406979415154,0.011012173770690397,0.006798981810894884,0.026901027613672496,0.03788138743134991
0.1820172,0.014853850526441987,0.0010676105266211181,0.02062799794042998,0.002873274350640723,0.011189984565959665,0.00676894504524974,0.02717437237899428,0.03782547923976119
0.1824828,0.015103363937259999,0.0010701058266878144,0.02060663500698554,0.002828142467978851,0.011370419946783413,0.006742027117536845,0.02745095783599365,0.037768339117734105
0.1829483,0.01535490929806241,0.0010730925935796207,0.02058591897838052,0.002783548031455345,0.011553467537130598,0.006718229410081703,0.027730776142822728,0.037709953935634435
0.1834138,0.015608464897729274,0.001076567777458275,0.020565856415936952,0.0027394939268705677,0.011739114300760512,0.006697552944137453,0.028013818682275315,0.03765031089657236
0.1838793,0.01586400853518698,0.0010805283637914617,0.020546453781604496,0.002695982944325512,0.011927346539948579,0.006679998380007465,0.028300076056485806,0.03758939754245409
0.1843448,0.016121517521278328,0.0010849713743846905,0.020527717435832045,0.002653017778240263,0.012118149894389,0.0066655660171809124,0.02858953808179286,0.037527201759913684
0.1848103,0.01638096868077228,0.0010898938683810268,0.020509653635467442,0.002610601027391086,0.012311509340275643,0.006654255794481815,0.028882193783772162,0.03746371178612244
0.1852759,0.016642338354514598,0.001095292943228392,0.020492268531688406,0.002568735194966018,0.012507409189562405,0.00664606729023213,0.02917803139244272,0.03739891621447378
0.1857414,0.01690560240172052,0.001101165735614154,0.020475568167967632,0.0025274226886388474,0.012705833089404305,0.006640999722429532,0.029477038337651064,0.03733280400014086
0.1862069,0.017170736202410677,0.001107509422366751,0.020459558478074878,0.0024866658206613365,0.012906764021780495,0.006639051948940625,0.029779201244637805,0.03726536446550411
0.1866724,0.017437714659991325,0.0011143212213241011,0.02044424528411885,0.0024464668079735405,0.013110184303300326,0.006640222467710433,0.03008450592979086,0.03719658730544576
0.1871379,0.017706512203980035,0.0011215983921685788,0.020429634294631748,0.0024068277723320658,0.013316075585193547,0.006644509416989095,0.03039293739658962,0.03712646259250812
0.1876034,0.017977102792877956,0.0011293382372283356,0.020415731102699383,0.0023677507404560984,0.01352441885348565,0.006651910575576808,0.030704479831743972,0.03705498078191245
0.188069,0.018249459917189827,0.0011375381022447613,0.020402541184139956,0.002329237644191016,0.013735194429359335,0.006662423363088171,0.03101911660153222,0.03698213271643519
0.1885345,0.018523556602592937,0.001146195377105881,0.020390069895734803,0.002291290320689387,0.013948381969702972,0.006676044840237111,0.03133683024834192,0.03690790963113807
0.189,0.01879936541325622,0.0011553074965455004,0.02037832247351439,0.002253910512609139,0.014163960467846893,0.00669277170914359,0.031657602487417655,0.036832303157949234
0.1894655,0.01907685845531069,0.001164871940807917,0.020367304031103064,0.0022170998683286648,0.014381908254488266,0.006712600313663349,0.03198141420381994,0.036755305330092324
0.189931,0.019356007380472502,0.0011748862362780312,0.020357019558125983,0.002180859942178628,0.014602202998805217,0.0067355266397418605,0.03230824544959945,0.036676908586360586
0.1903966,0.0196367833898198,0.0011853479560766976,0.02034747391868195,0.0021451921946902207,0.014824821709760789,0.006761546315793674,0.03263807544119065,0.03659710577523315
0.1908621,0.019919157237724555,0.0011962547206211661,0.02033867184988573,0.002110097992859604,0.015049740737597258,0.006790654613108253,0.03297088255702892,0.036515890158830444
0.1913276,0.02020309923594045,0.0012076041981504558,0.02033061796048352,0.0020755786104282655,0.015276935775521304,0.006822846446283397,0.033306644335394854,0.036433255416705675
0.1917931,0.020488579257847778,0.0012193941052155049,0.020323316729545193,0.002041635228179022,0.0155063818615804,0.0068581163736873086,0.03364533747248939,0.03634919564946938
0.1922586,0.020775566742856272,0.0012316222071339315,0.020316772505236752,0.002008268934247381,0.015738053380730813,0.006896458597950314,0.033986937820743225,0.03626370538224409
0.1927241,0.02106403070096665,0.0012442863184092409,0.020310989503676415,0.0019754807244479694,0.015971924067097427,0.006937866966487351,0.034331420387363455,0.03617677956794646
0.1931897,0.02135393971749171,0.0012573843031143102,0.020305971807877597,0.001943271502615737,0.016207967006425534,0.0069823349720523785,0.034678759333120604,0.03608841359039446
0.1936552,0.021645261957937634,0.001270914075238989,0.020301723366782022,0.0019116420809616274,0.01644615463872462,0.0070298557533259734,0.03502892797137864,0.03599860326723736
0.1941207,0.0219379651730462,0.0012848735990016633,0.020298247994386055,0.0018805931804424052,0.016686458761104108,0.007080422095537491,0.035381898767370544,0.03590734485270607
0.1945862,0.022232016703998488,0.0012992608891246463,0.0202955493689633,0.0018501254311443125,0.016928850530800916,0.0071340264311232455,0.03573764333772194,0.03581463504018172
0.1950517,0.02252738348778053,0.0013140740110732854,0.0202936310323864,0.0018202393726802276,0.017173300468398704,0.00719066084042218,0.03609613245022496,0.03572047096458019
0.1955172,0.02282403206271122,0.0013293110812587017,0.02029249638955088,0.001790935454599976,0.017419778461238582,0.007250317052410542,0.03645733602386459,0.03562485020455059
0.1959828,0.023121928574132537,0.0013449702672041096,0.020292148707903846,0.0017622140368134375,0.01766825376702096,0.007312986445477041,0.03682122312909963,0.035527770784485754
0.1964483,0.02342103878026209,0.0013610497876746996,0.02029259111708008,0.001734075390026087,0.01791869501759812,0.00737866004824001,0.03718776198840024,0.03542923117634284
0.1969138,0.023721328058207727,0.001377547912771087,0.020293826608648143,0.0017065196961866004,0.01817107022295695,0.00744732854040807,0.037556919977044335,0.035329230301272295
0.1973793,0.024022761410143725,0.0013944629639863482,0.020295858035968898,0.0016795470489461663,0.018425346775391156,0.00751898225368578,0.03792866362417449,0.03522776753105349
0.1978448,0.024325303469648,0.001411793314226687,0.020298688114168743,0.0016531574541291361,0.018681491453862123,0.00759361117272572,0.03830295861411746,0.03512484268933566
0.1983103,0.02462891850819955,0.0014295373877957847,0.020302319420229704,0.0016273508302146586,0.018939470428547416,0.007671204936128431,0.038679769787967846,0.03502045605268301
0.1987759,0.024933570441835157,0.0014476936603428914,0.020306754393198425,0.0016021270088289572,0.019199249265575924,0.007751752837491582,0.039059061145437564,0.03491460835142368
0.1992414,0.025239222837964266,0.0014662606587747084,0.020311995334515862,0.001577485735247927,0.01946079293194859,0.0078352438265097,0.039440795846972555,0.034807300770302606
0.1997069,0.025545838922340948,0.0014852369611311155,0.020318044408469408,0.0015534266689097552,0.019724065800643755,0.007921666510125741,0.03982493621613796,0.03469853494893866
0.2001724,0.025853381586191552,0.0015046211964247866,0.020324903642768895,0.001529949383937287,0.01998903165590631,0.008011009153735739,0.040211443742272965,0.034588312982086866
0.2006379,0.026161813393496564,0.0015244120444447278,0.020332574929247907,0.0015070533696698652,0.02025565369871983,0.008103259682447708,0.04060027908341647,0.034476637419706385
0.2011034,0.026471096588425058,0.0015446082355237702,0.020341060024691545,0.001484738031204379,0.020523894552461026,0.008198405682395908,0.040991402069504634,0.03436351126683524
0.201569,0.026781193102919935,0.001565208550270056,0.02035036055179175,0.001463002689945249,0.020793716268735597,0.008296434402111532,0.041384771705841504,0.034248937983273026
0.2020345,0.02709206456443202,0.0015862118192625611,0.020360478000231084,0.001441846584163078,0.02106508033339462,0.008397332753950828,0.041780346176843904,0.03413292148307344
0.2025,0.027403672303801033,0.001607616922710701,0.020371413727895818,0.0014212688695616812,0.021337947672730433,0.008501087315581616,0.0421780828500617,0.03401546613384875
0.2029655,0.027715977363281217,0.0016294227900780893,0.02038316896221898,0.001401268619853213,0.021612278659850784,0.008607684331529138,0.04257793828047444,0.0338965767558887
0.203431,0.028028940504709346,0.0016516283996705168,0.02039574480165404,0.0013818448273410853,0.021888033121230017,0.00871710971478213,0.04297986821506529,0.033776258621096344
0.2038966,0.028342522217812798,0.0016742327781882407,0.02040914221727967,0.0013629964035103653,0.022165170343435937,0.008829349048459978,0.043383827597673244,0.03365451745174368
0.2043621,0.028656682728655142,0.0016972350002426911,0.020423362054536133,0.001344722179625332,0.02244364908003089,0.00894438758754178,0.043789770574124455,0.033531359419049556
0.2048276,0.028971382008216667,0.001720634187837737,0.020438405035093473,0.001327020907333855,0.022723427558645634,0.009062210260658062,0.04419765049764336,0.03340679114158277
0.2052931,0.029286579781106988,0.001744429509815692,0.02045427175885193,0.0013098912592782528,0.02300446348822443,0.00918280167194588,0.04460741993454421,0.03328081968349281
0.2057586,0.029602235534406933,0.001768620181268273,0.020470962706074635,0.001293331829712276,0.02328671406643973,0.009306146102967998,0.045019030670203186,0.033153452552570614
0.2062241,0.029918308526636607,0.0017932054629127808,0.020488478239652812,0.00127734113512385,0.023570135987274757,0.009432227514696722,0.045432433715311,0.03302469769814184
0.2066897,0.030234757796846392,0.0018181846604338036,0.020506818607503405,0.0012619176148632215,0.023854685448772086,0.009561029549562984,0.045847579312405476,0.032894563508794765
0.2071552,0.030551542173827485,0.001843557123790786,0.020525983945099077,0.0012470596317761505,0.024140318160946254,0.009692535533571201,0.04626441694268349,0.03276305880994525
0.2076207,0.030868620285438225,0.0018693222464918457,0.02054597427813041,0.001232765472841805,0.02442698935385827,0.009826728478480377,0.04668289533309092,0.032630192861240935
0.2080862,0.03118595056804235,0.001895479464834258,0.020566789525300024,0.0012190333498150363,0.024714653785849663,0.009963591084051922,0.04710296246368935,0.032495975353806834
0.2085517,0.03150349127605499,0.001922028257112046,0.02058842950124819,0.001205861399872729,0.02500326575193373,0.01010310574036463,0.04752456557529779,0.03236041640733425
0.2090172,0.031821200491592046,0.00194896814279113,0.020610893919609408,0.0011932476862639386,0.02529277909234148,0.01024525453019722,0.04794765117740743,0.032223526567015104
0.2094828,0.032139036134218354,0.0019762986816524992,0.020634182396199297,0.001181190198963548,0.025583147201219684,0.010390019231478906,0.04837216505636735,0.03208531680032372
0.2099483,0.03245695597079006,0.002004019472903864,0.020658294452330927,0.0011696868553291765,0.02587432303547854,0.010537381319808465,0.04879805228383874,0.03194579849364831
0.2104138,0.03277491762538618,0.002032130154260253,0.020683229518259662,0.0011587355007610823,0.026166259123786555,0.0106873219710423,0.04922525722551468,0.031804983448774124
0.2108793,0.03309287858932436,0.002060630400994021,0.020708986936755255,0.0011483339093648047,0.02645890757571038,0.010839822063952098,0.04965372355010239,0.03166288387922035
0.2113448,0.03341079623125548,0.0020895199249547454,0.020735565966799967,0.0011384797846162912,0.02675222009099755,0.010994862182952685,0.05008339423856467,0.0315195124064327
0.2118103,0.033728627807331796,0.0021187984735595057,0.02076296578741113,0.001129170760029258,0.027046147969000338,0.011152422620900687,0.05051421159361645,0.03137488205583345
0.2122759,0.03404633047144279,0.00214846582875406,0.020791185501586585,0.0011204043998245304,0.027340642118239132,0.01131248338196456,0.0509461172494726,0.03122900625273076
0.2127414,0.03436386128551302,0.002178521805945466,0.020820224140371157,0.0011121781996011103,0.0276356530661039,0.011475024184566529,0.051379052181842674,0.031081898818089006
0.2132069,0.03468117722985598,0.0022089662529067296,0.020850080667042317,0.0011044895870087072,0.027931130968692174,0.011640024464396898,0.05181295671816822,0.03093357396416206
0.2136724,0.03499823521357776,0.002239799048654112,0.020880753981412987,0.0010973359224214782,0.028227025620782137,0.011807463377501179,0.05224777054809793,0.030784046289991474
0.2141379,0.03531499208502421,0.002271020102297764,0.020912242924249334,0.001090714499612717,0.028523286465939143,0.011977319803440323,0.05268343273419596,0.03063333077677137
0.2146034,0.035631404642265205,0.002302629351866415,0.020944546281801337,0.0010846225464302393,0.02881986260675411,0.012149572348524398,0.053119881722878605,0.03048144278308193
0.215069,0.03594742964360966,0.002334626763106876,0.02097766279044384,0.0010790572254722065,0.029116702815212073,0.012324199349119817,0.05355705535557445,0.03032839803999314
0.2155345,0.03626302381814521,0.0023670123282591373,0.02101159114142561,0.0010740156347631307,0.029413755543189576,0.012501178875030203,0.05399489088010344,0.03017421264604023
0.216,0.03657814387629627,0.0023997860648078627,0.021046329985723915,0.0010694948084297926,0.029710968933079583,0.012680488732950834,0.054433324962269866,0.030018903062072052
0.2164655,0.03689274652039475,0.0024329480142111022,0.02108187793900202,0.001065491717376798,0.030008290828542724,0.012862106469996555,0.0548722936976648,0.029862486105973505
0.216931,0.03720678845525733,0.0024664982406070466,0.02111823358666693,0.0010620032699614952,0.03030566878538399,0.013046009377302908,0.055311732623673136,0.029704978947262917
0.2173966,0.03752022639876357,0.0025004368294996525,0.02115539548902454,0.0010590263126679666,0.03060305008255408,0.01323217449370012,0.05575157673168059,0.029546399101565275
0.2178621,0.037833017092429075,0.0025347638864239613,0.021193362186529386,0.0010565576307798113,0.030900381733274706,0.013420578609459534,0.05619176047947625,0.029386764424962398
0.2183276,0.03814511731196844,0.0025694795355919262,0.021232132205125973,0.0010545939490514342,0.03119761049628732,0.013611198270111978,0.056632217803846585,0.029226093108221437
0.2187931,0.03845648387784274,0.002604583918519558,0.021271704061678574,0.001053131932377568,0.0314946828872248,0.013804009780337497,0.057072882133356685,0.029064403670903467
0.2192586,0.038767073665786786,0.00264007719263619,0.021312076269486297,0.0010521681864607633,0.03179154519010561,0.013998989207925812,0.05751368640131535,0.02890171495535409
0.2197241,0.03907684361731154,0.002675959529876665,0.021353247343880038,0.001051699258476593,0.03208814346894994,0.014196112387806917,0.05795456305892019,0.028738046120578176
0.2201897,0.03938575075017699,0.0027122311152572277,0.021395215807897886,0.0010517216377363197,0.03238442357951703,0.01439535492615113,0.05839544408857956,0.028573416636001006
0.2206552,0.039693752168830754,0.002748892145435931,0.021437980198035337,0.0010522317563467886,0.032680331181162765,0.014596692204537819,0.058836261017407944,0.028407846275118297
0.2211207,0.04000080507480764,0.0027859428272583417,0.021481539070066523,0.0010532259898673037,0.03297581174881657,0.01480009938419203,0.05927694493089125,0.028241355109037733
0.2215862,0.040306866777084956,0.0028233833762893504,0.021525891004932476,0.0010547006579632657,0.033270810585076055,0.015005551410288056,0.059717426486718544,0.028073963499915002
0.2220517,0.04061189470238842,0.002861214015331874,0.021571034614692352,0.0010566520250563614,0.03356527283241813,0.015213023016318935,0.0601576359287765,0.02790569209428748
0.2225172,0.04091584640544334,0.002899434972933251,0.021616968548533295,0.001059076300971115,0.033859143485524934,0.015422488728530777,0.060597503101302505,0.02773656181630883
0.2229828,0.04121867957916575,0.002938046481880119,0.02166369149883441,0.0010619696415776329,0.03415236740372284,0.015633922870420713,0.061036957463192223,0.0275665938608879
0.2234483,0.04152035206478866,0.002977048777682554,0.021711202207280175,0.0010653281494304035,0.03444488932353271,0.01584729956729714,0.061475928102457444,0.027395809686735238
0.2239138,0.0418208218619184,0.003016442097048242,0.021759499471018472,0.0010691478744030277,0.034736653871329536,0.01606259275090089,0.06191434375082969,0.027224231009320532
0.2243793,0.04212004713851694,0.0030562266763474663,0.021808582148858103,0.0010734248143187781,0.03502760557610949,0.01627977616408589,0.06235213279850529,0.027051879793744255
0.2248448,0.04241798624080579,0.003096402750069705,0.021858449167500637,0.0010781549155768938,0.03531768888236211,0.016498823365557705,0.06278922330902773,0.026878778247526647
0.2253103,0.04271459770308773,0.0031369705492726397,0.021909099527801124,0.0010833340737745286,0.03560684816304549,0.01671970773466842,0.06322554303430285,0.026704948813316847
0.2257759,0.043009840257482425,0.0031779303000244036,0.021960532311052064,0.0010889581343242727,0.03589502773266248,0.016942402476266116,0.06366101942974249,0.026530414161525063
0.2262414,0.04330367284357201,0.0032192822218399314,0.0220127466852848,0.001095022893067173,0.03618217186043586,0.017166880625597163,0.06409557966953201,0.026355197182880354
0.2267069,0.043596054617952455,0.0032610265261122993,0.02206574191158238,0.0011015240968811739,0.0364682247835809,0.01739311505325949,0.06452915066201736,0.026179320980916642
0.2271724,0.04388694496368637,0.0033031634145399467,0.022119517350397692,0.0011084574442849057,0.03675313072067397,0.01762107847020479,0.06496165906520754,0.026002808864389524
0.2276379,0.04417630349965247,0.003345693077550702,0.022174072467870582,0.0011158185860367501,0.03703683388511576,0.017850743432787607,0.0653930313023889,0.02582568433962642
0.2281034,0.04446409008978687,0.0033886156927235346,0.02222940684213737,0.0011236031257291115,0.037319278498687894,0.018082082347859112,0.06582319357784842,0.025647971102812785
0.228569,0.044750264852211105,0.0034319314232089315,0.022285520169626136,0.0011318066203778252,0.037600408805201276,0.018315067477903253,0.06625207189270335,0.025469693032217196
0.2290345,0.04503478816824176,0.0034756404161487816,0.022342412271330957,0.001140424581006629,0.03788016908423452,0.018549670946212907,0.06667959206083515,0.025290874180358455
0.2295,0.045317620691276234,0.0035197428010966393,0.02240008309905821,0.001149452473226633,0.03815850366496047,0.018785864742103583,0.06710567972492544,0.02511153876611812
0.2299655,0.04559872335554905,0.0035642386884392227,0.022458532741637876,0.0011588857178107415,0.03843535694005852,0.01902362072616199,0.06753026037259152,0.024931711166802095
0.230431,0.04587805738475303,0.00360912816781998,0.022517761431092714,0.0011687196912629947,0.038710673379710285,0.0192629106355268,0.06795325935261927,0.024751415910154957
0.2308966,0.04615558430051923,0.0036544113065655596,0.02257776954875818,0.0011789497263828368,0.038984397545676286,0.019503706089198644,0.06837460189129134,0.02457067766633071
0.2313621,0.04643126593074964,0.003700088148116013,0.022638557631345892,0.0011895711128243338,0.03925647410545124,0.019745978593376384,0.06879421310880963,0.024389521239823596
0.2318276,0.046705064417796906,0.003746158710459568,0.02270012637694371,0.001200579097650402,0.0395268478464959,0.019989699546816512,0.06921201803581127,0.02420797156136252
0.2322931,0.04697694222648548,0.003792622984572802,0.02276247665094575,0.0012119688858821323,0.03979546369054356,0.020234840246212516,0.06962794162997832,0.02402605367977248
0.2327586,0.04724686215196975,0.003839480932867045,0.02282560949190624,0.0012237356410433322,0.04006226670797946,0.020481371891591035,0.07004190879274146,0.023843792753806593
0.2332241,0.047514787327425145,0.003886732487641873,0.022889526117311685,0.001235874485700433,0.040327202132291316,0.02072926559172165,0.07045384438607818,0.023661214043952255
0.2336897,0.04778068123156935,0.003934377549546543,0.022954227929266335,0.001248380501997937,0.040590215374589185,0.020978492369537208,0.07086367324940564,0.023478342904215188
0.2341552,0.04804450769601164,0.003982415986050266,0.02301971652008684,0.0012612487321895962,0.04085125203819256,0.021229023167561624,0.07127132021656803,0.023295204773885365
0.2346207,0.04830623091242878,0.004030847629922222,0.023085993677802112,0.0012744741791655227,0.041110257933282594,0.02148082885334221,0.07167671013291856,0.02311182516928899
0.2350862,0.04856581543956694,0.0040796722777222605,0.02315306139155474,0.0012880518069754241,0.04136717909161686,0.021733880224883474,0.07207976787249518,0.022928229675530657
0.2355517,0.04882322621006871,0.004128889688303255,0.023220921856900497,0.0013019765413481627,0.04162196178130407,0.021988148016079265,0.07248041835528908,0.022744443938229924
0.2360172,0.04907842853712472,0.00417849958132609,0.023289577481002504,0.0013162432702078241,0.04187455252163593,0.022243602902140135,0.07287858656460502,0.022560493655256395
0.2364828,0.04933138812094914,0.0042285016357882866,0.02335903088771681,0.0013308468441864825,0.042124898097973026,0.022500215505012463,0.07327419756451171,0.02237640456846743
0.2369483,0.049582071055078,0.004278895488567264,0.023429284922566407,0.001345782077133845,0.042372945576681566,0.022757956398785972,0.07366717651738053,0.022192202455452496
0.2374138,0.04983044383248924,0.004329680732979248,0.023500342657600745,0.001361043746623948,0.04261864232011751,0.02301679611508611,0.07405744870151058,0.022007913121288365
0.2378793,0.05007647335154321,0.0043808569173547935,0.02357220739613782,0.0013766265944590839,0.042861936001654784,0.023276705148447697,0.07444493952883739,0.02182356239030937
0.2383448,0.05032012692174233,0.004432423543631916,0.023644882677385962,0.001392525327171113,0.043102774620754195,0.023537653961666197,0.074829574562722,0.02163917609789706
0.2388103,0.050561372269308485,0.004484380065967772,0.023718372280942174,0.0014087346165203222,0.04334110651806987,0.023799612991123115,0.07521127953581745,0.02145478008229378
0.2392759,0.050800177542576756,0.004536725889369789,0.023792680231163855,0.0014252490999919734,0.043576880390589975,0.024062552652082077,0.07558998036800867,0.021270400176444555
0.2397414,0.05103651131720406,0.004589460368347132,0.023867810801410545,0.001442063381290686,0.04381004530680863,0.0243264433439524,0.07596560318442205,0.02108606219987201
0.2402069,0.051270342601191315,0.004642582805583358,0.02394376851815248,0.0014591720308327794,0.04404055072192549,0.024591255455517207,0.0763380743335009,0.020901791950588743
0.2406724,0.051501640839717824,0.004696092450631062,0.024020558164942713,0.0014765695862367157,0.044268346493069446,0.024856959370123353,0.07670732040514247,0.020717615197051696
0.2411379,0.05173037591978669,0.004749988498629329,0.024098184786249834,0.0014942505528117893,0.04449338289454278,0.025123525470830584,0.07707326824889271,0.02053355767016283
0.2416034,0.0519565181746804,0.004804270089044723,0.024176653691148575,0.0015122094040452131,0.04471561063308162,0.025390924145517385,0.07743584499219394,0.020349645055320206
0.242069,0.05218003838822576,0.004858936304436571,0.024255970456865734,0.0015304405820877817,0.04493498086312848,0.02565912579194111,0.07779497805868099,0.02016590298452358
0.2425345,0.05240090779886811,0.004913986169247252,0.02433614093217883,0.0015489384982382965,0.04515144520211214,0.0259281008227499,0.07815059518652033,0.019982357028538324
0.243,0.05261909810355456,0.004969418648618222,0.024417171240665028,0.0015676975334269628,0.04536495574572993,0.02619781967044394,0.07850262444678698,0.01979903268912148
0.2434655,0.052834581461427034,0.005025232647232446,0.024499067783797897,0.00158671203869799,0.04557546508322741,0.026468252792283604,0.0788509942618737,0.01961595539131353
0.243931,0.05304733049732572,0.005081427008183936,0.02458183724388984,0.0016059763356916412,0.04578292631266972,0.026739370675141885,0.07919563342392713,0.019433150475799497
0.2443966,0.05325731830510437,0.005138000511875043,0.0246654865868783,0.001625484717125991,0.04598729305619897,0.027011143840298665,0.07953647111330538,0.019250643191342853
0.2448621,0.05346451845075912,0.005194951874942129,0.024750023064954135,0.0016452314472786657,0.046188519475271334,0.02728354284817432,0.0798734369170518,0.019068458687295713
0.2453276,0.0536689049753725,0.005252279749210216,0.02483545421903052,0.0016652107624688351,0.046386560285867615,0.027556538303000363,0.08020646084737953,0.018886622006188625
0.2457931,0.05387045239787444,0.005309982720677224,0.0249217878810506,0.00168541687153973,0.04658137077367033,0.027830100857424715,0.08053547336016105,0.01870515807640321
0.2462586,0.054069135717622493,0.005368059308528352,0.025009032176132175,0.0017058439563419538,0.04677290680920047,0.02810420121704929,0.08086040537341745,0.01852409170493084
0.2467241,0.0542649304168034,0.005426507964181151,0.025097195524547436,0.0017264861722178454,0.046961124862906656,0.028378810144897734,0.0811811882858023,0.018343447570220318
0.2471897,0.054457812462659246,0.005485327070361812,0.02518628664353578,0.0017473376484871516,0.04714598202019983,0.02865389846581145,0.08149775399507546,0.018163250215117364
0.2476552,0.05464775830954186,0.005544514940213141,0.025276314548947482,0.0017683924889342428,0.04732743599642614,0.02892943707077243,0.08181003491656214,0.017983524039898634
0.2481207,0.05483474490080003,0.005604069816434715,0.025367288556715998,0.0017896447722971097,0.04750544515177117,0.029205396921152007,0.08211796400159295,0.017804293295402795
0.2485862,0.05501874967050469,0.005663989870455597,0.02545921828415637,0.0018110885527583699,0.0476799685060886,0.02948174905288505,0.08242147475591997,0.017625582076261012
0.2490517,0.055199750545017585,0.0057242732016400295,0.02555211365108716,0.0018327178604385025,0.047850965753645835,0.029758464580569344,0.0827205012581036,0.01744741431422906
0.2495172,0.05537772594440888,0.005784917836526435,0.02564598488077317,0.0018545267018915397,0.04801839727777936,0.030035514701490233,0.08301497817786466,0.017269813771623177
0.2499828,0.05555265478372908,0.00584592172810005,0.025740842500686156,0.0018765090606034374,0.04818222416545193,0.030312870699570425,0.08330484079439587,0.017092804034861485
0.2504483,0.055724516474140486,0.005907282755099513,0.025836697343080965,0.001898658897493358,0.048342408221703624,0.030590503949245024,0.08359002501462692,0.016916408508112903
0.2509138,0.05589329092391303,0.005968998721357664,0.025933560545384485,0.0019209701514181013,0.048498911983988466,0.030868385919261873,0.08387046739143734,0.016740650407055135
0.2513793,0.056058958539289314,0.006031067355176865,0.02603144355039505,0.0019434367396799176,0.048651698736387985,0.03114648817640736,0.08414610514181178,0.016565552752743334
0.2518448,0.05622150022522361,0.006093486308739105,0.02613035810628983,0.001966052558537957,0.04880073252369276,0.031424782389157746,0.08441687616493278,0.016391138365590887
0.2523103,0.05638089738599931,0.006156253157551209,0.026230316266437848,0.0019888114837235994,0.04894597816534287,0.03170324033125622,0.08468271906020633,0.016217429859463693
0.2527759,0.05653713192572931,0.006219365399925439,0.02633133038901611,0.002011707370959923,0.04908740126921797,0.031981833885215756,0.08494357314521603,0.016044449635889135
0.2532414,0.05669018624874355,0.0062828204564958304,0.026433413136426432,0.0020347340564855847,0.04922496824526759,0.032260535045747676,0.08519937847360119,0.015872219878380882
0.2537069,0.05684004325986771,0.006346615669770585,0.026536577474510492,0.0020578853575833867,0.04935864631897213,0.03253931592311581,0.0854500758528546,0.015700762546880565
0.2541724,0.05698668636459739,0.006410748303720848,0.026640836671561068,0.0020811550731138196,0.0494884035446249,0.0328181487464161,0.08569560686203472,0.015530099372317255
0.2546379,0.057130099469171636,0.006475215543406165,0.026746204297127214,0.002104536984053859,0.049614208818425584,0.03309700586678104,0.0859359138693872,0.015360251851285558
0.2551034,0.057270266980549905,0.00654001449463691,0.02685269422061146,0.0021280248540412887,0.04973603189137533,0.03337585976050829,0.08617094004987044,0.015191241240843043
0.255569,0.05740717380629656,0.006605142183673932,0.026960320609657126,0.002151612429924812,0.04985384338196366,0.0336546830321126,0.08640062940257878,0.01502308855342766
0.2560345,0.057540805354377306,0.006670595556965711,0.027069097928323814,0.002175293442320198,0.049967614788637836,0.03393344841729991,0.08662492676805773,0.014855814551895625
0.2565,0.05767114753287164,0.006736371480923295,0.02717904093504924,0.0021990616061726975,0.05007731850204531,0.034212128785862175,0.08684377784550447,0.014689439744680214
0.2569655,0.05779818674960586,0.00680246674173334,0.027290164680395614,0.0022229106213259592,0.050182927817040535,0.034490697144491565,0.08705712920984657,0.014523984381071785
0.257431,0.057921909911711075,0.00686887804520961,0.027402484504578672,0.002246834173097638,0.050284416944447664,0.034769126639512156,0.08726492832869173,0.014359468446619294
0.2578966,0.0580423044251107,0.00693560201668329,0.027516016034777508,0.0022708259328618964,0.05038176102257072,0.03504739055952737,0.08746712357914095,0.01419591165865338
0.2583621,0.05815935819394177,0.007002635200932511,0.02763077518222336,0.002294879558638979,0.05047493612844307,0.035325462337981395,0.08766366426445762,0.014033333461931086
0.2588276,0.0582730596199139,0.007069974062151482,0.02774677813906552,0.0023189886956920254,0.0505639192888081,0.035603315555633015,0.08785450063058525,0.013871753024402094
0.2592931,0.0583833976016101,0.007137614983959596,0.027864041375012697,0.0023431469771313137,0.050648688490822796,0.0358809239429403,0.0880395838825062,0.013711189233096319
0.2597586,0.05849036153373312,0.007205554269450871,0.027982581633748328,0.0023673480245261233,0.05072922269247597,0.03615826138235524,0.08821886620043458,0.01355166069013253
0.2602241,0.05859394130630129,0.0072737881412840225,0.028102415929118402,0.002391585448524444,0.0508055018327129,0.0364353019105275,0.08839230075583587,0.013393185708847732
0.2606897,0.058694127303797784,0.007342312741813464,0.028223561541090365,0.002415852849480783,0.05087750684125792,0.03671201972041668,0.08855984172726572,0.013235782310046927
0.2611552,0.058790910404277245,0.007411124133261471,0.028346036011481588,0.002440143818092361,0.050945219648126476,0.036988389163313096,0.08872144431602047,0.013079468218372824
0.2616207,0.058884281978434365,0.007480218297931778,0.02846985713945588,0.002464451936043999,0.05100862319281811,0.037264384750766696,0.08887706476159093,0.012924260858795082
0.2620862,0.058974233888638476,0.007549591138464863,0.028595042976786507,0.002488770776662034,0.05106770143318159,0.03753998115642456,0.0890266603569108,0.012770177353218547
0.2625517,0.05906075848793883,0.00761923847813522,0.028721611822884335,0.002513093905577601,0.05112243935394291,0.03781515321777682,0.0891701894633908,0.012617234517209927
0.2630172,0.05914384861904465,0.007689156061190887,0.02884958221958992,0.0025374148813996416,0.05117282297488687,0.038089875937811234,0.08930761152573,0.012465448856842294
0.2634828,0.05922349761328421,0.007759339553235567,0.028978972945728654,0.002561727256397988,0.05121883935868269,0.038364124486576515,0.08943888708649521,0.01231483656565675
0.2639483,0.05929969928954693,0.007829784541653577,0.0291098030114285,0.0025860245771968642,0.05126047661834396,0.038637874202654514,0.08956397780045922,0.01216541352174067
0.2644138,0.05937244795321201,0.007900486536077915,0.029242091652200347,0.0026103003854791498,0.05129772392431347,0.038911100594541635,0.08968284644868842,0.012017195284921942
0.2648793,0.05944173839506718,0.007971440968901617,0.029375858322781227,0.0026345482187017403,0.05133057151116322,0.03918377934194006,0.08979545695236993,0.011870197094078671
0.2653448,0.059507565890220576,0.008042643195832592,0.029511122690741267,0.0026587616108223453,0.05135901068389991,0.03945588629695983,0.08990177438636912,0.011724433864563958
0.2658103,0.05956992619700855,0.00811408849649204,0.02964790462985532,0.002682934093038059,0.05138303382386641,0.039727397485233046,0.09000176499250853,0.01157992018574543
0.2662759,0.05962881555590223,0.008185772075056592,0.02978622421324059,0.0027070591945360504,0.051402634394229485,0.03999828910694191,0.09009539619256077,0.011436670318659284
0.2667414,0.059684230688415295,0.008257689060944236,0.02992610170626194,0.0027311304432566987,0.0514178069450452,0.04026853753776262,0.09018263660094923,0.011294698193778707
0.2672069,0.05973616879601504,0.0083298345095441,0.030067557559206894,0.002755141366669526,0.051428547117894075,0.040538119329727645,0.0902634560371509,0.011154017408896533
0.2676724,0.05978462755903855,0.008402203402990053,0.03021061239973301,0.00277908549256223,0.05143485165008003,0.04080701121200911,0.09033782553779728,0.011014641227122004
0.2681379,0.059829605135615326,0.008474790650978063,0.030355287025090598,0.002802956349843151,0.05143671837838864,0.04107519009162596,0.09040571736846943,0.010876582574991432
0.2686034,0.059871100160597435,0.008547591091627185,0.03050160239412414,0.0028267474693574883,0.051434146242401856,0.04134263305407774,0.09046710503518512,0.010739854040692536
0.269069,0.05990911174449787,0.008620599492383975,0.030649579619055792,0.0028504523847175936,0.051427135287368204,0.041609317363907904,0.09052196329557559,0.010604467872402119
0.2695345,0.05994363947243761,0.008693810550970047,0.030799239957054695,0.0028740646331476822,0.05141568666662846,0.04187522046519988,0.09057026816975068,0.010470435976736728
0.27,0.059974683403102,0.008767218896372438,0.03095060480159592,0.002897577756343279,0.051399802643597864,0.04214031998200946,0.09061199695085026,0.010337769917315916
0.2704655,0.06000224406770671,0.00884081908987636,0.03110369567361331,0.0029209853013457293,0.05137948659330627,0.0424045937187374,0.09064712821527995,0.010206480913437599
0.270931,0.06002632246897371,0.008914605626139854,0.031258534212450846,0.002944280821432095,0.05135474300349816,0.042668019660446366,0.09067564183262897,0.010076579838865013
0.2713966,0.060046920080117576,0.008988572934309836,0.0314151421666173,0.00296745787702074,0.05132557747529393,0.042930575973126356,0.09069751897526701,0.009948077220724673
0.2718621,0.060064038843842565,0.009062715379178932,0.03157354138434898,0.002990510036592911,0.05129199672341399,0.04319224100391257,0.09071274212761786,0.009820983238514654
0.2723276,0.060077681171350504,0.009137027262382505,0.03173375380398548,0.003013430877630624,0.05125400857596691,0.043452993281259816,0.0907212950951059,0.009695307723222472
0.2727931,0.06008784994135963,0.009211502823635205,0.031895801444163346,0.0030362139875711592,0.05121162197380293,0.04371281151507759,0.09072316301277246,0.009571060156551726
0.2732586,0.06009454849913426,0.009286136242006336,0.03205970639383247,0.003058852964778469,0.05116484696943391,0.04397167459683009,0.09071833235355854,0.009448249670256648
0.2737241,0.06009778065552485,0.009360921637233297,0.03222549080210031,0.0030813414195318112,0.05111369472552091,0.04422956159960584,0.0907067909362511,0.009326885045583605
0.2741897,0.06009755068601772,0.009435853071072349,0.03239317686790944,0.0031036729750318925,0.05105817751293033,0.04448645177816156,0.09068852793308975,0.009206974712818597
0.2746552,0.060093863329793246,0.009510924548685913,0.03256278682955411,0.0031258412684247987,0.0509983087083597,0.044742324568945106,0.09066353387703077,0.009088526750939728
0.2751207,0.06008672378879114,0.009586130020065621,0.03273434295404233,0.003147839951843968,0.05093410279153372,0.04499715959010217,0.09063180066866502,0.008971548887373615
0.2755862,0.06007613772678113,0.009661463381490274,0.032907867526310024,0.0031696626934704358,0.05086557534197141,0.045250936641471146,0.09059332158278634,0.008856048497854626
0.2760517,0.06006211126843733,0.009736918477017862,0.033083382838294165,0.0031913031786115708,0.05079274303532453,0.04550363570457032,0.0905480912746068,0.008742032606385836
0.2765172,0.060044650998414106,0.009812489100010728,0.033260911177871944,0.0032127551107984983,0.05071562363928759,0.04575523694258136,0.09049610578561529,0.008629507885300506
0.2769828,0.060023763960421535,0.00988816899469297,0.033440474817672865,0.0032340122129023586,0.050634236009079764,0.046005720700332604,0.0904373625490755,0.008518480655422846
0.2774483,0.05999945765629802,0.009963951857739132,0.03362209600377075,0.0032550682282695555,0.050548600082498715,0.04625506750428564,0.09037186039515971,0.00840895688632677
0.2779138,0.05997174004507795,0.01003983133989325,0.033805796944262535,0.0032759169218761113,0.05045873687454663,0.046503258062528065,0.09029959955571433,0.008300942196691292
0.2783793,0.05994061954205251,0.01011580104761728,0.03399159979774074,0.0032965520815012293,0.050364668471628876,0.04675027326477522,0.09022058166865318,0.008194441854751194
0.2788448,0.05990610501782214,0.010191854544767912,0.03417952666166662,0.0033169675189201274,0.05026641802532592,0.04699609418238333,0.09013480978197434,0.008089460778841475
0.2793103,0.05986820579733976,0.010267985354300698,0.03436959956065094,0.003337157071116198,0.05016400974573943,0.04724070206837622,0.09004228835739639,0.007986003538034105
0.2797759,0.05982693165894412,0.010344186960000439,0.03456184043464947,0.003357114601512508,0.05005746889441391,0.04748407835748708,0.08994302327360977,0.00788407435286552
0.2802414,0.0597822928333829,0.010420452808236648,0.03475627112708015,0.003376834001222646,0.04994682177683567,0.04772620466621704,0.08983702182913898,0.007783677096153325
0.2807069,0.059734300002825196,0.01049677630974302,0.03495291337286904,0.0033963091903208855,0.04983209573451113,0.047967062792911325,0.08972429274481086,0.007684815293900705
0.2811724,0.05968296429986322,0.010573150841419724,0.03515178878643197,0.0034155341191316013,0.049713319136626986,0.048206634717853906,0.08960484616582404,0.007587492126287005
0.2816379,0.05962829730650242,0.010649569748157367,0.03535291884959877,0.0034345027695378756,0.04959052137129462,0.04844490260338093,0.08947869366341454,0.007491710428742999
0.2821034,0.05957031105313885,0.01072602634468149,0.03555632489948709,0.0034532091563091952,0.04946373283638198,0.04868184879401295,0.08934584823611207,0.007397472693109415
0.282569,0.05950901801752261,0.010802513917416367,0.035762028116332695,0.0034716473284481233,0.0493329849299357,0.048917455816605906,0.08920632431058169,0.007304781068877284
0.2830345,0.05944443112370536,0.010879025726366967,0.03597004951128347,0.0034898113705558245,0.04919831004019693,0.04915170638052051,0.08906013774204617,0.0072136373645087706
0.2835,0.05937656374096988,0.010955555007017935,0.03618040991416451,0.003507695404216312,0.0490597415352142,0.04938458337780981,0.08890730581428305,0.007124043048837153
0.2839655,0.0593054296827394,0.011032094972248505,0.036393129961221675,0.0035252935893992873,0.04891731375205722,0.04961606988342492,0.08874784723919134,0.007035999252544668
0.284431,0.05923104320546372,0.01110863881426232,0.036608230082851224,0.0035426001258814423,0.04877106198563585,0.04984614915543918,0.08858178215592208,0.0069495067697169875
0.2848966,0.0591534190074793,0.011185179706531085,0.03682573049132307,0.003559609254686098,0.04862102247712909,0.05007480463529125,0.08840913212956725,0.0068645660594730895
0.2853621,0.05907257222783973,0.011261710805750991,0.037045651168505146,0.0035763152595410645,0.04846723240202955,0.05030201994804818,0.08822992014940159,0.006781177247669337
0.2858276,0.058988518445113006,0.011338225253810731,0.0372680118535964,0.0035927124683545896,0.04830972985780996,0.050527778902689474,0.08804417062667227,0.006699340128676583
0.2862931,0.058901273676141695,0.01141471617976996,0.03749283203087585,0.003608795254709274,0.048148553851218974,0.050752065492413456,0.08785190939193205,0.006619054167229144
0.2867586,0.05881085437476206,0.011491176701846944,0.03772013091747482,0.003624558039373794,0.04798374428521398,0.0509748638949669,0.08765316369191317,0.0065403185003444445
0.2872241,0.058717277430478214,0.011567599929414146,0.03794992745117947,0.003639995291832285,0.04781534194553933,0.05119615847299868,0.08744796218594107,0.006463131939312187
0.2876897,0.058620560167087346,0.01164397896500045,0.03818224027827032,0.003655101531831216,0.047643388486958566,0.05141593377443802,0.08723633494188819,0.006387492971751857
0.2881552,0.05852072034125175,0.011720306906298758,0.038417087741405585,0.0036698713309435754,0.04746792641914918,0.05163417453289785,0.08701831343166941,0.006313399763737386
0.2886207,0.05841777614101388,0.011796576848177674,0.03865448786755475,0.0036842993141501658,0.047288999092268635,0.051850865668103666,0.08679393052628107,0.006240850161987789
0.2890862,0.058311746184250196,0.011872781884696091,0.03889445835598919,0.0036983801614377918,0.04710665068220053,0.0520659922863484,0.08656322049038621,0.006169841696122571
0.2895517,0.05820264951705922,0.011948915111119576,0.03913701656633629,0.003712108609414108,0.04692092617548994,0.05227953968097366,0.08632621897644908,0.00610037158098069
0.2900172,0.05809050561207905,0.012024969625937493,0.03938217950670379,0.0037254794529388833,0.04673187135397717,0.052491493332877476,0.08608296301842253,0.006032436719001818
0.2904828,0.05797533436672914,0.012100938532879938,0.03962996382188084,0.0037384875467713925,0.04653953277913945,0.05270183891104867,0.08583349102499248,0.005966033702668642
0.2909483,0.05785715610137053,0.0121768149429336,0.0398803857816221,0.0037511278072336475,0.04634395777614973,0.0529105622731272,0.08557784277238385,0.005901158817008944
0.2914138,0.057735991557378595,0.012252591976355635,0.04013346126902122,0.0037633952138891313,0.04614519441766175,0.053117649465990145,0.08531605939673192,0.005837808042156175
0.2918793,0.05761186189512194,0.012328262764684735,0.040389205768979385,0.0037752848112366723,0.04594329150733041,0.05332308672636215,0.08504818338602328,0.005775977055967257
0.2923448,0.0574847886918407,0.012403820452748526,0.04064763435677476,0.003786791710419075,0.04573829856307611,0.053526860481449584,0.0847742585716099,0.005715661236696356
0.2928103,0.057354793939417156,0.012479258200666374,0.04090876168673812,0.003797911090946075,0.045530265800101645,0.0537289573495972,0.08449433011930031,0.005656855665723366
0.2932759,0.05722190004203158,0.012554569185846685,0.04117260198103986,0.0038086382024311812,0.045319244113669936,0.05392936414096603,0.08420844452003139,0.005599555130335879
0.2937414,0.057086129813695624,0.012629746604977789,0.04143916901859326,0.003818968366341925,0.045105285061650895,0.05412806785823149,0.083916649580124,0.005543754126563432
0.2942069,0.056947506475655815,0.012704783676011537,0.041708476124078686,0.003828896977763031,0.044888440846845526,0.054325055697300416,0.08361899441112587,0.005489446862062899
0.2946724,0.056806053653659705,0.012779673640138772,0.041980536157092976,0.0038384195071719863,0.04466876429909525,0.05452031504804639,0.08331552941924517,0.005436627259053934
0.2951379,0.056661795375077886,0.012854409763755861,0.04225536150142816,0.0038475315022264774,0.04444630885718447,0.05471383349506268,0.08300630629437862,0.005385288957303445
0.2956034,0.056514756065875534,0.012928985340421488,0.04253296405448332,0.0038562285895631316,0.04422112855054431,0.05490559881843257,0.08269137799873905,0.005335425317158126
0.296069,0.05636496054742825,0.013003393692802828,0.042813355216813204,0.003864506476606974,0.043993277980765085,0.05509559899451714,0.08237079875508722,0.005287029422624203
0.2965345,0.05621243403317793,0.013077628174610233,0.04309654588181706,0.0038723609533909964,0.04376281230292541,0.05528382219676039,0.08204462403457388,0.005240094084493595
0.297,0.05605720212512559,0.013151682172519474,0.04338254642557095,0.003879787894385212,0.04352978720674515,0.05547025679651227,0.08171291054419745,0.005194611843515728
0.2974655,0.05589929081015902,0.01322554910808053,0.04367136669680692,0.0038867832603345603,0.04329425889756966,0.05565489136386978,0.08137571621388352,0.005150574973614327
0.297931,0.05573872645621431,0.013299222439611857,0.0439630160070422,0.0038933431001050033,0.043056284077192634,0.05583771466853644,0.08103310018319165,0.005107975485148477
0.2983966,0.05557553580827099,0.013372695664078978,0.04425750312086185,0.0038994635525371447,0.042815919924524985,0.056018715680700513,0.08068512278765497,0.005066805128217238
0.2988621,0.055409745984181406,0.013445962318956114,0.04455483624635842,0.0039051408483066893,0.042573224076117314,0.05619788357193242,0.0803318455447586,0.005027055396007131
0.2993276,0.05524138447033542,0.013519015984069486,0.04485502302573218,0.003910371311791043,0.042328254606544255,0.05637520771610207,0.07997333113956255,0.004988717528181731
0.2997931,0.055070479117161654,0.013591850283420822,0.04515807052605566,0.003915151362941341,0.04208107000865939,0.05655067769031676,0.07960964340997496,0.00495178251431263
0.3002586,0.05489705813446706,0.013664458886989559,0.045463985230206,0.003919477519159181,0.04183172917373006,0.05672428327588063,0.07924084733168196,0.004916241097350957
0.3007241,0.054721150086616266,0.013736835512512096,0.04577277302796872,0.003923346397177334,0.04158029137146185,0.05689601445927623,0.07886700900273971,0.004882083777138688
0.3011897,0.054542783887552036,0.013808973927236455,0.04608443920731602,0.0039267547149436895,0.041326816229922854,0.05706586143316882,0.07848819562783443,0.0048493008139589185
0.3016552,0.05436198879565799,0.013880867949650518,0.04639898844586269,0.003929699293507695,0.04107136371537807,0.057233814597433715,0.07810447550221603,0.004817882232124284
0.3021207,0.05417879440846423,0.013952511451182042,0.04671642480250258,0.0039321770589085345,0.04081399411204444,0.057399864560207015,0.07771591799531075,0.004787817823602679
0.3025862,0.05399323065719639,0.014023898357868483,0.047036751709228435,0.003934185044064295,0.040554768001777146,0.05756400213896019,0.07732259353401845,0.004759097151679426
0.3030517,0.053805327801168375,0.014095022651994716,0.047359971963137876,0.003935720390661356,0.040293746243697824,0.05772621836159882,0.07692457358569968,0.004731709554655049
0.3035172,0.05361511642201886,0.014165878373696613,0.04768608771862843,0.003936780351043221,0.04003098995377538,0.05788650446758633,0.07652193064085763,0.004705644149577751
0.3039828,0.053422627417792246,0.014236459622528543,0.048015100479784634,0.003937362290098038,0.03976656048436963,0.05804485190909314,0.07611473819552005,0.0046808898360096865
0.3044483,0.053227891996864854,0.014306760558992809,0.04834701109296032,0.003937463687144003,0.03950051940374809,0.05820125235217273,0.07570307073332622,0.004657435299826073
0.3049138,0.053030941671718415,0.014376775406029045,0.048681819739559505,0.003937082137811879,0.039232928475585745,0.05835569767796563,0.07528700370732422,0.0046352690170461735
0.3053793,0.052831808252563325,0.014446498450461523,0.04901952592901913,0.003936215355923845,0.03896384963845725,0.058508179983933026,0.0748666135214836,0.004614379257695097
0.3058448,0.0526305238408153,0.014515924044402273,0.04936012849199696,0.003934861175367896,0.03869334498533104,0.058658691585121187,0.07444197751192876,0.004594754089695398
0.3063103,0.052427120822429694,0.014585046606607895,0.04970362557376794,0.003933017551967025,0.03842147674307445,0.0588072250154579,0.0740131739278983,0.004576381382787377
0.3067759,0.05222163186109893,0.014653860623787865,0.0500500146278318,0.003930682565342422,0.03814830725197853,0.05895377302908158,0.07358028191243576,0.004559248812476989
0.3072414,0.052014089891318595,0.014722360651862306,0.05039929240973493,0.003927854420769914,0.03787389894531095,0.05909832860170348,0.07314338148281671,0.004543343864010234
0.3077069,0.051804528111328484,0.014790541317167097,0.05075145497110932,0.003924531451028885,0.03759831432890549,0.059240884932002844,0.07270255351071794,0.004528653836372923
0.3081724,0.05159297997593487,0.014858397317604315,0.051106497653931306,0.003920712118242897,0.03732161596079582,0.05938143544305501,0.07225787970213397,0.00451516584631463
0.3086379,0.05137947918922018,0.014925923423736071,0.05146441508500268,0.003916395015711247,0.03704386643090169,0.05951997378379204,0.07180944257704698,0.004502866832395691
0.3091034,0.051164059697146325,0.014993114479819878,0.051825201170656504,0.003911578869730636,0.036765128340775076,0.05965649383049564,0.07135732544885652,0.004491743559056034
0.309569,0.05094675568005768,0.015059965404783915,0.052188849091690206,0.003906262541406161,0.03648546428341423,0.05979098968832229,0.07090161240357566,0.004481782620704635
0.3100345,0.050727601545089505,0.015126471193140706,0.05255535129852836,0.0039004450284507836,0.036204936823153,0.05992345569286028,0.07044238827880034,0.00447297044582837
0.3105,0.050506631918487484,0.01519262691583799,0.052924699506618045,0.003894125466972426,0.03592360847563302,0.06005388641171832,0.06997973864245847,0.004465293301119016
0.3109655,0.05028388163784382,0.01525842772104577,0.053296884692059496,0.003887303133247845,0.03564154168786641,0.06018227664614548,0.06951374977134515,0.00445873729561718
0.311431,0.050059385744255426,0.015323868834878735,0.053671897087475336,0.0038799774454824254,0.0353587988183963,0.06030862143268187,0.06904450862945001,0.004453288384871922
0.3118966,0.04983317947440935,0.015388945562053292,0.054049726178121274,0.0038721479655550333,0.03507544211756295,0.06043291604483976,0.06857210284608221,0.004448932375114936
0.3123621,0.049605298252600585,0.015453653286478547,0.05443036069824118,0.0038638144007470503,0.03479153370788289,0.06055515599481442,0.06809662069379832,0.004445654927448124
0.3128276,0.04937577768268718,0.015517987471780511,0.05481378862766926,0.0038549766054546894,0.034507135564548506,0.06067533703522395,0.06761815106613797,0.0044434415620435135
0.3132931,0.04914465353998741,0.015581943661758812,0.05519999718868167,0.003845634582883675,0.03422230949605536,0.060793455160877044,0.06713678345517203,0.004442277662354453
0.3137586,0.0489119617631234,0.01564551748077516,0.05558897284309972,0.003835788486725338,0.033937117124964354,0.06090950661056733,0.06665260792886774,0.004442148479337041
0.3142241,0.04867773844581535,0.01570870463407275,0.05598070128964702,0.003825438622813157,0.033651619868805785,0.06102348786889296,0.06616571510827582,0.004443039135680744
0.3146897,0.04844201982863003,0.015771500908025766,0.05637516746156209,0.0038145854507587594,0.033365878921132235,0.061135395668099855,0.0656761961445449,0.004444934630047109
0.3151552,0.048204842290686986,0.01583390217031819,0.05677235552446809,0.003803229585566379,0.03307995523272711,0.06124522698994691,0.06518414269576987,0.004447819841315472
0.3156207,0.047966242341325335,0.015895904370051138,0.05717224887450105,0.0037913717992247463,0.0327939094929756,0.061352979067590845,0.06468964690368216,0.0044516795328345135
0.3160862,0.04772625661173388,0.015957503537778122,0.05757483013669757,0.003779013022275395,0.03250780211140501,0.06145864938748839,0.06419280137019064,0.00445649835667852
0.3165517,0.04748492184654678,0.016018695785467777,0.05798008116364287,0.0037661543453563545,0.03222169319940125,0.06156223569131283,0.06369369913378263,0.004462260857907137
