Time,Rectus Femoris right,Rectus Femoris left,Hamstrings right,Hamstrings left,TibilaisÂ Anterior right,TibilaisÂ Anterior left,Gastrocnemius right,Gastrocnemius left
0.0,0.0005355853122479064,0.006542175194431426,-0.0003225435031720562,-0.0010646735517889294,0.006436384749688696,0.013668837362348175,0.004250286909556963,0.00519882096361709
0.0004655,0.0005422083721011066,0.006629717408874112,-0.00016428614930848203,-0.0009811702926797365,0.006760669797116156,0.01380919109440744,0.004353768580403667,0.0053922431766473015
0.000931,0.0005487778580778508,0.006717775338666776,-6.097980572200227e-06,-0.0008975777240723874,0.007084088509304947,0.013949793322699586,0.004457209611531205,0.005585850936704837
0.0013966,0.0005552931022402129,0.006806338811836488,0.00015199782638640984,-0.0008139039552653289,0.0074065848559843415,0.014090624860819183,0.00456059473419255,0.00577961964120174
0.0018621,0.0005617534693124355,0.006895397498747318,0.00030997806639986134,-0.0007301570776030736,0.007728102860209695,0.01423166643420209,0.004663908667397691,0.005973524637141092
0.0023276,0.0005681583574660546,0.006984940914325667,0.0004678195124997585,-0.0006463451619110808,0.008048586616048573,0.014372898685988265,0.00476713612278967,0.006167541228519446
0.0027931,0.0005745071991006152,0.0070749584203380865,0.0006254989226405492,-0.0005624762559518919,0.008367980306309943,0.014514302182908603,0.004870261809536261,0.006361644683737502
0.0032586,0.0005807994616194115,0.007165439227719226,0.0007829930464264121,-0.00047855838190449026,0.008686228220307483,0.014655857421189347,0.004973270439233998,0.006555810243013059
0.0037241,0.0005870346481997033,0.007256372398947656,0.000940278631836934,-0.00039459953386880564,0.009003274771648053,0.014797544832467984,0.0050761467308214035,0.006750013125790486
0.0041897,0.000593212298556874,0.00734774685046749,0.0010973324319473472,-0.00031060767539722807,0.009319064516036415,0.014939344789714894,0.005178875415498432,0.0069442285381411725
0.0046552,0.000599331989702021,0.007439551355153934,0.0012541312116392648,-0.00022659073705492944,0.009633542169087338,0.015081237613155177,0.005281441241649313,0.007138431680149668
0.0051207,0.000605393336692486,0.007531774544821015,0.0014106517542980606,-0.00014255661401071286,0.009946652624136392,0.01522320357618532,0.005383828979766079,0.007332597753280429
0.0055862,0.0006113959933748522,0.007624404912769966,0.0015668708684932911,-5.851316366003017e-05,0.010258340970040865,0.015365222911279584,0.005486023427370165,0.00752670196772034
0.0060517,0.0006173396531199547,0.007717430816376852,0.0017227653946388457,2.553179671826866e-05,0.010568552508962461,0.0155072758158812,0.005588009413929511,0.00772071954969242
0.0065172,0.0006232240495494657,0.007810840479718166,0.0018783122116298081,0.00010957049226995238,0.010877232774123688,0.01564934245827375,0.005689771805768672,0.00791462574873643
0.0069828,0.000629048957253639,0.007904621996233204,0.0020334882434533165,0.00019359519283673662,0.011184327547530026,0.015791402983428425,0.0057912955109694665,0.008108395844952447
0.0074483,0.0006348141924998034,0.007998763331422187,0.002188270465771005,0.00027759821518950906,0.011489782877650203,0.015933437518823042,0.005892565484259755,0.008302005156203655
0.0079138,0.0006405196139312112,0.00809325232557911,0.0023426359124708433,0.0003615719252220848,0.011793545097047031,0.01607542618022887,0.005993566731887979,0.008495429045274764
0.0083793,0.0006461651232558528,0.008188076696558378,0.002496561682186388,0.000445508740104187,0.012095560839951466,0.016217349077461522,0.0060942843164810846,0.008688642926982498
0.0088448,0.0006517506659248505,0.008283224042574266,0.0026500249447816188,0.0005294011303924193,0.012395777059772631,0.01635918632009224,0.006194703361883505,0.008881622275234632
0.0093103,0.0006572762318000564,0.008378681845032192,0.002803002947799618,0.0006132416220980752,0.012694141046536567,0.016500918023116158,0.006294809057974841,0.00907434263003406
0.0097759,0.0006627418558104817,0.008474437471390789,0.0029554730228734485,0.0006970227987106972,0.012990600444246585,0.016642524312574476,0.006394586665463964,0.00926677960442443
0.0102414,0.0006681476185971994,0.008570478178053658,0.003107412592097593,0.0007807373031763688,0.013285103268158007,0.01678398533112785,0.006494021520657292,0.009458908891374017
0.0107069,0.0006734936471463653,0.008666791113289772,0.003258799174358363,0.0008643778398297804,0.013577597921960149,0.01692528124357879,0.006593099040199057,0.009650706270594616
0.0111724,0.0006787801154100094,0.008763363320181489,0.0034096103916216643,0.0009479371762791651,0.013868033214858353,0.01706639224234104,0.006691804725781476,0.009842147615292417
0.0116379,0.0006840072449142499,0.00886018173959928,0.0035598239751765373,0.0010314081452432369,0.014156358378548803,0.017207298552854005,0.006790124168822759,0.01003320889884798
0.0121034,0.0006891753053545884,0.008957233213202381,0.0037094177718328945,0.0011147836463393014,0.014442523084078819,0.0173479804389404,0.006888043055110983,0.010223866201422583
0.012569,0.0006942846151779391,0.009054504486464708,0.0038583697500719208,0.0011980566478217226,0.014726477458585237,0.017488418208105327,0.006985547169411874,0.010414095716488266
0.0130345,0.0006993355421510567,0.00915198221172539,0.00400665800614765,0.0012812201882699348,0.015008172101903345,0.017628592216774958,0.007082622400038563,0.010603873757279081
0.0135,0.0007043285039150292,0.00924965295126338,0.004154260770138263,0.0013642673782251994,0.015287558103038858,0.017768482875473127,0.007179254743381338,0.010793176763161124
0.0139655,0.0007092639685255145,0.009347503180395521,0.0043011564119457115,0.0014471914017753244,0.01556458705649535,0.017908070653934103,0.007275430308395383,0.010981981305919021
0.014431,0.0007141424549784109,0.00944551929059748,0.0044473234472422445,0.0015299855180865968,0.015839211078449534,0.018047336086149883,0.007371135321044467,0.01117026409595654
0.0148966,0.0007189645337206561,0.009543687592646836,0.004592740543362447,0.0016126430628822385,0.016111382822766886,0.01818625977535027,0.00746635612869844,0.01135800198840897
0.0153621,0.0007237308271458594,0.00964199431978773,0.004737386525139362,0.0016951574498667809,0.01638105549685017,0.018324822398914017,0.007561079204482432,0.011545171989164856
0.0158276,0.0007284420100744721,0.00974042563091629,0.004881240380683269,0.00177752217209587,0.016648182877313532,0.01846300471320924,0.00765529115157553,0.011731751260794761
0.0162931,0.0007330988102181988,0.00983896761378615,0.005024281267101652,0.001859730803291119,0.01691271932547492,0.018600787558361236,0.007748978707456755,0.01191771712838467
0.0167586,0.0007377020086283511,0.009937606288233345,0.005166488516158907,0.0019417769990997067,0.0171746198026596,0.01873815186294581,0.007842128748096054,0.012103047085271759
0.0172241,0.0007422524401278461,0.010036327609419925,0.005307841639874295,0.0020236544982984886,0.01743383988530752,0.018875078648606228,0.00793472829208802,0.012287718798680297
0.0176897,0.0007467509937265533,0.010135117471095646,0.005448320336056677,0.002105357123942402,0.017690335779877196,0.019011549034591898,0.008026764504725984,0.012471710115255543
0.0181552,0.0007511986130196958,0.01023396170887722,0.005587904493774567,0.0021868787844569588,0.017944064337538777,0.01914754424221694,0.008118224702014076,0.012654999066493542
0.0186207,0.0007555962965690048,0.010332846103544633,0.0057265741987600335,0.0022682134746746093,0.01819498306864888,0.019283045599236878,0.00820909635461483,0.0128375638740648
0.0190862,0.0007599450982663273,0.010431756384353997,0.005864309738745046,0.002349355276814758,0.01844305015699964,0.019418034544141757,0.008299367091729832,0.013019382955030013
0.0195517,0.0007642461276793811,0.01053067823236649,0.00600109160872886,0.002430298361407211,0.01868822447383447,0.01955249263036417,0.008389024704910921,0.013200434926946034
0.0200172,0.000768500550379348,0.010629597283792805,0.006136900516175062,0.0025110369881588272,0.018930465591622727,0.019686401530400764,0.008478057151799442,0.013380698612860483
0.0204828,0.0007727095882499955,0.010728499133352542,0.00627171738613694,0.002591565506763159,0.019169733797585534,0.019819743039846054,0.008566452559791075,0.01356015304619338
0.0209483,0.0007768745197780158,0.010827369337647932,0.006405523366309901,0.002671878357652868,0.01940599010696475,0.019952499081337432,0.008654199229623807,0.0137387774755043
0.0214138,0.0007809966803242788,0.010926193418551194,0.0065382998320096565,0.0027519700726947433,0.019639196276027105,0.020084651708410468,0.008741285638886672,0.013916551369143422
0.0218793,0.0007850774623757051,0.011024956866604863,0.006670028391074976,0.002831835275827145,0.019869314814795504,0.02021618310926373,0.00882770044544705,0.014093454419784997
0.0223448,0.0007891183157774691,0.011123645144434337,0.006800690888693798,0.0029114686836397697,0.020096308999499678,0.02034707561043242,0.008913432490794437,0.014269466548841555
0.0228103,0.0007931207479452642,0.011222243690171933,0.006930269412151506,0.002990865105895608,0.02032014288473842,0.020477311680370418,0.00899847080329876,0.014444567910757277
0.0232759,0.0007970863240573693,0.011320737920891808,0.0070587462955001515,0.0030700194459950068,0.020540781315346097,0.020606873932940372,0.009082804601381498,0.014618738897178952
0.0237414,0.000801016667226279,0.01141911323605506,0.007186104124147376,0.0031489267013818036,0.020758189937956313,0.020735745130811525,0.009166423296598074,0.014791960141003023
0.0242069,0.0008049134586496776,0.011517355020964414,0.007312325739363741,0.00322758196389151,0.020972335212255888,0.020863908188765067,0.009249316496630171,0.014964212520297455
0.0246724,0.0008087784377405403,0.011615448650227874,0.007437394242707121,0.00330598042004159,0.021183184421922456,0.02099134617690677,0.009331474008186721,0.015135477162097262
0.0251379,0.0008126134022361548,0.011713379491230748,0.007561293000362788,0.0033841173512638755,0.021390705685239104,0.021118042323786657,0.00941288583981251,0.015305735446072737
0.0256034,0.0008164202082858548,0.01181113290761544,0.007684005647397756,0.003461988134079188,0.02159486796537941,0.021243980019425353,0.009493542204603363,0.015474969008069779
0.026069,0.0008202007705172609,0.011908694262768301,0.0078055160919279064,0.003539588240214218,0.021795641080356462,0.021369142818247058,0.00957343352282697,0.015643159743521998
0.0265345,0.0008239570620808142,0.012006048923312787,0.007925808519196382,0.0036169132366607086,0.021992995712629377,0.021493514441919163,0.009652550424448458,0.01581028981073454
0.027,0.0008276911146723958,0.012103182262608092,0.008044867395561685,0.0036939587856770224,0.022186903418360927,0.021617078782098793,0.00973088375155991,0.015976341634039933
0.0274655,0.0008314050185338158,0.01220007966425237,0.008162677472393921,0.0037707206447322402,0.02237733663632003,0.02173981990308686,0.009808424560713206,0.016141297906826356
0.027931,0.0008351009224309596,0.012296726525589576,0.008279223789877664,0.003847194666393048,0.022564268696422744,0.021861722044390262,0.00988516412515571,0.01630514159443905
0.0283966,0.0008387810336093765,0.012393108261218987,0.008394491680719991,0.0039233767981538235,0.022747673827905646,0.02198276962319292,0.009961093936968542,0.01646785593695595
0.0288621,0.0008424476177271019,0.012489210306506493,0.00850846677376234,0.0039992630822104705,0.02292752716712518,0.022102947236736066,0.010036205709107257,0.016629424451838997
0.0293276,0.0008461029987645033,0.012585018121096801,0.008621134997494933,0.004074849655178683,0.02310380476497689,0.022222239664608522,0.010110491377344925,0.016789830936462864
0.0297931,0.0008497495589109526,0.012680517192425711,0.008732482583472577,0.004150132747757434,0.023276483593928147,0.022340631870947283,0.010183943102117638,0.016949059470523206
0.0302586,0.0008533897384281354,0.012775693039231668,0.008842496069630659,0.004225108684338564,0.02344554155465828,0.022458109006548845,0.010256553270272601,0.017107094418326533
0.0307241,0.0008570260354898361,0.01287053121506575,0.0089511623035002,0.004299773882563418,0.023610957482300184,0.022574656410891684,0.010328314496719102,0.017263920430963954
0.0311897,0.0008606610059980573,0.012965017311799281,0.00905846844532084,0.004374124852827519,0.023772711152277953,0.022690259614070184,0.010399219625982756,0.017419522448370948
0.0316552,0.0008642972633753634,0.01305913696312818,0.00916440197105071,0.004448158197734322,0.02393078328573588,0.022804904338640453,0.010469261733663594,0.017573885701275393
0.0321207,0.0008679374783333643,0.013152875848072999,0.009268950675272194,0.004521870611499121,0.02408515555455498,0.022918576501378338,0.0105384341277986,0.017726995713036
0.0325862,0.000871584378617291,0.013246219694473652,0.009372102673992773,0.004595258879304269,0.024235810585954042,0.023031262214950148,0.01060673035012935,0.017878838301373177
0.0330517,0.0008752407487266541,0.013339154282477677,0.009473846407340248,0.004668319876606898,0.02438273196667318,0.023142947789496528,0.010674144177275314,0.018029399579994342
0.0335172,0.0008789094296120149,0.013431665448020803,0.009574170642151849,0.004741050568400415,0.024525904246738256,0.02325361973413021,0.010740669621813467,0.0181786659601157
0.0339828,0.0008825933183479334,0.013523739086298569,0.009673064474456962,0.004813448008431023,0.024665312942805297,0.0233632647583486,0.010806300933264817,0.018326624151882392
0.0344483,0.0008862953677821874,0.01361536115522771,0.009770517331853374,0.004885509338370552,0.024800944541084363,0.02347186977336254,0.010871032598988514,0.018473261165689037
0.0349138,0.0008900185861613748,0.01370651767889601,0.009866518975777212,0.004957231786946885,0.02493278649984286,0.02357942189334299,0.010934859344984239,0.018618564313402603
0.0353793,0.0008937660367330253,0.013797194750999288,0.0099610595036669,0.005028612669033228,0.025060827251489285,0.023685908436587643,0.010997776136603708,0.018762521209489486
0.0358448,0.0008975408373243581,0.013887378538264302,0.010054129351021679,0.005099649384697502,0.02518505620423899,0.023791316926609733,0.011059778179172182,0.018905119772048687
0.0363103,0.0009013461598978304,0.013977055283856355,0.010145719293355279,0.005170339418213142,0.02530546374336471,0.023895635093151193,0.011120860918520952,0.019046348223752854
0.0367759,0.0009051852300836267,0.014066211310770418,0.010235820448045468,0.005240680337032653,0.02542204123203541,0.023998850873122684,0.011181020041431906,0.019186195092698862
0.0372414,0.0009090613266892457,0.014154833025204582,0.010324424276080272,0.00531066979072525,0.02553478101174757,0.024100952411472892,0.011240251475995215,0.01932464921316956
0.0377069,0.0009129777811863361,0.014242906919914658,0.010411522583701599,0.005380305509880031,0.0256436764023536,0.0242019280619895,0.011298551391881203,0.019461699726308086
0.0381724,0.0009169379771749441,0.014330419577548666,0.01049710752394708,0.005449585304976056,0.025748721701692352,0.024301766388034284,0.01135591620052742,0.01959733608070613
0.0386379,0.0009209453498253274,0.01441735767395999,0.010581171598090914,0.005518507065220772,0.02584991218482674,0.024400456163214724,0.01141234255524191,0.0197315480329075
0.0391034,0.0009250033852974977,0.014503707981497933,0.010663707656984484,0.005587068757358146,0.025947244102893292,0.024497986371994407,0.011467827351223585,0.019864325647828175
0.039569,0.0009291156201386474,0.014589457372274354,0.010744708902297652,0.005655268424447897,0.026040714681568527,0.024594346210244457,0.011522367725500561,0.019995659299093967
0.0400345,0.0009332856406586171,0.01467459282140506,0.010824168887661556,0.005723104184617109,0.026130322119156835,0.024689525085738045,0.011575961056787279,0.020125539669297046
0.0405,0.0009375170822835612,0.014759101410224535,0.01090208151971383,0.005790574229785592,0.026216065584304865,0.024783512618589968,0.011628604965261073,0.020253957750172434
0.0409655,0.000941813628887963,0.014842970329472627,0.010978441059047148,0.005857676824366263,0.02629794521334729,0.02487629864164315,0.011680297312258888,0.020380904842695932
0.041431,0.0009461790121051537,0.014926186882451868,0.011053242121061919,0.005924410303941871,0.02637596210728908,0.02496787320080391,0.011731036199894759,0.020506372557105024
0.0418966,0.0009506170106164824,0.015008738488154158,0.011126479676724041,0.005990773073919478,0.026450118328429556,0.025058226555327714,0.011780819970598613,0.02063035281284441
0.0423621,0.0009551314494192878,0.015090612684355607,0.011198149053228577,0.006056763608164099,0.026520416896633366,0.025147349178057214,0.011829647206576971,0.02075283783843801
0.0428276,0.0009597261990738276,0.015171797130678353,0.011268245934570322,0.006122380447612969,0.026586861785253595,0.025235231755614186,0.011877516729196045,0.02087382017128916
0.0432931,0.0009644051749293327,0.015252279611618274,0.011336766362022315,0.006187622198871874,0.026649457916712246,0.025321865188546965,0.01192442759828786,0.020993292657410883
0.0437586,0.0009691723363293721,0.015332048039537534,0.011403706734523423,0.006252487532794987,0.02670821115774331,0.025407240591434815,0.011970379111380006,0.021111248451088003
0.0442241,0.0009740316857967277,0.01541109045762091,0.011469063808976212,0.006316975183049596,0.026763128314303584,0.025491349292950705,0.012015370802849782,0.021227681014473056
0.0446897,0.000978987268197999,0.01548939504279491,0.011532834700456317,0.006381083944667118,0.026814217126156437,0.02557418283588383,0.012059402443003497,0.02134258411711778
0.0451552,0.000984043169888164,0.015566950108608611,0.01159501688233448,0.006444812672581716,0.026861486261133518,0.025655732977123282,0.01210247403708174,0.021455951835442112
0.0456207,0.0009892035178353325,0.015643744108075185,0.011655608186312408,0.006508160280157845,0.026904945309079244,0.025735991687604327,0.012144585824191395,0.02156777855214261
0.0460862,0.0009944724787259375,0.01571976563647296,0.011714606802373474,0.006571125737708028,0.026944604775482786,0.025814951152218733,0.012185738276165186,0.021678058955541944
0.0465517,0.0009998542580506272,0.015795003434104855,0.011772011278649257,0.006633708071002195,0.02698047607480208,0.02589260376969085,0.01222593209634945,0.0217867880388813
0.0470172,0.0010053530991711189,0.015869446389015,0.011827820521202787,0.006695906359769802,0.027012571523484356,0.025968942152421043,0.012265168218320825,0.021893961099557168
0.0474828,0.001010973282368299,0.015943083539661444,0.011882033793729374,0.006757719736196002,0.027040904332687514,0.02604395912629819,0.012303447804532552,0.021999573738304166
0.0479483,0.0010167191238718615,0.016015904077543875,0.011934650717175838,0.006819147383413026,0.027065488600706882,0.026117647730482793,0.012340772244891045,0.022103621858325286
0.0484138,0.0010225949748717874,0.016087897349785243,0.011985671269278892,0.006880188533987914,0.027086339305111905,0.026190001217162234,0.01237714315526343,0.022206101664371026
0.0488793,0.0010286052205119756,0.01615905286166633,0.012035095784023436,0.00694084246840765,0.02710347229459762,0.026261013051279664,0.012412562375916725,0.022307009661768667
0.0493448,0.0010347542788663316,0.01622936027911218,0.012082924951021406,0.00700110851356275,0.027116904280555836,0.026330676910237917,0.012447031969889312,0.02240634265540297
0.0498103,0.0010410465998976256,0.016298809431129456,0.012129159814811937,0.007060986041230277,0.02712665282837153,0.02639898668357987,0.012480554221295483,0.02250409774864926
0.0502759,0.0010474866643994346,0.01636739031219381,0.012173801774083438,0.007120474466557232,0.02713273634845025,0.026465936472646598,0.012513131633563724,0.02260027234225984
0.0507414,0.0010540789829214942,0.016435093084586423,0.01221685258081841,0.007179573246545277,0.027135174086982804,0.026531520590214467,0.012544766927609509,0.02269486413320447
0.0512069,0.0010608280946787965,0.016501908080678935,0.012258314339361795,0.007238281878537748,0.027133986116453894,0.02659573356011228,0.012575463039943413,0.02278787111346545
0.0516724,0.0010677385664447827,0.016567825805166022,0.012298189505413813,0.007296599898709969,0.027129193325901715,0.02665857011681964,0.012605223120715351,0.022879291568787704
0.0521379,0.001074814991428978,0.016632836937245,0.012336480884948302,0.007354526880563901,0.027120817410935767,0.026720025205047477,0.012634050531695725,0.022969124077384124
0.0526034,0.0010820619881394165,0.016696932332741877,0.01237319163305763,0.0074120624334282174,0.027108880863520143,0.02678009397930171,0.012661948844194313,0.02305736750859617
0.053069,0.0010894841992301963,0.016760103026183346,0.012408325252725233,0.007469206200964962,0.027093406961529558,0.026838771803430923,0.012688921836917721,0.023144021021509746
0.0535345,0.0010970862903345038,0.01682234023281428,0.012441885593526866,0.0075259578596839774,0.0270744197580854,0.026896054250158695,0.012714973493766175,0.02322908406352621
0.054,0.00110487294888344,0.016883635350560356,0.012473876850261497,0.007582317117466361,0.02705194407067895,0.026951937100601342,0.012740108001570367,0.02331255636888843
0.0544655,0.001112848882910977,0.01694397996193541,0.012504303561512806,0.007638283712098162,0.02702600547008891,0.027006416343771444,0.012764329747769079,0.023394437957161868
0.054931,0.001121018819845382,0.017003365835893125,0.012533170608142156,0.007693857409815588,0.02699663026910027,0.027059488176067792,0.012787643318028185,0.023474729131670632
0.0553966,0.0011293875052874429,0.017061784929622577,0.012560483211713866,0.0077490380038629,0.026963845511031412,0.027111149000752233,0.012810053493801685,0.023553430477888587
0.0558621,0.0011379597017758386,0.01711922939028715,0.012586246932853606,0.007803825313064155,0.02692767895807634,0.027161395427413852,0.01283156524983538,0.023630542861785682
0.0563276,0.001146740187540004,0.017175691556706237,0.012610467669540661,0.007858219180409942,0.026888159079468617,0.027210224271420974,0.01285218375161388,0.023706067428129723
0.0567931,0.0011557337552408399,0.017231163960979148,0.01263315165533477,0.007912219471660183,0.026845315039473825,0.027257632553361246,0.012871914352751816,0.023780005598743954
0.0572586,0.0011649452106996241,0.017285639330050704,0.012654305457538135,0.007965826073964032,0.02679917668521735,0.02730361749847001,0.012890762592330286,0.02385235907072084
0.0577241,0.0011743793716154835,0.017339110587218036,0.012673935975293158,0.008019038894497859,0.02674977453435436,0.027348176536046834,0.012908734192179822,0.023923129814592405
0.0581897,0.0011840410662717945,0.017391570853578158,0.01269205043761637,0.008071857859122268,0.026697139762588924,0.027391307298860138,0.012925835054111271,0.023992320072457687
0.0586552,0.0011939351322319018,0.017443013449416084,0.012708656401368987,0.008124282911059,0.026641304191049184,0.02743300762253968,0.012942071257096056,0.024059932356067706
0.0591207,0.0012040664150245579,0.017493431895533276,0.012723761749164366,0.00817631400958856,0.026582300273525497,0.02747327554495643,0.012957449054397302,0.024125969444868438
0.0595862,0.0012144397668194975,0.01754281991451626,0.012737374687212661,0.008227951128769352,0.026520161083578353,0.02751210930558942,0.01297197487065335,0.024190434384002212
0.0600517,0.0012250600450935763,0.017591171431945427,0.012749503743102821,0.008279194256179085,0.02645492030152282,0.027549507344878793,0.012985655298915396,0.024253330482268024
0.0605172,0.0012359321112879102,0.017638480577543907,0.012760157763522028,0.008330043391679177,0.026386612201296237,0.027585468303564183,0.012998497097641146,0.02431466131004118
0.0609828,0.0012470608294564544,0.017684741686266464,0.012769345911912616,0.008380498546202922,0.026315271637215656,0.027619991022007555,0.01301050718764668,0.024374430697152664
0.0614483,0.0012584510649064635,0.017729949299328224,0.012777077666066483,0.008430559740568095,0.02624093403063148,0.027653074539499445,0.01302169264901886,0.02443264273072848
0.0619138,0.0012701076828312745,0.017774098165173037,0.012783362815656993,0.008480227004314672,0.02616363535648351,0.027684718093547656,0.013032060717990865,0.024489301752989516
0.0623793,0.001282035546935858,0.017817183240381278,0.012788211459708355,0.008529500374568249,0.026083412129765508,0.0277149211191474,0.013041618783783416,0.024544412359012207
0.0628448,0.001294239518055585,0.017859199690516855,0.012791634004002489,0.008578379894929761,0.026000301391904214,0.02774368324803179,0.013050374385414442,0.02459797939445045
0.0633103,0.0013067244527686568,0.01790014289091316,0.012793641158423415,0.008626865614391958,0.025914340697058693,0.027771004307901494,0.013058335208479809,0.02465000795321917
0.0637759,0.0013194952020026453,0.017940008427397822,0.012794243934239126,0.008674957586283068,0.025825568098345617,0.027796884321632305,0.01306550908190789,0.02470050337513988
0.0642414,0.0013325566096355883,0.017978792096956086,0.012793453641320887,0.008722655867238015,0.0257340221339961,0.02782132350645905,0.013071903974690642,0.024749471243548787
0.0647069,0.001345913511092085,0.01801648990833259,0.012791281885299951,0.00876996051619751,0.025639741813449527,0.02784432227313431,0.013077527992593875,0.02479691738286778
0.0651724,0.0013595707319348405,0.01805309808257136,0.012787740564661585,0.008816871593435253,0.025542766603389555,0.027865881225060257,0.013082389374849264,0.024842847856138786
0.0656379,0.0013735330864521065,0.01808861305349362,0.012782841867776423,0.008863389159613438,0.025443136413727627,0.027886001157391718,0.013086496490830705,0.02488726896252188
0.0661034,0.001387805376241456,0.01812303146811309,0.012776598269869257,0.008909513274866724,0.02534089158353898,0.0279046830561088,0.013089857836717551,0.024930187234757626
0.066569,0.0014023923887903336,0.018156350186988236,0.012769022529925428,0.008955243997914735,0.02523607286695632,0.027921928097057236,0.013092482032147183,0.024971609436594253
0.0670345,0.0014172988960538162,0.018188566284510887,0.0127601276875352,0.009000581385203215,0.02512872141902609,0.027937737644955322,0.013094377816859347,0.025011542560180202
0.0675,0.0014325296530300193,0.0182196770491306,0.012749927059676603,0.009045525490073977,0.025018878781532382,0.027952113252366725,0.013095554047334595,0.025049993823422722
0.0679655,0.0014480893963335808,0.018249679983514035,0.012738434237437257,0.009090076361963904,0.024906586868793712,0.027965056658639208,0.01309601969342924,0.025086970667313132
0.068431,0.0014639828427676508,0.018278572804638495,0.012725663082675857,0.009134234045633415,0.02479188795343778,0.02797656978880983,0.013095783835009167,0.02512248075321971
0.0688966,0.001480214687894817,0.018306353443818865,0.012711627724623925,0.009177998580424868,0.02467482465215939,0.02798665475247756,0.013094855658585019,0.02515653196014921
0.0693621,0.0014967896046073955,0.018333020046667283,0.012696342556428507,0.009221369999551452,0.02455543991146688,0.027995313842644483,0.013093244453951202,0.025189132381978334
0.0698276,0.0015137122416975133,0.018358570972985044,0.012679822231636533,0.009264348329417148,0.024433776993422113,0.028002549534526883,0.013090959610831242,0.02522029032465674
0.0702931,0.0015309872224274134,0.01838300479658656,0.012662081660621426,0.009306933588968303,0.0243098794613791,0.028008364484337734,0.013088010615531971,0.025250014303383136
0.0707586,0.0015486191431004282,0.018406320305055474,0.012643136006952585,0.009349125789077347,0.024183791165726096,0.02801276152804219,0.013084407047608907,0.025278313039756237
0.0712241,0.0015666125716330736,0.018428516499433244,0.012623000683708254,0.009390924931959185,0.02405555622963592,0.02801574368008768,0.013080158576545162,0.025305195458902235
0.0716897,0.0015849720461287241,0.01844959259384049,0.012601691349732278,0.009432331010620769,0.023925219034829068,0.028017314132110203,0.013075274958446036,0.025330670686580552
0.0721552,0.001603702073453328,0.018469548015031555,0.012579223905835261,0.00947334400834435,0.023792824207353888,0.02801747625161832,0.013069766032751456,0.02535474804626948
0.0726207,0.00162280712781362,0.01848838240188247,0.0125556144909406,0.009513963898204907,0.023658416603388088,0.02801623358065624,0.013063641718968283,0.02537743705623337
0.0730862,0.0016422916493382866,0.01850609560481275,0.01253087947817585,0.009554190642622171,0.02352204129506562,0.02801358983444746,0.013056912013424404,0.025398747426572915
0.0735517,0.0016621600426625358,0.018522687685141235,0.012505035470909904,0.00959402419294769,0.02338374355633271,0.02800954890002038,0.013049586986046562,0.025418689056259887
0.0740172,0.0016824166755165105,0.01853815891437628,0.01247809929873655,0.00963346448908725,0.0232435688488368,0.02800411483481725,0.013041676777163719,0.02543727203015756
0.0744828,0.001703065877318013,0.018552509773440463,0.01245008801340495,0.009672511459158971,0.02310156280785188,0.027997291865287554,0.013033191594337728,0.02545450661602795
0.0749483,0.0017241119377700044,0.018565740951830025,0.01242101888469768,0.00971116501918729,0.022957771228243686,0.02798908438546686,0.013024141709222998,0.025470403261526747
0.0754138,0.001745559105463356,0.018577853346709076,0.012390909396257012,0.009749425072832949,0.022812240050477887,0.027979496955541833,0.013014537454456774,0.0254849725911869
0.0758793,0.0017674115864853477,0.018588848061938723,0.012359777241360132,0.009787291511159106,0.022665015346674474,0.027968534300402068,0.013004389220581586,0.02549822540339149
0.0763448,0.001789673543034409,0.018598726407041345,0.012327640318644075,0.00982476421243354,0.022516143306711294,0.027956201308179118,0.012993707453001302,0.02551017266733662
0.0768103,0.0018123490920416096,0.01860748989610049,0.01229451672778109,0.009861843041966887,0.022365670224379755,0.027942503028773005,0.012982502648972119,0.025520825519984996
0.0772759,0.0018354423037994184,0.018615140246597,0.012260424765105155,0.009898527851986817,0.02221364248359578,0.02792744467236628,0.012970785354629772,0.02553019526301079
0.0777414,0.0018589572005982477,0.01862167937818223,0.012225382919190305,0.009934818481547928,0.022060106544668986,0.027911031607925574,0.012958566162054123,0.025538293359736286
0.0782069,0.0018828977553712995,0.018627109411389203,0.012189409866381427,0.00997071475647717,0.0219051089306332,0.027893269361690558,0.012945855706372205,0.02554513143206091
0.0786724,0.0019072678903482312,0.01863143266628267,0.012152524466278163,0.010006216489354533,0.021748696213641467,0.027874163615650083,0.012932664662900687,0.02555072125738299
0.0791379,0.0019320714757181492,0.018634651661049065,0.01211474575717263,0.010041323479528685,0.021590915001428904,0.027853720206005197,0.012919003744328642,0.025555074765514545
0.0796034,0.0019573123283024327,0.01863676911052716,0.012076092951441623,0.010076035513167204,0.021431811923847053,0.02783194512161868,0.012904883697941374,0.0255582040355894
0.080069,0.001982994210237881,0.018637787924680363,0.012036585430894154,0.010110352363340984,0.021271433619473704,0.027808844502450764,0.012890315302886061,0.025560121292964588
0.0805345,0.0020091208276706725,0.018637711207011232,0.011996242742075235,0.010144273790142348,0.021109826722302272,0.02778442463798063,0.012875309367479826,0.025560838906114967
0.081,0.0020356958294616115,0.01863654225291888,0.011955084591526957,0.010177799540836275,0.020947037848515055,0.027758691965613206,0.012859876726560783,0.025560369383520694
0.0814655,0.0020627228059031284,0.018634284547999543,0.011913130841008087,0.010210929350044126,0.020783113583344694,0.027731653069070727,0.012844028238882579,0.025558725370547077
0.081931,0.0020902052874484903,0.018630941766290675,0.011870401502673433,0.010243662939959163,0.020618100468028144,0.02770331467676821,0.0128277747845528,0.025555919646316122
0.0823966,0.002118146743453673,0.01862651776845864,0.011826916734214429,0.010276000020593043,0.020452044986857463,0.027673683660172164,0.012811127262515614,0.02555196512056902
0.0828621,0.002146550580932315,0.01862101659993011,0.011782696833962391,0.010307940290052471,0.020284993554331606,0.0276427670321415,0.012794096588079033,0.025546874830518616
0.0833276,0.0021754201433241776,0.018614442488967292,0.011737762235955969,0.010339483434845044,0.0201169925024135,0.027610571945249726,0.0127766936904871,0.02554066193769103
0.0837931,0.002204758709277522,0.018606799844687313,0.01169213350497426,0.01037062913021332,0.01994808806789644,0.027577105690087537,0.012758929510537339,0.025533339724755424
0.0842586,0.002234569491445776,0.01859809325502622,0.011645831331537107,0.010401377040496066,0.019778326379883897,0.02754237569354508,0.012740814998243791,0.025524921592341064
0.0847241,0.0022648556352988657,0.0185883274846484,0.011598876526873988,0.010431726819515574,0.01960775344738659,0.02750638951707321,0.012722361110545987,0.02551542105584075
0.0851897,0.0022956202179495663,0.018577507472802523,0.011551290017862937,0.010461678110989874,0.019436415147040666,0.027469154854923076,0.012703578809064168,0.025504851742199814
0.0856552,0.002326866246995206,0.018565638331125185,0.011503092841940926,0.010491230548968621,0.01926435721095067,0.027430679532363465,0.012684479057901156,0.025493227386689955
0.0861207,0.0023585966593750603,0.018552725341393742,0.011454306141987176,0.010520383758291387,0.019091625214660995,0.02739097150387545,0.012665072821491196,0.02548056182966709
0.0865862,0.0023908143202437592,0.018538773953229802,0.011404951161180838,0.010549137355067057,0.018918264565259475,0.027350038851323963,0.012645371062496106,0.02546686901331262
0.0870517,0.002423522021861042,0.018523789781754806,0.011355049237834577,0.010577490947173104,0.018744320489616686,0.02730788978210615,0.012625384739749059,0.02545216297835748
0.0875172,0.0024567224824981917,0.018507778605198966,0.011304621800205588,0.010605444134773514,0.018569838022764504,0.027264532627276697,0.012605124806246204,0.025436457860788696
0.0879828,0.002490418345361471,0.0184907463624649,0.011253690361285673,0.010632996510854227,0.018394861996417326,0.027219975839650697,0.012584602207186246,0.025419767888538437
0.0884483,0.00252461217753289,0.018472699150647056,0.011202276513571993,0.010660147661775076,0.01821943702763928,0.027174227991884722,0.012563827878058022,0.025402107378155656
0.0889138,0.002559306468928623,0.018453643222508087,0.011150401923820209,0.01068689716783727,0.018043607507660663,0.027127297774536867,0.012542812742776034,0.025383490731460633
0.0893793,0.0025945036312753924,0.01843358498391329,0.011098088327781782,0.010713244603865532,0.017867417590846632,0.02707919399410638,0.012521567711863798,0.02536393243218266
0.0898448,0.002630205997105152,0.018412530991224176,0.0110453575249272,0.01073918953980414,0.01769091118382121,0.02702992557105361,0.01250010368068481,0.025343447042581246
0.0903103,0.0026664158187683735,0.018390487948652227,0.010992231373156991,0.010764731541326126,0.017514131934749495,0.026979501537800894,0.01247843152772094,0.025322049200051298
0.0907759,0.002703135267466282,0.01836746270557411,0.010938731783502388,0.010789870170455027,0.017337123222781012,0.02692793103671507,0.012456562112897944,0.025299753613712936
0.0912414,0.002740366432302363,0.018343462253809683,0.010884880714817429,0.010814604986198585,0.01715992814765686,0.02687522331807256,0.012434506275957888,0.02527657506098672
0.0917069,0.0027781113193535195,0.018318493724864413,0.010830700168464349,0.010838935545193787,0.01698258951948352,0.026821387738007758,0.012412274834878069,0.02525252838415522
0.0921724,0.0028163718507612408,0.018292564387138013,0.010776212182993999,0.010862861402362657,0.016805149848675777,0.026766433756445714,0.012389878584336121,0.025227628486911804
0.0926379,0.0028551498638431684,0.01826568164310143,0.010721438828823064,0.010886382111578101,0.01662765133607126,0.026710370935020027,0.012367328294220886,0.02520189033089755
0.0931034,0.002894447110225473,0.018237853026444473,0.010666402202909734,0.010909497226339113,0.016450135863218886,0.02665320893497664,0.012344634708188513,0.02517532893222715
0.093569,0.002934265254996464,0.018209086199196603,0.010611124423429461,0.010932206300454519,0.016272644982843344,0.02659495751506426,0.012321808542263266,0.025147959358004863
0.0940345,0.002974605875881865,0.01817938894882334,0.010555627624452422,0.01095450888873441,0.01609521990948774,0.026535626529412184,0.012298860483482436,0.02511979672283158
0.0945,0.003015470462442191,0.018148769185300864,0.010499933950624256,0.01097640454768838,0.015917901510336337,0.02647522592539623,0.012275801188584715,0.025090856185304225
0.0949655,0.003056860415292677,0.018117234938171193,0.010444065551851667,0.0109978928362296,0.015740730296219228,0.026413765741493768,0.012252641282741308,0.02506115294450887
0.095431,0.003098777045346189,0.0180847943535803,0.010388044577994507,0.01101897331638373,0.01556374641280071,0.026351256105128788,0.01222939135832906,0.025030702236508776
0.0958966,0.0031412215730795426,0.01805145569130135,0.010331893173566017,0.011039645554001578,0.01538698963195311,0.02628770723050806,0.012206061973744796,0.024999519330828467
0.0963621,0.0031841951278236322,0.018017227321745127,0.010275633472442923,0.01105990911947447,0.015210499343317712,0.02622312941644938,0.012182663652260025,0.024967619526934968
0.0968276,0.0032276987470777527,0.017982117722959687,0.010219287592587058,0.01107976358845127,0.015034314546054483,0.02615753304420287,0.012159206880915123,0.024935018150717175
0.0972931,0.0032717333758484858,0.017946135477621007,0.01016287763078019,0.011099208542556036,0.01485847384078216,0.026090928575266393,0.01213570210945195,0.02490173055096424
0.0977586,0.003316299866013507,0.01790928927001641,0.010106425657373576,0.011118243570105489,0.014683015421710213,0.02602332654919609,0.012112159749283912,0.024867772095844
0.0982241,0.0033613989757106614,0.017871587883022375,0.010049953711053808,0.011136868266825478,0.014507977068964156,0.02595473758141313,0.012088590172502266,0.024833158169382422
0.0986897,0.003407031368752644,0.017833040195078222,0.00999348379362634,0.011155082236565927,0.014333396141105502,0.025885172361007805,0.012065003710917456,0.02479790416794492
0.0991552,0.003453197614067588,0.01779365517715708,0.009937037864818088,0.01117288509201374,0.014159309567847635,0.025814641648542185,0.012041410655134154,0.02476202549672041
0.0996207,0.0034998981851658497,0.01775344188973534,0.009880637837100421,0.011190276455403284,0.013985753842968749,0.025743156273852538,0.012017821253658585,0.024725537566208752
0.1000862,0.003547133459633252,0.017712409479761843,0.009824305570533782,0.011207255959224166,0.01381276501742285,0.02567072713385271,0.01199424571203666,0.02468845578871217
0.1005517,0.0035949037186510276,0.017670567177627796,0.009768062867635166,0.011223823246926142,0.013640378692649795,0.025597365190339835,0.011970694192021375,0.024650795574831158
0.1010172,0.003643209146542676,0.017627924294138474,0.009711931468269595,0.011239977973621038,0.013468630014085102,0.025523081467803643,0.011947176810767879,0.02461257232996519
0.1014828,0.0036920498303479434,0.017584490217487626,0.00965593304456668,0.011255719806781727,0.013297553664870277,0.025447887051240785,0.011923703640054524,0.0245738014508185
0.1019483,0.0037414257594241044,0.01754027441023549,0.009600089195863335,0.011271048426938376,0.013127183859764175,0.02537179308397577,0.011900284705528303,0.024534498321911236
0.1024138,0.003791336825074721,0.017495286406291263,0.009544421443673599,0.011285963528372304,0.012957554339255889,0.025294810765490432,0.011876929985972937,0.024494678312096226
0.1028793,0.003841782820206035,0.017449535807901043,0.0094889512266865,0.011300464819807883,0.01278869836387949,0.02521695134926395,0.011853649412597877,0.024454356771081643
0.1033448,0.003892763439011134,0.017403032282642106,0.009433699895792845,0.011314552025102918,0.012620648708730838,0.02513822614062558,0.011830452868346473,0.024413549025959713
0.1038103,0.0039442782766820166,0.0173557855604247,0.009378688709141688,0.011328224883937943,0.012453437658186585,0.025058646494622305,0.011807350187221469,0.024372270377741576
0.1042759,0.003996326829149667,0.01730780543050246,0.009323938827227212,0.011341483152504836,0.012287097000825387,0.02497822381390356,0.011784351153625906,0.024330536097898293
0.1047414,0.004048908492852266,0.017259101738492703,0.00926947130800666,0.011354326604195162,0.012121658024551235,0.024896969546625493,0.011761465501717612,0.02428836142490785
0.1052069,0.004102022564531645,0.017209684383407826,0.009215307102049899,0.011366755030288504,0.011957151511918717,0.0248148951843772,0.011738702914775294,0.02424576156080792
0.1056724,0.004155668241058092,0.017159563314699117,0.009161467047721143,0.01137876824064109,0.01179360773565989,0.024732012260131487,0.011716073024574397,0.024202751667754152
0.1061379,0.004209844619283635,0.017108748529314138,0.009107971866393262,0.01139036606437489,0.011631056454412439,0.02464833234622271,0.011693585410770932,0.024159346864583726
0.1066034,0.0042645506959238955,0.017057250068768782,0.009054842157695088,0.01140154835056724,0.011469526908648645,0.02456386705235431,0.011671249600291657,0.024115562223383718
0.107069,0.004319785367468656,0.017005078016234975,0.009002098394792026,0.011412314968941014,0.011309047816804613,0.024478628023638455,0.011649075066729027,0.02407141276606416
0.1075345,0.00437554743012126,0.016952242493644954,0.008949760919700211,0.011422665810555226,0.011149647371609174,0.02439262693867009,0.011627071229739425,0.024026913460935568
0.108,0.004431835579767024,0.01689875365881289,0.008897849938634477,0.011432600788495896,0.010991353236611772,0.024305875507637676,0.011605247454443232,0.023982079219290926
0.1084655,0.00448864841197084,0.016844621702574548,0.008846385517390334,0.011442119838566906,0.010834192542908575,0.024218385470472514,0.011583613050825338,0.023936924891992256
0.108931,0.0045459844220041975,0.016789856845945566,0.00879538757676021,0.011451222919980469,0.010678191886065953,0.024130168595038602,0.011562177273134857,0.02389146526606195
0.1093966,0.00460384200490183,0.01673446933729884,0.008744875887984218,0.011459910016046942,0.010523377323240428,0.024041236675364664,0.011540949319283011,0.023845715061279093
0.1098621,0.004662219455548227,0.016678469449561407,0.008694870068235733,0.011468181134863527,0.010369774370494099,0.023951601529919913,0.011519938330238401,0.02379968892678102
0.1103276,0.004721114968794208,0.016621867477431152,0.008645389576142082,0.011476036310001589,0.010217408000304443,0.023861274999934904,0.011499153389419047,0.023753401437670574
0.1107931,0.0047805266396037695,0.016564673734613677,0.008596453707340572,0.011483475601192216,0.010066302639267345,0.0237702689477687,0.011478603522080634,0.023706867091629724
0.1112586,0.00484045246323136,0.016506898551079636,0.008548081590070068,0.011490499095009715,0.009916482165992073,0.023678595255323422,0.011458297694700557,0.02366010030554056
0.1117241,0.00490089033542972,0.016448552270342812,0.008500292180798263,0.011497106905552716,0.009767969909186863,0.02358626582250711,0.011438244814357299,0.023613115412114843
0.1121897,0.004961838052688398,0.016389645246759236,0.008453104259884728,0.011503299175122526,0.009620788645933687,0.023493292565745685,0.011418453728104771,0.02356592665653338
0.1126552,0.005023293312502998,0.016330187842847513,0.008406536427279787,0.011509076074898388,0.009474960600150689,0.023399687416544555,0.011398933222341407,0.023518548193096643
0.1131207,0.005085253713675208,0.0162701904266305,0.008360607098259216,0.011514437805609285,0.009330507441240683,0.023305462320100216,0.011379692022173982,0.023470994081888043
0.1135862,0.005147716756643573,0.016209663368998404,0.008315334499194738,0.011519384598201884,0.009187450282924092,0.023210629233962173,0.011360738790776152,0.02342327828545165
0.1140517,0.005210679843845,0.016148617041093532,0.008270736663360251,0.011523916714504263,0.009045809682254578,0.02311520012674523,0.011342082128741946,0.02337541466548629
0.1145172,0.005274140280106866,0.01608706181171686,0.008226831426773802,0.011528034447884958,0.008905605638815593,0.02301918697689227,0.011323730573434389,0.02332741697955808
0.1149828,0.005338095273069622,0.016025008044756876,0.008183636424075408,0.01153173812390694,0.008766857594096008,0.02292260177148742,0.011305692598329392,0.023279298877833594
0.1154483,0.005402541933639721,0.01596246609664116,0.008141169084440942,0.011535028100976017,0.008629584431042907,0.022825456505119687,0.011287976612354976,0.023231073899835846
0.1159138,0.005467477276472642,0.015899446313811183,0.008099446627532605,0.011537904770983232,0.008493804473789621,0.022727763178796902,0.011270590959225876,0.023182755471225048
0.1163793,0.005532898220485769,0.015835959030220868,0.00805848605948665,0.01154036855994073,0.008359535487557003,0.022629533798909883,0.01125354391677341,0.023134356900606175
0.1168448,0.0055988015894008186,0.015772014564859313,0.008018304168939325,0.011542419928610598,0.008226794678725937,0.02253078037624672,0.011236843696270423,0.023085891376365273
0.1173103,0.0056651841123154705,0.015707623219298188,0.007978917523092186,0.01154405937312616,0.008095598695078974,0.02243151492505704,0.011220498441751107,0.023037371963536675
0.1177759,0.005732042424303802,0.015642795275264267,0.007940342463817997,0.01154528742560515,0.007965963626209025,0.0223317494621659,0.011204516229325287,0.022988811600703395
0.1182414,0.005799373067045104,0.015577540992237775,0.007902595103808571,0.011546104654754242,0.00783790500409298,0.02223149600613709,0.011188905066486822,0.02294022309693297
0.1187069,0.005867172489480617,0.015511870605077228,0.007865691322765923,0.011546511666464357,0.007711437803828075,0.022130766576485283,0.011173672891415642,0.02289161912875118
0.1191724,0.005935437048497688,0.015445794321671653,0.007829646763638173,0.01154650910439614,0.007586576444528854,0.022029573192936473,0.011158827572273,0.022843012237155912
0.1196379,0.0060041630096408635,0.015379322320621162,0.007794476828901702,0.011546097650555044,0.007463334790382493,0.021927927874736144,0.011144376906489497,0.02279441482467342
0.1201034,0.006073346547849422,0.015312464748946894,0.007760196676891124,0.011545278025855421,0.007341726151860296,0.02182584264000446,0.01113032862004552,0.022745839152458844
0.120569,0.006142983748220812,0.015245231719831437,0.007726821218178584,0.011544050990673026,0.007221763287083118,0.021723329505137733,0.011116690366743743,0.02269729733744318
0.1210345,0.006213070606799497,0.015177633310390848,0.007694365112003933,0.011542417345385303,0.007103458403338476,0.021620400484255432,0.011103469727473515,0.0226488013495284
0.1215,0.006283603031390693,0.015109679559479434,0.007662842762757251,0.011540377930898774,0.0069868231587471115,0.02151706758869192,0.011090674209466982,0.02260036300883258
0.1219655,0.006354576842398407,0.015041380465528515,0.007632268316515137,0.011537933629162877,0.006871868664076756,0.021413342826531893,0.011078311245546766,0.02255199398298653
0.122431,0.006425987773687221,0.01497274598442039,0.007602655657632145,0.011535085363669543,0.0067586054847008584,0.021309238202188496,0.011066388193365166,0.022503705784483456
0.1228966,0.00649783147346715,0.01490378602739874,0.007574018405388678,0.011531834099937917,0.006647043642699965,0.02120476571602287,0.011054912334634947,0.022455509768083054
0.1233621,0.006570103505200906,0.014834510459016645,0.007546369910696576,0.011528180845983576,0.00653719261910346,0.02109993736400373,0.011043890874351862,0.022407417128271333
0.1238276,0.006642799348532814,0.014764929095123279,0.00751972325286361,0.011524126652771813,0.006429061356269359,0.020994765137405495,0.011033330940009306,0.022359438896777543
0.1242931,0.006715914400238605,0.014695051700890317,0.007494091236418052,0.011519672614654553,0.0063226582603998676,0.02088926102254349,0.011023239580805541,0.022311585940149356
0.1247586,0.006789443975195239,0.014624887988878933,0.007469486387994492,0.011514819869790433,0.0062179912041903955,0.020783437000544663,0.011013623766844052,0.022263868957387578
0.1252241,0.006863383307369895,0.01455444761714825,0.007445920953282041,0.011509569600547682,0.006115067529609751,0.0206773050471525,0.011004490388327504,0.02221629847764153
0.1256897,0.006937727550827244,0.014483740187406032,0.007423406894036115,0.01150392303388931,0.00601389405080926,0.02057087713256493,0.010995846254745827,0.02216888485796617
0.1261552,0.007012471780754127,0.014412775243202346,0.0074019558851549285,0.01149788144174014,0.00591447705715854,0.020464165221304,0.010987698094058864,0.022121638281142126
0.1266207,0.007087610994500793,0.014341562268166855,0.007381579311821874,0.011491446141335135,0.005816822316405701,0.020357181272116307,0.010980052551873976,0.022074568753559846
0.1270862,0.007163140112637935,0.014270110684290342,0.007362288266714874,0.01148461849554855,0.005720935077959745,0.02024993723790303,0.010972916190618957,0.02202768610316907
0.1275517,0.0072390539800288,0.014198429850250978,0.007344093547283779,0.01147739991320329,0.005626820076292945,0.020142445065678468,0.01096629548871059,0.021980999977495
0.1280172,0.007315347366915735,0.014126529059785765,0.007327005653096816,0.011469791849359846,0.005534481534461023,0.02003471669655605,0.010960196839719131,0.021934519841722344
0.1284828,0.007392014970020594,0.014054417540107486,0.007311034783257038,0.011461795805584134,0.005443923167738937,0.01992676406576087,0.010954626551529033,0.02188825497684874
0.1289483,0.007469051413658524,0.013982104450367381,0.00729619083388968,0.011453413330193448,0.005355148187370105,0.019818599102667787,0.010949590845496166,0.02184221447790878
0.1294138,0.007546451250864673,0.01390959888016372,0.007282483395701276,0.011444646018479679,0.005268159304426934,0.01971023373086428,0.010945095855601869,0.0217964072522701
0.1298793,0.007624208964533472,0.013836909848096327,0.007269921751611341,0.011435495512908898,0.005182958733780475,0.019601679868237066,0.010941147627604241,0.02175084201800299
0.1303448,0.007702318968570244,0.013764046300366992,0.007258514874457355,0.011425963503296388,0.0050995481981771255,0.019492949427081487,0.010937752118187172,0.021705527302325077
0.1308103,0.007780775609054966,0.013691017109425684,0.007248271424773761,0.01141605172695616,0.005017928932420243,0.01938405431423252,0.0109349151941078,0.021660471440122637
0.1312759,0.007859573165418096,0.013617831072662385,0.007239199748645623,0.011405761968824188,0.004938101687654587,0.019275006431216248,0.010932642631343187,0.021615682572549907
0.1317414,0.007938705851628418,0.013544496911144397,0.007231307875637528,0.011395096061554578,0.004860066735751485,0.019165817674420504,0.010930940114237103,0.02157116864570782
0.1322069,0.008018167817392929,0.01347102326839885,0.007224603516798266,0.011384055885587996,0.004783823873792654,0.019056499935283282,0.010929813234647723,0.021526937409403382
0.1326724,0.008097953149368736,0.013397418709240239,0.007219094062741751,0.011372643369191693,0.004709372428650612,0.018947065100497446,0.010929267491097211,0.021482996415990947
0.1331379,0.008178055872386935,0.01332369171864277,0.007214786581804586,0.011360860488470445,0.004636711261663606,0.0188375250522301,0.010929308287923968,0.021439353019296486
0.1336034,0.008258469950688387,0.013249850700657394,0.007211687818280637,0.01134870926734766,0.004565838773403013,0.018727891668355003,0.010929940934438286,0.021396014373626107
0.134069,0.00833918928917122,0.0131759039773734,0.007209804190732897,0.011336191777515868,0.004496752908531183,0.01861817682269627,0.010931170644082088,0.02135298743285976
0.1345345,0.008420207734649847,0.013101859787924577,0.007209141790382877,0.01132331013835576,0.004429451160747675,0.018508392385281586,0.010933002533593347,0.021310278949631136
0.135,0.008501519077125206,0.013027726287539867,0.007209706379577733,0.011310066516822884,0.004363930577821864,0.018398550222603217,0.010935441622175726,0.021267895474594543
0.1354655,0.008583117051065915,0.012953511546638694,0.007211503390335222,0.011296463127301178,0.004300187766709914,0.01828866219788498,0.010938492830673871,0.021225843355779376
0.135931,0.008664995336699973,0.012879223549971106,0.007214537922966583,0.01128250223142259,0.0042382188987540636,0.018178740171353503,0.010942160980754739,0.021184128738032694
0.1363966,0.008747147561316717,0.012804870195802984,0.007218814744777363,0.011268186137852151,0.004178019714962236,0.01806879600051206,0.01094645079409527,0.021142757562550185
0.1368621,0.008829567300578729,0.012730459295146596,0.007224338288846186,0.011253517202037974,0.004119585531365946,0.017958841540415313,0.010951366891576575,0.02110173556649573
0.1373276,0.008912248079843534,0.012655998571036777,0.0072311126528814265,0.011238497825925864,0.004062911244454532,0.017848888643943284,0.010956913792484865,0.02106106828270956
0.1377931,0.008995183375494998,0.012581495657853072,0.0072391415981556675,0.01122313045763833,0.0040079913366837545,0.017738949162072956,0.010963095913719186,0.02102076103950503
0.1382586,0.009078366616284387,0.012506958100687988,0.007248428548517866,0.011207417591117937,0.003954819882056861,0.017629034944145985,0.010969917569006055,0.02098081896055387
0.1387241,0.009161791184681174,0.012432393354761553,0.007258976589483063,0.011191361765735106,0.0039033905517762315,0.01751915783813111,0.010977382968121011,0.020941246964859654
0.1391897,0.009245450418233728,0.012357808784882228,0.007270788467399527,0.011174965565860461,0.0038536966199637715,0.01740932969087991,0.010985496216117104,0.020902049766819232
0.1396552,0.009329337610940064,0.012283211664954184,0.0072838665886932105,0.011158231620402023,0.0038057309694482094,0.01729956234837458,0.010994261312560186,0.02086323187637164
0.1401207,0.009413446014628792,0.012208609177530848,0.0072982130191894526,0.011141162602307533,0.0037594860976174816,0.017189867655966272,0.01100368215077087,0.020824797599233995
0.1405862,0.009497768840350406,0.012134008413414653,0.007313829483511848,0.01112376122803242,0.0037149541223343886,0.017080257458602487,0.011013762517072917,0.02078675103722374
0.1410517,0.009582299259778982,0.012059416371302827,0.007330717364558209,0.01110603025697414,0.003672126787913686,0.01697074360104194,0.01102450609004781,0.020749096088666607
0.1415172,0.009667030406624292,0.011984839957479176,0.007348877703053528,0.011087972490873923,0.003630995471158761,0.016861337928055276,0.011035916439795266,0.020711836448889624
0.1419828,0.009751955378054263,0.0119102859855517,0.007368311197179807,0.01106959077318717,0.0035915511874560248,0.016752052284610058,0.01104799702719945,0.020674975610798608
0.1424483,0.009837067236127737,0.011835761176235962,0.007389018202282576,0.011050887988424036,0.0035537845969251304,0.01664289851603838,0.011060751203200643,0.020638516865539573
0.1429138,0.009922359009237387,0.011761272157184076,0.007410998730653897,0.01103186706146187,0.003517686010623095,0.016533888468185497,0.011074182208072178,0.020602463303243605
0.1433793,0.010007823693562672,0.011686825462859157,0.00743425245139164,0.011012530956831277,0.003483245396800388,0.0164250339875379,0.011088293170702437,0.020566817813854613
0.1438448,0.010093454254532694,0.011612427534454968,0.007458778690334806,0.010992882677977598,0.003450452387207013,0.016316346921329328,0.011103087107881677,0.02053158308803948
0.1443103,0.010179243628298829,0.011538084719860493,0.007484576430074679,0.010972925266499607,0.003419296283446609,0.016207839117623433,0.011118566923593434,0.020496761618179902
0.1447759,0.010265184723216888,0.011463803273669056,0.00751164431004162,0.010952661801367105,0.0033897660633765495,0.016099522425372045,0.011134735408310227,0.02046235569944519
0.1452414,0.010351270421338557,0.011389589357231542,0.0075399806266673915,0.01093209539811912,0.0033618503875520117,0.01599140869444816,0.011151595238293323,0.02042836743094525
0.1457069,0.010437493579911831,0.011315449038753188,0.007569583333622967,0.010911229208044337,0.0033355376057119606,0.015883509775652952,0.011169148974896273,0.020394798716962814
0.1461724,0.010523847032890117,0.01124138829343337,0.007600450042131907,0.010890066417345358,0.003310815763304977,0.015775837520695994,0.011187399063871967,0.020361651268263947
0.1466379,0.010610323592449716,0.011167413003647677,0.0076325780213594785,0.010868610246288383,0.003287672608052854,0.015668403782148038,0.011206347834682944,0.02032892660348573
0.1471034,0.010696916050515428,0.011093528959171588,0.0076659641988778,0.010846863948339771,0.0032660955965498613,0.015561220413365481,0.011225997499814743,0.020296626050599974
0.147569,0.010783617180294079,0.011019741857444868,0.007700605161207332,0.010824830809290965,0.003246071900895605,0.015454299268385803,0.011246350154092043,0.020264750748451864
0.1480345,0.01087041973781579,0.010946057303875864,0.007736497154435136,0.010802514146373128,0.0032275884153593745,0.015347652201793342,0.011267407773997306,0.02023330164837254
0.1485,0.010957316463482886,0.010872480812184707,0.007773636084910348,0.010779917307362805,0.0032106317630738635,0.01524129106855482,0.011289172216991638,0.02020227951586455
0.1489655,0.011044300083626373,0.010799017804784391,0.0078120175200174675,0.010757043669679804,0.003195188302756138,0.015135227723824191,0.011311645220837493,0.020171684932359345
0.149431,0.011131363312069998,0.010725673613198688,0.007851636689028128,0.010733896639478524,0.003181244135453693,0.015029474022716397,0.011334828402922806,0.0201415182970457
0.1498966,0.011218498851701895,0.010652453478515738,0.007892488484032156,0.010710479650733832,0.0031687851113134263,0.014924041820049668,0.011358723259586147,0.020111779828768123
0.1503621,0.011305699396053836,0.01057936255187619,0.00793456746094876,0.01068679616432256,0.0031577968363713316,0.014818942970055963,0.011383331165442438,0.02008246956799411
0.1508276,0.011392957630888075,0.010506405894994634,0.007977867840618835,0.010662849667101668,0.003148264679360693,0.014714189326059234,0.01140865337270885,0.020053587378849085
0.1512931,0.011480266235791728,0.010433588480713142,0.008022383509979318,0.010638643670984016,0.003140173778536535,0.014609792740121216,0.011434691010530547,0.020025132951217793
0.1517586,0.01156761788577858,0.010360915193585746,0.008068108023320631,0.010614181712012625,0.003133509048514078,0.014505765062654502,0.011461445084305993,0.01999710580291078
0.1522241,0.011655005252898113,0.010288390830492732,0.008115034603628122,0.010589467349434261,0.0031282551871189275,0.01440211814200267,0.011488916475011629,0.01996950528189469
0.1526897,0.011742421007851488,0.010216020101283673,0.008163156144008464,0.010564504164773085,0.0031243966822466973,0.014298863823987214,0.01151710593852573,0.019942330568584785
0.1531552,0.011829857821614052,0.010143807629448184,0.008212465209201865,0.01053929576090504,0.003121917818729784,0.014196013951421017,0.01154601410495128,0.019915580678198187
0.1536207,0.01191730836706395,0.010071757952813346,0.008262954037180862,0.010513845761133596,0.0031208026852089926,0.014093580363588107,0.011575641477937677,0.01988925446316609
0.1540862,0.012004765320616277,0.009999875524266831,0.008314614540836473,0.010488157808267421,0.003121035181007732,0.013991574895689451,0.011605988434001286,0.019863350615603192
0.1545517,0.012092221363862109,0.009928164712504756,0.00836743830975237,0.010462235563700467,0.0031225990230065327,0.0138900093782546,0.011637055221844978,0.01983786766983241
0.1550172,0.012179669185211723,0.009856629802803342,0.008421416612067708,0.010436082706494987,0.003125477752515633,0.013788895636519027,0.011668841961676894,0.019812804004962933
0.1554828,0.012267101481541198,0.009785274997813561,0.008476540396429151,0.010409702932467966,0.003129654742143401,0.013688245489767045,0.011701348644528868,0.01978815784751948
0.1559483,0.012354510959841587,0.009714104418378035,0.008532800294032559,0.0103830999532814,0.0031351132026583447,0.01358807075064022,0.011734575131574979,0.019763927274120626
0.1564138,0.012441890338869688,0.009643122104369463,0.008590186620754803,0.010356277495536862,0.0031418361898424636,0.013488383224411208,0.01176852115345068,0.01974011021420403
0.1568793,0.012529232350799446,0.009572332015549943,0.008648689379376033,0.010329239299874693,0.0031498066113336966,0.01338919470822287,0.011803186309573086,0.019716704452796212
0.1573448,0.012616529742872864,0.009501738032450495,0.008708298261892714,0.010301989120078108,0.0031590072334552162,0.013290516990292562,0.011838570067462932,0.019693707633324637
0.1578103,0.012703775279049284,0.009431343957270124,0.008769002651921702,0.010274530722182425,0.00316942068802933,0.013192361849081364,0.011874671762068701,0.01967111726046968
0.1582759,0.012790961741651815,0.009361153514793632,0.00883079162719563,0.010246867883589542,0.003181029479173749,0.013094741052428088,0.011911490595093499,0.019648930703053825
0.1587414,0.012878081933009615,0.009291170353327364,0.008893653962149748,0.010219004392187711,0.003193815990077978,0.012997666356647961,0.01194902563432514,0.019627145196965456
0.1592069,0.012965128677094855,0.009221398045652038,0.00895757813060044,0.010190944045476625,0.0032077624897575863,0.012901149505596033,0.011987275812970058,0.019605757848114313
0.1596724,0.013052094821153042,0.009151840089991719,0.00902255230851549,0.010162690649697699,0.00322285113978411,0.012805202229695565,0.012026239928991732,0.019584765635415623
0.1601379,0.013138973237325564,0.009082499910998042,0.009088564376876204,0.010134248018969476,0.0032390640009883277,0.012709836244931823,0.01206591664445451,0.01956416541379974
0.1606034,0.013225756824263236,0.009013380860748786,0.009155601924631343,0.010105619974427956,0.003256383040134643,0.012615063251811753,0.012106304484874006,0.019543953917244044
0.161069,0.013312438508729735,0.008944486219759925,0.009223652251742851,0.010076810343371649,0.0032747901365643164,0.012520894934289959,0.01214740183857543,0.019524127761824044
0.1615345,0.01339901124719386,0.008875819198010336,0.009292702372323245,0.010047822958411052,0.0032942670888052718,0.012427342958661446,0.012189206956061486,0.019504683448780653
0.162,0.013485468027409566,0.00880738293597834,0.009362739017864552,0.010018661656622234,0.0033147956211462366,0.01233441897242145,0.012231717949391645,0.019485617367600988
0.1624655,0.013571801869982776,0.00873918050568936,0.009433748640558596,0.00998933027870417,0.003336357390173019,0.012242134603092678,0.012274932791574673,0.01946692579911015
0.162931,0.013658005829923924,0.008671214911773896,0.009505717416708399,0.009959832668139419,0.003358933991264793,0.01215050145702019,0.012318849315976385,0.019448604918571706
0.1633966,0.01374407299818519,0.008603489092535173,0.009578631250230393,0.009930172670357833,0.0033825069650482804,0.01205953111813413,0.01236346521574469,0.019430650798794632
0.1638621,0.013829996503181214,0.008536005921025743,0.009652475776247121,0.009900354131903051,0.0034070578038077892,0.011969235146680569,0.012408778043254041,0.019413059413244508
0.1643276,0.013915769512292078,0.008468768206132465,0.009727236364770018,0.00987038089960165,0.0034325679578490783,0.011879625077920748,0.012454785209571509,0.019395826639156954
0.1647931,0.014001385233347239,0.008401778693669268,0.009802898124471795,0.009840256819734878,0.0034590188418150035,0.011790712420799043,0.012501483983946727,0.019378948260651292
0.1652586,0.014086836916089135,0.008335040067477198,0.00987944590654792,0.009809985737212975,0.0034863918409509163,0.011702508656579956,0.012548871493327975,0.01936241997184269
0.1657241,0.01417211785361529,0.008268554950531271,0.00995686430866659,0.00977957149475213,0.003514668317317767,0.011615025237454418,0.012596944721906594,0.019346237379951028
0.1661897,0.014257221383797883,0.008202325906053685,0.010035137679006505,0.009749017932054118,0.0035438296159508564,0.011528273585115684,0.012645700510691877,0.01933039600840482
0.1666552,0.01434214089068019,0.008136355438632873,0.01011425012038171,0.00971832888498877,0.0035738570709621677,0.01144226508930501,0.01269513555711849,0.019314891299938478
0.1671207,0.014426869805849405,0.008070645995347863,0.010194185494452635,0.009687508184779514,0.003604732011584216,0.011357011106327414,0.01274524641468837,0.019299718619681213
0.1675862,0.014511401609785717,0.008005199966897351,0.010274927426022458,0.009656559657192268,0.0036364357681533325,0.01127252295753771,0.012796029492648974,0.019284873258235948
0.1680517,0.014595729833187715,0.007940019688732826,0.010356459307417814,0.00962548712172798,0.003668949678030292,0.011188811927797075,0.012847481055709643,0.01927035043474653
0.1685172,0.014679848058274133,0.00787510744219503,0.010438764302952798,0.0095942943908191,0.0037022550914562126,0.011105889263900413,0.012899597223797767,0.019256145299951743
0.1689828,0.014763749920062097,0.007810465455653017,0.010521825353475204,0.009562985269030284,0.003736333377341656,0.011023766172974743,0.012952373971856376,0.01924225293922453
0.1694483,0.01484742910762202,0.00774609590564497,0.010605625180993804,0.009531563552263545,0.003771165928986903,0.010942453820848897,0.013005807129684709,0.019228668375594938
0.1699138,0.014930879365309289,0.007682000918019912,0.010690146293385485,0.0095000330269682,0.003806734169731406,0.01086196333039475,0.013059892381823214,0.019215386572755386
0.1703793,0.015014094493973196,0.007618182569079398,0.010775370989180957,0.009468397469355861,0.0038430195585304437,0.010782305779840249,0.013114625267484395,0.019202402438046825
0.1708448,0.015097068352143488,0.0075546428867182104,0.010861281362427727,0.009436660644620832,0.0038800035954570378,0.01070349220105452,0.0131700011805308,0.019189710825424366
0.1713103,0.015179794857195237,0.0074913838515630465,0.010947859307628984,0.009404826306166143,0.003917667827127167,0.010625533577805282,0.01322601536950139,0.019177306538400996
0.1717759,0.015262267986492734,0.007428407398108101,0.011035086524757026,0.00937289819483549,0.0039559938520463455,0.010548440843988805,0.013282662937687473,0.01916518433296785
0.1722414,0.015344481778513181,0.007365715415846424,0.011122944524339849,0.009340880038151277,0.003994963325875627,0.010472224881832672,0.013339938843259248,0.019153338920489576
0.1727069,0.015426430333950962,0.0073033097503958306,0.011211414632619408,0.009308775549558893,0.00403455796661511,0.010396896520071478,0.013397837899443998,0.019141764970573263
0.1731724,0.015508107816803248,0.007241192204618133,0.011300477996780066,0.009276588427677408,0.004074759559703027,0.010322466532095644,0.013456354774756946,0.01913045711390944
0.1736379,0.015589508455437587,0.007179364539730407,0.01139011559024568,0.009244322355556759,0.0041155499630284986,0.010248945634073376,0.013515483993285709,0.019119409945083828
0.1741034,0.015670626543642076,0.007117828476406997,0.011480308218043703,0.009211980999941628,0.004156911111856099,0.010176344483045836,0.01357521993502925,0.019108618025358532
0.174569,0.01575145644165862,0.007056585695871004,0.01157103652223467,0.009179568010542176,0.004198825023660357,0.010104673674995478,0.013635556836292258,0.019098075885421506
0.1750345,0.01583199257719965,0.006995637840974102,0.011662280987405436,0.009147087019311903,0.0042412738028684,0.010033943742887477,0.01369648879013589,0.019087778028103113
0.1755,0.01591222944644859,0.006934986517263615,0.011754021946224547,0.009114541639732921,0.004284239645508952,0.009964165154684153,0.013758009746885892,0.019077718931058776
0.1759655,0.01599216161504432,0.00687463329403588,0.011846239585058234,0.009081935466108939,0.00432770484376598,0.00989534831133214,0.013820113514699037,0.019067893049416702
0.176431,0.01607178371904969,0.006814579705374942,0.011938913949645398,0.009049272072866332,0.004371651790435315,0.009827503544722106,0.013882793760188826,0.019058294818389835
0.1768966,0.016151090465904246,0.00675482725117568,0.012032024950829981,0.009016555013863692,0.004416062983282782,0.009760641115620663,0.013946044009111305,0.019048918655851062
0.1773621,0.016230076635361138,0.006695377398150366,0.012125552370349143,0.008983787821710274,0.004460921029302445,0.009694771211574095,0.014009857647111736,0.019039758964870916
0.1778276,0.016308737080408392,0.00663623158081774,0.012219475866675487,0.008950974007093793,0.004506208648873837,0.009629903944783403,0.014074227920532789,0.019030810136216946
0.1782931,0.016387066728174682,0.006577391202473631,0.012313774980911692,0.008918117058118092,0.004551908679817181,0.00956604934995015,0.014139147937284793,0.019022066550814086
0.1787586,0.016465060580819982,0.006518857636142175,0.012408429142735765,0.008885220439651155,0.004598004081345837,0.009503217382092503,0.014204610667778469,0.019013522582165262
0.1792241,0.016542713716411434,0.00646063222550673,0.012503417676395172,0.008852287592683947,0.0046444779379153185,0.009441417914330888,0.014270608945920474,0.019005172598731544
0.1796897,0.01662002128978495,0.006402716285819599,0.012598719806748076,0.008819321933700608,0.004691313462968321,0.00938066073564273,0.014337135470171914,0.018997010966271162
0.1801552,0.016696978533393084,0.006345111104789683,0.012694314665350028,0.008786326854060512,0.004738494002575294,0.009320955548585802,0.01440418280466993,0.01898903205013661
0.1806207,0.016773580758139714,0.006287817943447221,0.01279018129658451,0.008753305719392854,0.004786003038970141,0.00926231196698989,0.014471743380412346,0.01898123021752917
0.1810862,0.016849823354202185,0.006230838036984798,0.012886298663835869,0.00872026186900445,0.004833824193980712,0.00920473951361652,0.01453980949650527,0.018973599839710063
0.1815517,0.016925701791841358,0.006174172595573836,0.012982645655703385,0.008687198615301569,0.004881941232353884,0.009148247617786596,0.014608373321473475,0.018966135294167494
0.1820172,0.017001211622200075,0.006117822805155811,0.013079201092255228,0.008654119243226548,0.004930338064975075,0.009092845612975829,0.014677426894633363,0.01895883096673895
0.1824828,0.017076348478090458,0.006061789828207483,0.013175943731321168,0.008621027009710064,0.004978998751982214,0.009038542734378055,0.014746962127528228,0.018951681253688166
0.1829483,0.017151108074770254,0.006006074804479441,0.013272852274822824,0.008587925143139765,0.005027907505774288,0.008985348116436592,0.014816970805425626,0.01894468056373619
0.1834138,0.017225486210708404,0.005950678851707264,0.013369905375140231,0.008554816842845992,0.005077048693914714,0.008933270790344066,0.014887444588876577,0.01893782332004594
0.1838793,0.017299478768339874,0.00589560306629462,0.01346708164151332,0.0085217052786052,0.005126406841929862,0.008882319681511229,0.014958375015336386,0.018931103962159662
0.1843448,0.017373081714809575,0.005840848523967569,0.013564359646476936,0.008488593590161648,0.005175966636003112,0.00883250360700539,0.015029753500846912,0.018924516947888617
0.1848103,0.017446291102705114,0.0057864162803994,0.013661717932327748,0.00845548488676783,0.005225712925564835,0.008783831272959177,0.015101571341780152,0.01891805675515439
0.1852759,0.017519103070777975,0.005732307371805341,0.013759135017621459,0.008422382246744152,0.005275630725778713,0.008736311271950225,0.015173819716642967,0.018911717883781237
0.1857414,0.01759151384465255,0.0056785228155065695,0.01385658940369851,0.008389288717058208,0.0053257052199248535,0.008689952080352474,0.015246489687942807,0.018905494857239073
0.1862069,0.017663519737522396,0.0056250636104631085,0.013954059581236453,0.008356207312924127,0.005375921761680194,0.008644762055659649,0.015319572204114253,0.018899382224336774
0.1866724,0.01773511715083299,0.005571930737775314,0.01405152403682706,0.008323141017422332,0.005426265877296733,0.00860074943378148,0.015393058101506103,0.018893374560865803
0.1871379,0.017806302574950108,0.005519125161153782,0.014148961259576175,0.008290092781140162,0.005476723267678171,0.008557922326313213,0.015466938106428635,0.018887466471194332
0.1876034,0.017877072589813005,0.005466647827357606,0.014246349747724298,0.008257065521833752,0.005527279810355636,0.008516288717778948,0.015541202837260584,0.01888165258981225
0.188069,0.017947423865571372,0.005414499666600964,0.014343668015285858,0.008224062124111631,0.005577921561363226,0.008475856462849329,0.015615842806615265,0.0188759275828275
0.1885345,0.01801735316320506,0.005362681592928014,0.014440894598705024,0.008191085439140516,0.0056286347570141965,0.008436633283534074,0.01569084842356516,0.018870286149414207
0.189,0.018086857335125498,0.005311194504556088,0.014538008063525872,0.008158138284373818,0.0056794058155786665,0.008398626766349877,0.01576620999592434,0.01886472302321316
0.1894655,0.018155933325757732,0.00526003928418717,0.014634987011074694,0.008125223443303424,0.005730221338863717,0.008361844359464144,0.015841917732588074,0.01885923297368511
0.189931,0.018224578172102126,0.005209216799287708,0.014731810085152109,0.008092343665235318,0.005781068113696728,0.008326293369815031,0.01591796174592915,0.01885381080741759
0.1903966,0.018292789004274695,0.005158727902336885,0.014828455978732663,0.008059501665089685,0.005831933113312817,0.008291980960208308,0.015994332054250448,0.018848451369385958
0.1908621,0.018360563046025073,0.005108573431043584,0.01492490344066951,0.00802670012322609,0.005882803498647246,0.008258914146391677,0.01607101858429337,0.018843149544169546
0.1913276,0.018427897615231177,0.005058754208532416,0.015021131282401722,0.00799394168529439,0.005933666619533643,0.008227099794107285,0.016148011173801675,0.01883790025712397
0.1917931,0.018494790124369512,0.005009271043499265,0.015117118384661798,0.007961228962111969,0.005984510015808964,0.008196544616123316,0.01622529957414023,0.018832698475510785
0.1922586,0.018561238080959986,0.00496012473033682,0.015212843704180764,0.0079285645295679,0.006035321418326145,0.008167255169245697,0.01630287345296815,0.018827539209585718
0.1927241,0.018627239087984172,0.004911316049230591,0.01530828628038824,0.007895950928554565,0.006086088749875492,0.008139237851311142,0.016380722396965742,0.018822417513646755
0.1931897,0.018692790844275855,0.004862845766225897,0.015403425242104755,0.007863390664927247,0.006136800126015872,0.008112498898162908,0.01645883591461461,0.018817328487043487
0.1936552,0.018757891144882844,0.004814714633266309,0.015498239814223486,0.007830886209492191,0.00618744385581687,0.008087044380610937,0.016537203439030347,0.018812267275149078
0.1941207,0.018822537881399204,0.0047669233882040125,0.015592709324378475,0.0077984399980235534,0.006238008442513078,0.008062880201378046,0.01661581433084715,0.0188072290702962
0.1945862,0.01888672904226715,0.004719472754782635,0.015686813209596303,0.007766054431309595,0.006288482584071646,0.008040012092033902,0.01669465788115366,0.018802209112678155
0.1950517,0.018950462713048073,0.004672363442593081,0.015780531022928045,0.007733731875228494,0.0063388551736742816,0.00801844560991854,0.016773723314479173,0.018797202691216368
0.1955172,0.01901373707666245,0.0046255961470029975,0.015873842440058284,0.007701474660854053,0.006389115300114824,0.0079981861350572,0.016852999791829405,0.01879220514439539
0.1959828,0.019076550413598497,0.004579171549060528,0.01596672726588789,0.007669285084591608,0.006439252248113507,0.007979238867068418,0.016932476413770704,0.018787211861066418
0.1964483,0.019138901102089597,0.0045330903153730385,0.0160591654410872,0.007637165408344386,0.006489255498549021,0.007961608822067503,0.01701214222356164,0.018782218281220397
0.1969138,0.019200787618260655,0.0044873530979615784,0.016151137048616204,0.007605117859710586,0.00653911472860953,0.007945300829567695,0.017091986210330798,0.018777219896731756
0.1973793,0.01926220853624356,0.004441960534091852,0.016242622320208285,0.0075731446322114355,0.006588819811863815,0.007930319529381462,0.01717199731229954,0.018772212252073626
0.1978448,0.019323162528262012,0.0043969132460825325,0.01633360164281402,0.007541247885550455,0.006638360818253859,0.007916669368524443,0.01725216442004845,0.01876719094500536
0.1983103,0.01938364836468601,0.004352211841091798,0.016424055565001462,0.0075094297459041845,0.006687728014010203,0.007904354598124639,0.01733247637982623,0.01876215162723295
0.1987759,0.019443664914056323,0.004307856910883024,0.016513964803309324,0.007477692306244551,0.0067369118614915005,0.007893379270339488,0.017412921996899564,0.018757090005042835
0.1992414,0.019503211143079367,0.0042638490315705935,0.016603310248549386,0.007446037626693049,0.00678590301894971,0.00788374723528342,0.01749349003894268,0.018752001839909545
0.1997069,0.019562286116593053,0.004220188763346858,0.016692072972054384,0.007414467734906844,0.006834692340222383,0.007875462137968458,0.017574169239465063,0.018746882949077365
0.2001724,0.019620888997504173,0.004176876650191295,0.01678023423186758,0.007382984626496822,0.006883270874353524,0.007868527415260413,0.0176549483012759,0.018741729206116175
0.2006379,0.019679019046698058,0.0041339132195629645,0.01686777547887017,0.007351590265477588,0.006931629865144505,0.007862946292853171,0.017735815899983683,0.018736536541451618
0.2011034,0.019736675622921168,0.004091298982077336,0.016954678362842666,0.007320286584749367,0.006979760750636503,0.007858721782263541,0.017816760687529423,0.01873130094286979
0.201569,0.019793858182637285,0.004049034431168625,0.01704092473845641,0.007289075486611656,0.007027655162525946,0.007855856677849103,0.017897771295751822,0.018726018455996633
0.2020345,0.019850566279857727,0.0040071200427386966,0.017126496671191524,0.007257958843308491,0.0070753049255144786,0.007854353553851442,0.01797883633998274,0.018720685184752364
0.2025,0.019906799565946078,0.003965556274793655,0.017211376443177565,0.0072269384976051156,0.0071227020565949595,0.00785421476146713,0.018059944422671236,0.018715297291781133
0.2029655,0.01996255778939764,0.003924343567069187,0.01729554655895343,0.007196016263395801,0.007169838764274988,0.007855442425948732,0.018141084137034278,0.0187098509988563
0.203431,0.0200178407955938,0.003883482340645728,0.01737898975114344,0.0071651939263425455,0.007216707447739529,0.007858038443738087,0.018222244070732238,0.01870434258726153
0.2038966,0.02007264852653129,0.0038429729975545087,0.017461688986046983,0.007134473244544339,0.007263300695954146,0.007862004479634031,0.01830341280956707,0.01869876839814794
0.2043621,0.020126981020526163,0.003802815920375512,0.01754362746913951,0.007103855949236667,0.007309611286710368,0.007867341963996676,0.018384578941201143,0.018693124832867374
0.2048276,0.020180838411892364,0.003763011471828359,0.017624788650483003,0.007073343745520862,0.007355632185614667,0.007874052089990334,0.018465731058894545,0.018687408353281892
0.2052931,0.020234220930594467,0.0037235599943571075,0.017705156230044282,0.007042938313122928,0.007401356545022537,0.007882135810867118,0.018546857765258686,0.01868161548204934
0.2057586,0.02028712890187433,0.0036844618097099328,0.017784714162919612,0.007012641307181382,0.007446777702919118,0.007891593837293247,0.018627947676023878,0.018675742802884893
0.2062241,0.020339562745851327,0.0036457172185146297,0.017863446664463843,0.006982454359063637,0.007491889181747829,0.007902426634720058,0.01870898942381856,0.018669786960798452
0.2066897,0.02039152297709597,0.0036073264998508344,0.017941338215322376,0.006952379077210386,0.007536684687188414,0.007914634420801706,0.018789971661957682,0.01866374466230791
0.2071552,0.020443010204176913,0.0035692899108198534,0.01801837356636402,0.006922417048007443,0.007581158106885791,0.00792821716286148,0.018870883068237743,0.01865761267562844
0.2076207,0.020494025129181456,0.0035316076861129464,0.01809453774351275,0.006892569836684395,0.007625303509131048,0.007943174575408624,0.01895171234873592,0.018651387830838185
0.2080862,0.020544568547209874,0.003494280037578876,0.018169816052476293,0.006862838988239416,0.007669115141495895,0.007959506117707453,0.01903244824161063,0.018645067020020764
0.2085517,0.020594641345843996,0.003457307153791515,0.018244194083369338,0.00683322602838951,0.007712587429421844,0.007977210991400552,0.019113079520900845,0.01863864719738515
0.2090172,0.020644244504590705,0.0034206891996182718,0.0183176577152291,0.006803732464545394,0.007755714974765386,0.007996288138187745,0.019193595000321494,0.01863212537936352
0.2094828,0.020693379094301183,0.0033844263157900745,0.01839019312042092,0.006774359786810221,0.00779849255430033,0.00801673623756249,0.01927398353705222,0.01862549864468758
0.2099483,0.020742046276566957,0.00334851861847361,0.018461786768931548,0.006745109469001273,0.007840915118178499,0.008038553704607359,0.01935423403551683,0.018618764134443966
0.2104138,0.020790247303093954,0.003312966198846522,0.018532425432547784,0.006715982969693782,0.00788297778834986,0.008061738687850206,0.0194343354511508,0.01861191905210925
0.2108793,0.02083798351505594,0.0032777691226762037,0.01860209618891837,0.006686981733285976,0.00792467585694321,0.00808628906718271,0.019514276794154264,0.018604960663565
0.2113448,0.020885256342428764,0.003242927429902825,0.018670786425497226,0.006658107191084427,0.007966004784608441,0.008112202451842923,0.019594047133227953,0.0185978862970936
0.2118103,0.02093206730330669,0.0032084411342272016,0.01873848384336651,0.006629360762408762,0.008006960198821453,0.008139476178463499,0.01967363559928953,0.018590693343355575
0.2122759,0.020978418003202017,0.0031743102227040736,0.018805176460938204,0.00660074385571472,0.008047537892152703,0.008168107309187253,0.01975303138916771,0.018583379255349402
0.2127414,0.02102431013432905,0.003140534655341356,0.01887085261753338,0.006572257869734538,0.008087733820500376,0.008198092629851631,0.01983222376927152,0.01857594154835488
0.2132069,0.021069745474873277,0.0031071143647058925,0.018935500976838465,0.006543904194633612,0.00812754410128916,0.008229428648243688,0.01991120207923217,0.018568377799861122
0.2136724,0.021114725888246536,0.0030740492555362104,0.018999110530238016,0.0065156842131823284,0.008166965011635614,0.008262111592427086,0.019989955735514965,0.01856068564948014
0.2141379,0.021159253322328726,0.003041339204362767,0.019061670600023575,0.006487599301941952,0.008205992986481198,0.008296137409142595,0.02006847423499886,0.018552862798846922
0.2146034,0.02120332980869662,0.0030089840591361497,0.019123170842478276,0.006459650832463419,0.008244624616693987,0.008331501762283547,0.02014674715852115,0.018544907011506698
0.215069,0.021246957461840334,0.0029769836388636737,0.019183601250836808,0.0064318401724978574,0.00828285664714015,0.008368200031447627,0.020224764174384943,0.018536816112790056
0.2155345,0.021290138478368043,0.0029453377332547943,0.019242952158120403,0.00640416868721761,0.008320685974726192,0.008406227310566334,0.020302515041827066,0.018528587989676413
0.216,0.021332875136199515,0.0029140461023757468,0.01930121423984658,0.006376637740446517,0.00835810964641292,0.008445578406613433,0.020379989614443966,0.01852022059064626
0.2164655,0.02137516979374912,0.002883108476313801,0.019358378516613414,0.0063492486958981855,0.008395124857202072,0.008486247838393647,0.02045717784357313,0.018511711925522593
0.216931,0.021417024889098916,0.0028525245548514846,0.01941443635655818,0.006322002918420924,0.008431728948096484,0.008528229835412876,0.020534069781627508,0.018503060065301835
0.2173966,0.02145844293916227,0.002822294007151124,0.019469379477690316,0.006294901775247971,0.008467919404034775,0.008571518336831216,0.020610655585380264,0.018494263141974623
0.2178621,0.021499426538838438,0.0027924164714500143,0.01952319995009859,0.006267946637251656,0.00850369385180149,0.00861610699050011,0.020686925519197267,0.018485319348336728
0.2183276,0.021539978360158307,0.0027628915547665174,0.019575890198032377,0.0062411388802000815,0.008539050057913897,0.008661989152085077,0.020762869958214497,0.01847622693779041
0.2187931,0.0215801011514215,0.0027337188326173635,0.01962744300185697,0.006214479886014956,0.008573985926486645,0.008709157884275478,0.020838479391457745,0.01846698422413652
0.2192586,0.021619797736324824,0.00270489784874641,0.019677851499882795,0.006187971044029221,0.008608499497075662,0.008757605956082853,0.020913744424902018,0.018457589581357722
0.2197241,0.021659071013081933,0.0026764281148650786,0.019727109190068457,0.006161613752243177,0.00864258894250276,0.008807325842229397,0.020988655784468322,0.018448041443393178
0.2201897,0.021697923953533888,0.0026483091104046825,0.019775209931597502,0.006135409418577886,0.008676252566662455,0.008858309722628086,0.021063204318955676,0.018438338303905257
0.2206552,0.021736359602250236,0.0026205402822808313,0.01982214794632877,0.006109359462124639,0.008709488802312636,0.008910549481955982,0.02113738100290651,0.01842847871603864
0.2211207,0.021774381075620027,0.002593121044670097,0.019867917820120286,0.00608346531438936,0.008742296208850637,0.008964036709322165,0.0212111769394037,0.01841846129217234
0.2215862,0.021811991560932095,0.002566050778799095,0.01991251450402656,0.006057728420530822,0.008774673470076379,0.009018762698031754,0.021284583362797864,0.01840828470366509
0.2220517,0.021849194315443767,0.0025393288327461407,0.01995593331536921,0.0060321502405915805,0.00880661939194421,0.009074718445447433,0.021357591641363687,0.0183979476805946
0.2225172,0.021885992665436966,0.0025129545212556185,0.01999816993868082,0.006006732250720519,0.008838132900305046,0.00913189465294989,0.021430193279884095,0.018387449011491176
0.2229828,0.0219223900052606,0.0024869271255652066,0.020039220426521946,0.005981475944385928,0.008869213038640508,0.00919028172599857,0.021502379922161263,0.018376787543066275
0.2234483,0.02195838979635794,0.0024612458932460903,0.0200790812001712,0.005956382833578029,0.008899858965790692,0.009249869774294163,0.02157414335345325,0.018365962179936666
0.2239138,0.02199399556627746,0.0024359100380563015,0.020117749050188347,0.005931454449999836,0.008930069953677264,0.00931064861204424,0.02164547550283522,0.018354971884344935
0.2243793,0.022029210907665873,0.0024109187398073002,0.020155221136850355,0.005906692346245272,0.008959845385023606,0.009372607758333425,0.02171636844548386,0.01834381567587718
0.2248448,0.022064039477241795,0.0023862711442439086,0.020191494990460374,0.005882098096963506,0.008989184751073718,0.009435736437599491,0.02178681440488376,0.018332492631178754
0.2253103,0.022098484994749024,0.002361966362937681,0.02022656851152956,0.005857673300008513,0.009018087649311573,0.009500023580216649,0.021856805754954432,0.018321001883668843
0.2257759,0.02213255124188829,0.002338003473193788,0.020260439970831774,0.005833419577572859,0.009046553781182647,0.009565457823187299,0.021926335022096583,0.018309342623254805
0.2262414,0.022166242061226818,0.0023143815179714755,0.020293108009331127,0.005809338577304794,0.00907458294981936,0.009632027510943367,0.021995394887156135,0.01829751409604708
0.2267069,0.0221995613550852,0.0022910995058181473,0.02032457163798237,0.005785431973407764,0.009102175057772126,0.009699720696258346,0.0220639781873045,0.01828551560407559
0.2271724,0.022232513084401388,0.0022681564108171103,0.020354830237404156,0.005761701467721498,0.009129330104747728,0.00976852514127105,0.0221320779178337,0.01827334650500841
0.2276379,0.022265101267571686,0.002245551172549032,0.02038388355742518,0.005738148790783883,0.009156048185356635,0.009838428318622042,0.02219968723386521,0.01826100621187351
0.2281034,0.02229732997926882,0.0022232826960671527,0.020411731716503345,0.005714775702872851,0.009182329486870925,0.009909417412703639,0.022266799451971638,0.018248494192784133
0.228569,0.0223292033492371,0.0022013498518862916,0.020438375201017926,0.005691583995027593,0.009208174286994298,0.009981479321024361,0.022333408051710656,0.0182358099706684
0.2290345,0.022360725561064786,0.002179751475985711,0.020463814864434878,0.005668575490048417,0.009233582951645709,0.01005460065568864,0.0223995066770707,0.018222953123003604
0.2295,0.02239190085093362,0.0021584863698258946,0.020488051926345344,0.005645752043474612,0.009258555932758025,0.010128767744992507,0.02246508913782803,0.01820992328155552
0.2299655,0.022422733506345566,0.00213755330037929,0.020511087971377517,0.005623115544539697,0.009283093766093015,0.010203966635135994,0.02253014941081471,0.01819672013212305
0.230431,0.022453227864826775,0.002116951000175082,0.020532924947981947,0.005600667917103421,0.009307197069073963,0.010280183092052853,0.022594681641097274,0.018183343414288452
0.2308966,0.022483388312608852,0.002096678167358033,0.020553565167090396,0.005578411120559961,0.009330866538637086,0.01035740260335819,0.022658680143065987,0.018169792921173405
0.2313621,0.02251321928328742,0.0020767334657614293,0.02057301130064848,0.005556347150721719,0.009354102949102846,0.01043561038041452,0.02272213940143499,0.018156068499201115
0.2318276,0.02254272525645794,0.002057115524994154,0.020591266380022483,0.005534478040678178,0.00937690715006821,0.010514791360516699,0.02278505407215403,0.018142170047864465
0.2322931,0.022571910756328722,0.0020378229405418986,0.020608333794280873,0.0055128058616292575,0.009399280064320833,0.01059493020919607,0.022847418983232795,0.01812809751950024
0.2327586,0.022600780350310795,0.002018854273882498,0.020624217288351374,0.005491332723692614,0.00942122268577608,0.010676011322644157,0.0229092291354793,0.01811385091906931
0.2332241,0.022629338647584388,0.002000208052615377,0.020638920961054526,0.005470060776684301,0.009442736077437721,0.010758018830256075,0.02297047970315353,0.01809943030394245
0.2336897,0.02265759029764152,0.0019818827706050745,0.020652449263014842,0.0054489922108722205,0.009463821369383087,0.01084093659729386,0.023031166034537948,0.01808483578369147
0.2341552,0.022685539988804373,0.001963876888138793,0.02066480699445074,0.005428129257701812,0.009484479756773363,0.010924748227669718,0.023091283652426207,0.01807006751988513
0.2346207,0.022713192446718964,0.0019461888320979252,0.020675999302844486,0.005407474190493427,0.009504712497889672,0.01100943706684922,0.023150828254531422,0.018055125725889257
0.2350862,0.022740552432824034,0.0019288169961434877,0.020686031680493492,0.005387029325110907,0.009524520912195501,0.011094986204874344,0.02320979571381526,0.01804001066667027
0.2355517,0.02276762474279494,0.0019117597409153662,0.02069490996194441,0.0053667970206008305,0.009543906378426002,0.011181378479506236,0.023268182078739298,0.018024722658601243
0.2360172,0.022794414204962764,0.0018950153942452904,0.02070264032131143,0.005346779679801971,0.009562870332704703,0.011268596479487384,0.023325983573439985,0.01800926206926953
0.2364828,0.022820925678708828,0.0018785822513834151,0.020709229269480253,0.005326979749924485,0.009581414266688208,0.011356622547922923,0.023383196597828528,0.017993629317284834
0.2369483,0.02284716405283513,0.0018624585752383893,0.02071468365119926,0.0053073997230983815,0.009599539725739493,0.011445438785780618,0.023439817727617215,0.017977824872086674
0.2374138,0.022873134243911318,0.0018466425966307703,0.020719010642059325,0.005288042136890834,0.009617248307130514,0.011535027055509064,0.02349584371427365,0.017961849253750148
0.2378793,0.0228988411945989,0.001831132514559638,0.02072221774536396,0.0052689095747919575,0.009634541658274839,0.011625368984773466,0.023551271484904532,0.01794570303278911
0.2383448,0.02292428987195337,0.0018159264964822562,0.020724312788891606,0.005250004666668631,0.009651421474991024,0.01171644597030829,0.02360609814207067,0.017929386829956012
0.2388103,0.0229494852657052,0.0018010226786066166,0.020725303921552283,0.005231330089186017,0.009667889499797402,0.011808239181886003,0.023660320963534782,0.017912901316037948
0.2392759,0.02297443238652035,0.0017864191661966949,0.020725199609940795,0.005212888566196381,0.009683947520238899,0.011900729566401043,0.023713937401943646,0.017896247211648467
0.2397414,0.02299913626424124,0.0017721140338902404,0.020724008634788977,0.005194682869094864,0.009699597367246505,0.011993897852067984,0.023766945084446073,0.017879425287015045
0.2402069,0.02302360194610878,0.0017581053260289105,0.020721740087319418,0.005176715817141865,0.009714840913529924,0.012087724552732897,0.023819341812248113,0.017862436361761946
0.2406724,0.02304783449496625,0.0017443910570005402,0.02071840336550319,0.005158990277751721,0.00972968007200399,0.012182189972296729,0.023871125560106902,0.01784528130468826
0.2411379,0.02307183898744552,0.001730969211593336,0.020714008170224233,0.005141509166747422,0.009744116794249393,0.012277274209249478,0.023922294475764622,0.017827961033540746
0.2416034,0.023095620512136043,0.001717837745361764,0.020708564501353017,0.005124275448581107,0.009758153069008305,0.012372957161313923,0.023972846879324116,0.017810476514781137
0.242069,0.023119184167737034,0.0017049945850038948,0.020702082653732228,0.0051072921365201435,0.00977179092071549,0.012469218530197565,0.024022781262567676,0.017792828763347368
0.2425345,0.02314253506119288,0.001692437628749954,0.020694573213077178,0.005090562292798569,0.009785032408065419,0.012566037826451423,0.024072096288220476,0.01777501884240841
0.243,0.02316567830581188,0.0016801647467618239,0.020686047051793676,0.005074089028733707,0.009797879622615885,0.012663394374434233,0.024120790789160042,0.017757047863112333
0.2434655,0.02318861901936819,0.0016681737815432347,0.020676515324716066,0.00505787550480773,0.00981033468742861,0.012761267317380552,0.02416886376757287,0.017738916984327373
0.243931,0.023211362322186818,0.001656462548360381,0.020665989464768105,0.005041924930713962,0.009822399755747281,0.012859635622571185,0.024216314394059378,0.017720627412375945
0.2443966,0.02323391333521146,0.0016450288356726983,0.020654481178549275,0.005026240565367667,0.009834077009713442,0.012958478086604297,0.024263142006688315,0.017702180400761484
0.2448621,0.023256277178054965,0.0016338704055735257,0.020642002441849033,0.005010825716881117,0.009845368659120621,0.01305777334076554,0.024309346110001545,0.017683577249888036
0.2453276,0.023278458967032248,0.0016229849942403856,0.020628565495091386,0.004995683742502737,0.009856276940207105,0.013157499856495418,0.024354926373970506,0.017664819306772436
0.2457931,0.023300463813175607,0.001612370312394607,0.02061418283871199,0.004980818048520162,0.009866804114487638,0.013257635950952014,0.02439988263290543,0.017645907964748856
0.2462586,0.023322296820232298,0.001602024045770011,0.020598867228469864,0.004966232090127085,0.009876952467624317,0.01335815979266718,0.02444421488431856,0.017626844663165407
0.2467241,0.023343963082644137,0.0015919438555903759,0.020582631670695697,0.004951929371253811,0.009886724308336916,0.01345904940729414,0.024487923287742575,0.017607630887072522
0.2471897,0.023365467683508896,0.0015821273790553956,0.0205654894174787,0.004937913444361498,0.009896121967352765,0.013560282683444438,0.024531008163505532,0.017588268166902878
0.2476552,0.023386815692523242,0.0015725722298348315,0.02054745396179387,0.004924187910200048,0.009905147796396343,0.013661837378612105,0.024573469991463873,0.017568758078142583
0.2481207,0.023408012163906977,0.0015632759985705724,0.020528539032571517,0.004910756417529724,0.009913804167218694,0.01376369112518289,0.02461530940969502,0.017549102240993455
0.2485862,0.023429062134308405,0.0015542362533863068,0.02050875858971091,0.004897622662806525,0.009922093470666669,0.013865821436526374,0.024656527213151178,0.017529302320026093
0.2490517,0.02344997062069094,0.0015454505404045261,0.020488126819039915,0.004884790389831471,0.009930018115792002,0.013968205713168737,0.024697124352275904,0.01750936002382359
0.2495172,0.023470742618201146,0.0015369163842705784,0.020466658127222457,0.004872263389363936,0.009937580529000184,0.014070821249043955,0.02473710193158498,0.017489277104615834
0.2499828,0.023491383098018605,0.0015286312886834985,0.020444367136615606,0.004860045498699255,0.009944783153239017,0.014173645237821211,0.02477646120821312,0.017469055357904422
0.2504483,0.023511897005188003,0.001520592736933339,0.020421268680077896,0.0048481406012108605,0.009951628447226723,0.014276654779306137,0.024815203590427787,0.017448696622078336
0.2509138,0.023532289256434018,0.001512798192444738,0.020397377795730413,0.004836552625857238,0.009958118884719406,0.014379826885913556,0.02485333063611164,0.01742820277802044
0.2513793,0.02355256473795943,0.0015052450993264521,0.020372709721672082,0.004825285546653989,0.009964256953817623,0.014483138489209268,0.024890844051214906,0.01740757574870489
0.2518448,0.023572728303226858,0.001497930882926599,0.02034727989065045,0.004814343382111325,0.009970045156311795,0.01458656644651833,0.02492774568817926,0.017386817498785404
0.2523103,0.02359278477072446,0.0014908529503933426,0.020321103924689228,0.004803730194637276,0.009975486007066114,0.014690087547597154,0.024964037544334534,0.01736593003417422
0.2527759,0.02361273892171581,0.001484008691240762,0.02029419762967382,0.004793450089906976,0.009980582033440688,0.014793678521366689,0.02499972176026972,0.017344915401611587
0.2532414,0.02363259549797402,0.0014773954779196588,0.020266576989895934,0.00478350721619836,0.009985335774751641,0.014897316042703756,0.025034800618179635,0.01732377568822547
0.2537069,0.023652359199500254,0.0014710106663930556,0.020238258162558417,0.004773905763694624,0.009989749781768895,0.015000976739287596,0.025069276540188496,0.017302513021081278
0.2541724,0.023672034682226725,0.001464851596716164,0.02020925747224124,0.004764649963753808,0.009993826616251452,0.015104637198498565,0.025103152086651703,0.0172811295667213
0.2546379,0.023691626555704424,0.001458915593620605,0.02017959140532966,0.004755744088145811,0.009997568850520043,0.015208273974365897,0.02513642995443711,0.01725962753069356
0.2551034,0.02371113938077608,0.0014531999671026994,0.020149276604405356,0.0047471924482571405,0.01000097906706698,0.015311863594561386,0.02516911297518716,0.017238009157069866
0.255569,0.023730577667235082,0.0014477020130156445,0.020118329862601567,0.004738999394263659,0.010004059858203077,0.015415382567435834,0.025201204113563233,0.017216276727952798
0.2560345,0.023749945871471487,0.001442419013665416,0.020086768117923214,0.004731169314271577,0.010006813825741478,0.015518807389094972,0.025232706465473674,0.017194432562971443
0.2565,0.023769248394106667,0.0014373482384102336,0.02005460844753334,0.004723706633426904,0.010009243580718172,0.0156221145505116,0.025263623256286918,0.01717247901876566
0.2569655,0.023788489577618584,0.0014324869442634296,0.02002186806200725,0.004716615812993577,0.010011351743148933,0.01572528054467049,0.025293957839031,0.017150418488458632
0.257431,0.023807673703960006,0.0014278323764995693,0.019988564299556182,0.004709901349400485,0.010013140941822417,0.01582828187374251,0.025323713692580758,0.01712825340111741
0.2578966,0.023826804992172473,0.0014233817692636715,0.019954714620222396,0.004703567773257568,0.010014613814129155,0.015931095056284258,0.025352894419833825,0.017105986221201012
0.2583621,0.023845887595998896,0.001419132346183372,0.019920336600047984,0.004697619648341179,0.01001577300592614,0.0160336966344595,0.025381503745876628,0.01708361944799561
0.2588276,0.02386492560149784,0.0014150813209838772,0.019885447925219634,0.0046920615705488555,0.010016621171436767,0.016136063181278398,0.025409545516141614,0.017061155615036353
0.2592931,0.02388392302466258,0.0014112258981055492,0.019850066386191707,0.004686898166823619,0.010017160973185816,0.01623817130785058,0.02543702369455706,0.017038597289515282
0.2597586,0.02390288380904789,0.0014075632733239762,0.01981420987178983,0.004682134094047882,0.010017395081969131,0.01633999767064785,0.025463942361691028,0.017015947071674992
0.2602241,0.023921811823407628,0.0014040906343723775,0.019777896363297395,0.004677774037907013,0.01001732617685766,0.01644151897877231,0.025490305712890998,0.016993207594187647
0.2606897,0.023940710859346074,0.001400805161566187,0.019741143928527105,0.004673822711722591,0.010016956945235392,0.0165427120012256,0.025516118056420792,0.016970381521519005
0.2611552,0.023959584628986154,0.0013977040284296575,0.01970397071587997,0.004670284855255362,0.010016290082870732,0.016643553574174973,0.025541383811596107,0.016947471549277254
0.2616207,0.023978436762657672,0.001394784402324314,0.019666394948394054,0.004667165233477946,0.010015328294020756,0.016744020608211778,0.025566107506919934,0.01692448040354648
0.2620862,0.023997270806608788,0.0013920434450790794,0.019628434917785455,0.004664468635317307,0.010014074291567802,0.016844090095598098,0.025590293778218944,0.016901410840204606
0.2625517,0.024016090220744017,0.0013894783136218884,0.01959010897848397,0.004662199872367049,0.01001253079718773,0.01694373911749722,0.02561394736678183,0.01687826564422557
0.2630172,0.024034898376391993,0.0013870861606126038,0.019551435541665954,0.004660363777569558,0.010010700541549235,0.01704294485118374,0.02563707311750049,0.01685504762896541
0.2634828,0.024053698554106356,0.0013848641350770402,0.019512433069286798,0.004658965203868014,0.010008586264543588,0.01714168457722912,0.025659675977014764,0.016831759635432073
0.2639483,0.024072493941503157,0.001382809383041901,0.019473120068115364,0.004658009022828272,0.010006190715544108,0.017239935686658575,0.025681760991861317,0.01680840453153854
0.2644138,0.024091287631138082,0.0013809190481704392,0.019433515083772623,0.004657500123230626,0.010003516653694713,0.017337675688075135,0.02570333330662705,0.01678498521133902
0.2648793,0.024110082618426915,0.0013791902723986529,0.01939363669477653,0.004657443409631412,0.010000566848226812,0.017434882214746678,0.025724398162107226,0.016761504594247908
0.2653448,0.0241288817996126,0.001377620196571836,0.01935350350659513,0.004657843800894376,0.009997344078803755,0.017531533031651694,0.025744960893468432,0.01673796562424124
0.2658103,0.024147687969782183,0.0013762059610813169,0.0193131341457097,0.004658706228691755,0.009993851135892044,0.01762760604247945,0.025765026928416253,0.016714371269040358
0.2662759,0.024166503820936776,0.0013749447065012185,0.0192725472536897,0.004660035635974943,0.009990090821158398,0.01772307929658026,0.025784601785367567,0.01669072451927749
0.2667414,0.02418533194011764,0.0013738335742250855,0.019231761481281164,0.004661836975414681,0.009986065947891719,0.01781793099586152,0.025803691071627367,0.01666702838764288
0.2672069,0.02420417480759141,0.0013728697071022193,0.01919079548251014,0.004664115207810668,0.00998177934144897,0.01791213950162543,0.025822300481570123,0.01664328590801314
0.2676724,0.024223034795097246,0.0013720502500735694,0.019149667908802574,0.004666875300470536,0.009977233839723923,0.018005683341344395,0.025840435794825846,0.016619500134560383
0.2681379,0.024241914164158846,0.0013713723508070352,0.01910839740312215,0.004670122225558147,0.009972432293637689,0.01809854121537052,0.025858102874471146,0.016595674140841718
0.2686034,0.024260815064463974,0.0013708331603320355,0.01906700259412722,0.004673860958411162,0.009967377567649885,0.018190692003575502,0.025875307665225854,0.01657181101886877
0.269069,0.024279739532314257,0.0013704298336731982,0.019025502090348048,0.004678096475827803,0.0099620725402893,0.018282114771917435,0.02589205619165564,0.016547913878156732
0.2695345,0.024298689489147752,0.0013701595304830185,0.01898391447438541,0.004682833754322733,0.009956520104702873,0.01837278877893095,0.025908354556381373,0.016523985844752676
0.27,0.024317666740136672,0.0013700194156733292,0.018942258297131538,0.004688077768351919,0.009950723169221772,0.01846269348213709,0.02592420893829607,0.01650003006024263
0.2704655,0.024336672972862485,0.00137000666004542,0.018900552072014427,0.004693833488506347,0.00994468465794337,0.01855180854436942,0.02593962559079048,0.016476049680737077
0.270931,0.024355709756070498,0.0013701184409186304,0.018858814269266663,0.004700105879674412,0.009938407511327891,0.018640113840012858,0.025954610839988526,0.016452047875834354
0.2713966,0.02437477853850585,0.001370351942757235,0.018817063310220008,0.004706899899172822,0.009931894686808504,0.01872758946115173,0.025969171082993812,0.016428027827561496
0.2718621,0.024393880647832808,0.0013707043577954323,0.018775317561627092,0.004714220494845824,0.009925149159413628,0.018814215723623667,0.025983312786148356,0.016403992729292192
0.2723276,0.024413017289639224,0.0013711728866602326,0.018733595330011846,0.00472207260313258,0.009918173922400114,0.018899973172975888,0.025997042483304807,0.01637994578464138
0.2727931,0.024432189546527882,0.001371754738992041,0.018691914856050363,0.00473046114710251,0.009910971987895995,0.018984842590320444,0.02601036677411334,0.01635589020633621
0.2732586,0.02445139837729643,0.0013724471340627274,0.018650294308983767,0.0047393910344584326,0.009903546387551365,0.019068804998084995,0.026023292322324375,0.016331829215063022
0.2737241,0.024470644616207574,0.0013732473013909675,0.018608751781064862,0.004748867155507328,0.009895900173195917,0.019151841665655943,0.026035825854108397,0.016307766038290095
0.2741897,0.024489928972350947,0.001374152481354642,0.018567305282040033,0.004758894381098535,0.00988803641750164,0.01923393411491079,0.026047974156393948,0.016283703909065927
0.2746552,0.02450925202909824,0.0013751599258000813,0.01852597273366803,0.004769477560529194,0.00987995821464914,0.019315064125636917,0.02605974407522491,0.01625964606479277
0.2751207,0.024528614243652852,0.0013762668986479372,0.018484771964277093,0.004780621519416754,0.009871668680996044,0.019395213740834024,0.02607114251413799,0.01623559574597539
0.2755862,0.024548015946695305,0.0013774706764954608,0.018443720703361977,0.004792331057538383,0.009863170955745931,0.019474365271897442,0.026082176432561385,0.016211556194944847
0.2760517,0.024567457342125544,0.0013787685492149672,0.018402836576222395,0.004804610946637156,0.009854468201616257,0.01955250130367964,0.026092852844235456,0.01618753065455723
0.2765172,0.024586938506902998,0.0013801578205482504,0.018362137098644444,0.004817465928194982,0.009845563605503678,0.01962960469942716,0.026103178815656342,0.016163522366867234
0.2769828,0.02460645939098509,0.0013816358086967183,0.018321639671626585,0.004830900711172291,0.009836460379145213,0.01970565860559031,0.026113161464543344,0.01613953457177657
0.2774483,0.02462601981736479,0.0013831998469070047,0.01828136157615191,0.0048449199697145895,0.009827161759773592,0.019780646456503164,0.02612280795833089,0.016115570505657338
0.2779138,0.024645619482207653,0.0013848472840518168,0.01824131996800846,0.00485952834082606,0.00981767101076517,0.01985455197893168,0.026132125512685823,0.016091633399950685
0.2783793,0.02466525795508837,0.0013865754852057685,0.018201531872659302,0.00487473042201046,0.00980799142227868,0.019927359196488224,0.026141121390050575,0.016067726479741473
0.2788448,0.024684934679326934,0.0013883818322159452,0.018162014180164075,0.004890530768879596,0.00979812631188304,0.01999905243391103,0.026149802898212723,0.016043852962309656
0.2793103,0.02470464897242416,0.0013902637242669445,0.01812278364015363,0.004906933892729679,0.009788079025172406,0.02006961632120746,0.026158177388901145,0.01602001605565937
0.2797759,0.024724400026596226,0.0013922185784401274,0.01808385685685931,0.004923944258085892,0.009777852936366533,0.020139035797660187,0.026166252256409128,0.015996218957026853
0.2802414,0.024744186909407627,0.001394243830266825,0.01804525028419845,0.004941566280215503,0.009767451448894505,0.02020729611569553,0.026174034936244556,0.015972464851368506
0.2807069,0.02476400856450188,0.001396336934275242,0.01800698022091763,0.00495980432260989,0.0097568779959599,0.020274382844613248,0.02618153290380732,0.01594875690983068
0.2811724,0.02478386381242897,0.0013984953645308088,0.017969062805795525,0.00497866269443585,0.00974613604108545,0.020340281874177205,0.026188753673094083,0.01592509828820311
0.2816379,0.024803751351568412,0.0014007166151697467,0.01793151401290714,0.004998145647956628,0.00973522907863538,0.020404979418066307,0.026195704795430486,0.015901492125358126
0.2821034,0.02482366975914666,0.001402998200925611,0.01789434964695158,0.005018257375923106,0.009724160634313708,0.020468462017185253,0.02620239385823085,0.01587794154167801
0.282569,0.024843617492347314,0.0014053376576485888,0.017857585338645537,0.0050390020089356325,0.009712934265636974,0.02053071654283479,0.026208828483785283,0.015854449637472845
0.2830345,0.02486359288951246,0.0014077325428173317,0.01782123654018476,0.005060383612777015,0.009701553562379969,0.020591730199741566,0.026215016328073965,0.015831019491391332
0.2835,0.024883594171433234,0.0014101804360430955,0.017785318520775657,0.005082406185717157,0.009690022146993273,0.02065149052894801,0.026220965079608236,0.015807654158826942
0.2839655,0.024903619442727568,0.0014126789395659733,0.01774984636223929,0.005105073655789858,0.009678343674991489,0.02070998541056283,0.02622668245829784,0.015784356670321676
0.284431,0.024923666693302895,0.001415225678743006,0.017714834954689777,0.005128389878042246,0.009666521835311276,0.020767203066373023,0.026232176214343497,0.01576113002996969
0.2848966,0.024943733799901426,0.0014178183025279532,0.017680298992289234,0.0051523586317572985,0.00965456035063831,0.02082313206231811,0.02623745412715382,0.015737977213822914
0.2853621,0.024963818527725442,0.0014204544839425055,0.017646252969081313,0.0051769836176498866,0.009642462977702448,0.020877761310827414,0.026242524004285308,0.01571490116830072
0.2858276,0.02498391853213989,0.0014231319205387193,0.017612711174905493,0.005202268455036796,0.009630233507540359,0.02093108007302105,0.02624739368040406,0.01569190480860578
0.2862931,0.025004031360449402,0.0014258483348524495,0.01757968769139412,0.005228216678981179,0.009617875765724851,0.020983077960775254,0.026252071016267583,0.015668991017147995
0.2867586,0.025024154453746717,0.0014286014748475509,0.017547196388054274,0.005254831737411941,0.009605393612560157,0.021033744938652815,0.026256563897725033,0.01564616264197849
0.2872241,0.025044285148829278,0.0014313891143506077,0.01751525091843626,0.005282116988218653,0.009592790943242367,0.02108307132569929,0.02626088023473404,0.015623422495235411
0.2876897,0.025064420680180798,0.001434209053475957,0.017483864716390584,0.005310075696322683,0.009580071687984202,0.021131047797105815,0.02626502796039214,0.015600773351603278
0.2881552,0.025084558182014334,0.0014370591190407556,0.017453050992414988,0.005338711030725362,0.009567239812103338,0.021177665385739158,0.02626901502998065,0.015578217946787437
0.2886207,0.025104694690373578,0.001439937164969842,0.017422822730093084,0.005368026061534149,0.00955429931607346,0.02122291548353961,0.02627284942001883,0.015555758976005214
0.2890862,0.025124827145288738,0.0014428410726901307,0.017393192682626003,0.005398023756967888,0.009541254235537202,0.02126678984278728,0.026276539127325912,0.015533399092495306
0.2895517,0.02514495239298355,0.0014457687515142855,0.01736417336945846,0.0054287069803423136,0.009528108641280201,0.021309280577237112,0.026280092168088694,0.015511140906046975
0.2900172,0.025165067188129747,0.0014487181390134094,0.01733577707300067,0.005460078487037105,0.009514866639165481,0.021350380163122983,0.026283516576932318,0.01548898698155059
0.2904828,0.02518516819614522,0.0014516872013785134,0.017308015835447485,0.005492140921445788,0.009501532370027502,0.021390081440031218,0.026286820405991906,0.015466939837571143
0.2909483,0.025205251995532012,0.001454673933770542,0.01728090145569626,0.005524896813909877,0.009488110009525319,0.021428377611644102,0.026290011723982556,0.01544500194494625
0.2914138,0.025225315080250225,0.0014576763606587654,0.017254445486364862,0.005558348577638651,0.009474603767954419,0.02146526224635413,0.026293098615265104,0.015423175725410179
0.2918793,0.02524535386212361,0.0014606925361473734,0.017228659230911204,0.005592498505616006,0.009461017890016889,0.021500729277750114,0.026296089178904886,0.015401463550245362
0.2923448,0.025265364673272835,0.0014637205442901255,0.01720355374085556,0.005627348767495844,0.009447356654549674,0.021534773004976332,0.02629899152772063,0.015379867738962829
0.2928103,0.02528534376857213,0.0014667584993929346,0.017179139813106856,0.0056629014064874545,0.00943362437421066,0.02156738809296613,0.026301813787320685,0.015358390558012943
0.2932759,0.02530528732812515,0.0014698045463042836,0.01715542798739389,0.005699158336232379,0.009419825395122318,0.021598569572551428,0.026304564095124043,0.015337034219527774
0.2937414,0.02532519145975586,0.0014728568606933823,0.017132428543802525,0.005736121337674167,0.009405964096472572,0.021628312840449408,0.026307250599363983,0.015315800880096413
0.2942069,0.025345052201510416,0.0014759136493159922,0.017110151500419633,0.005773792055922464,0.009392044890072624,0.021656613659127633,0.026309881458072806,0.01529469263957455
0.2946724,0.025364865524166127,0.0014789731502678528,0.017088606611084727,0.005812171997112827,0.009378072219871402,0.02168346815654866,0.026312464838046536,0.01527371153992963
0.2951379,0.025384627333743772,0.00148203363322565,0.017067803363250176,0.005851262525263609,0.009364050561426428,0.021708872825795162,0.02631500891378887,0.015252859564122917
0.2956034,0.02540433347401984,0.0014850933996754764,0.017047750975951004,0.005891064859131298,0.0093499844213309,0.021732824524576422,0.026317521866433838,0.015232138635029742
0.296069,0.02542397972903554,0.0014881507831287298,0.01702845839788527,0.005931580069065651,0.0093358783365968,0.021755320474617045,0.02632001188264704,0.015211550614399074
0.2965345,0.025443561825599585,0.0014912041493254197,0.017009934305606034,0.0059728090738659905,0.009321736873993897,0.021776358260928698,0.026322487153505516,0.015191097301853588
0.297,0.02546307543578196,0.0014942518964248387,0.016992187101825866,0.00601475263764001,0.009307564629344465,0.021795935830965774,0.02632495587335674,0.015170780433931249
0.2974655,0.02548251617939608,0.0014972924551835884,0.016975224913834772,0.006057411366666483,0.009293366226773549,0.021814051493666057,0.026327426238657373,0.015150601683169344
0.297931,0.025501879626466703,0.001500324289120955,0.016959055592032448,0.006100785706263275,0.009279146317914667,0.021830703918377495,0.02632990644679253,0.015130562657231896
0.2983966,0.02552116129968103,0.0015033458946716388,0.01694368670857574,0.006144875937662075,0.009264909581070884,0.021845892133672346,0.026332404694876868,0.015110664898081225
0.2988621,0.02554035667682033,0.0015063558013258562,0.01692912555614223,0.006189682174891317,0.00925066072033138,0.021859615526049966,0.02633492917853889,0.015090909881194419
0.2993276,0.025559461193169347,0.0015093525717568307,0.01691537914681087,0.006235204361668789,0.009236404464643817,0.02187187383852962,0.026337488090690662,0.015071299014825335
0.2997931,0.025578470243900524,0.0015123348019356918,0.016902454211060562,0.006281442268305438,0.009222145566842973,0.021882667169134683,0.026340089620285386,0.01505183363931268
0.3002586,0.02559737918643001,0.0015153011212337957,0.016890357196887515,0.006328395488621935,0.00920788880263626,0.021891995969270005,0.026342741951065465,0.015032515026434589
0.3007241,0.02561618334274245,0.0015182501925124858,0.01687909426904215,0.006376063436879594,0.009193638969546737,0.02189986104199437,0.02634545326030389,0.015013344378810092
0.3011897,0.02563487800168141,0.0015211807122003003,0.016868671308386183,0.006424445344727241,0.00917940088581425,0.021906263540190266,0.02634823171754154,0.014994322829347756
0.3016552,0.025653458421202598,0.0015240914103576443,0.016859093911370325,0.006473540258165736,0.009165179389255387,0.021911204964633564,0.026351085483323003,0.014975451440741756
0.3021207,0.02567191983058727,0.0015269810507289475,0.016850367389633077,0.006523347034531781,0.009150979336082866,0.02191468716196573,0.026354022707933297,0.01495673120501566
0.3025862,0.02569025743261349,0.0015298484307823322,0.0168424967697209,0.006573864339502704,0.009136805599685103,0.0219167123225716,0.026357051530137697,0.014938163043114207
0.3030517,0.02570846640568323,0.0015326923817368444,0.01683548679292991,0.006625090644123894,0.009122663069366608,0.021917282978365725,0.026360180075926935,0.014919747804543389
0.3035172,0.025726541905903445,0.0015355117685773032,0.016829341915269233,0.006677024221860512,0.00910855664904992,0.021916402000490463,0.026363416457269855,0.01490148626705908
0.3039828,0.02574447906911943,0.0015383054900568744,0.016824066307546005,0.006729663145675123,0.009094491255939755,0.02191407259692895,0.026366768770875643,0.014883379136404412
0.3044483,0.02576227301289866,0.0015410724786874728,0.01681966385557202,0.006783005285132805,0.009080471819150098,0.021910298310036058,0.02637024509696773,0.014865427046096003
0.3049138,0.025779918838463374,0.0015438117007181302,0.01681613816049198,0.006837048303535303,0.009066503278295035,0.021905083013990294,0.026373853498071358,0.014847630557259064
0.3053793,0.025797411632569975,0.0015465221561014697,0.016813492539233133,0.006891789655085727,0.009052590582044249,0.021898430912169524,0.02637760201781679,0.014829990158511447
0.3058448,0.025814746469333294,0.001549202878448428,0.01681173002507621,0.006947226582085257,0.009038738686644074,0.021890346534453195,0.026381498679760095,0.014812506265896667
0.3063103,0.02583191841199378,0.001551852934971369,0.016810853368347208,0.007003356112163319,0.009024952554405075,0.021880834734453646,0.026385551486223357,0.014795179222865988
0.3067759,0.02584892251462554,0.0015544714264157217,0.016810865037229682,0.007060175055542646,0.009011237152157044,0.021869900686678993,0.02638976841715613,0.014778009300309699
0.3072414,0.025865753823783214,0.0015570574869802874,0.016811767218696882,0.0071176800023406706,0.008997597449672294,0.021857549883629777,0.02639415742901968,0.01476099669663769
0.3077069,0.025882407380085716,0.001559610284226359,0.016813561819563085,0.007175867319908689,0.008984038418058135,0.021843788132831436,0.02639872645369549,0.014744141537909393
0.3081724,0.025898878219734613,0.0015621290189758081,0.016816250467653223,0.0072347331502102446,0.008970565028119474,0.021828621553804675,0.02640348339741931,0.014727443878013098
0.3086379,0.025915161375965154,0.001564612925198308,0.01681983451308995,0.007294273407240217,0.008957182248692479,0.021812056574975536,0.026408436139741663,0.014710903698894629
0.3091034,0.02593125188042807,0.0015670612698878668,0.016824315029697178,0.007354483774486098,0.008943895044950355,0.021794099930526934,0.02641359253251582,0.014694520910835271
0.309569,0.025947144764500434,0.0015694733529288479,0.016829692816518988,0.007415359702432986,0.008930708376682257,0.02177475865719335,0.026418960398913872,0.014678295352778726
0.3100345,0.025962835060524284,0.0015718485069516625,0.016835968399452807,0.007476896406113811,0.008917627196546509,0.021754040091000276,0.026424547532471483,0.014662226792706838
0.3105,0.025978317802971926,0.0015741860971783116,0.01684314203299565,0.0075390888627063215,0.00890465644829925,0.021731951863949932,0.026430361696161822,0.014646314928063705
0.3109655,0.02599358802953731,0.001576485521257953,0.016851213702102137,0.007601931809178368,0.008891801064999752,0.021708501900654483,0.02643641062149931,0.01463055938622772
0.311431,0.026008640782153255,0.001578746209092665,0.016860183124152817,0.0076654197399830225,0.00887906596719362,0.02168369841491796,0.026442702007673576,0.014614959725030982
0.3118966,0.02602347110793458,0.0015809676226535686,0.016870049751031364,0.007729546904805055,0.008866456061075147,0.021657549906267944,0.026449243520714236,0.014599515433325456
0.3123621,0.026038074060047732,0.0015831492557874562,0.016880812771309053,0.007794307306360332,0.008853976236629958,0.021630065156437887,0.026456042792687113,0.014584225931595144
0.3128276,0.026052444698507614,0.0015852906340140666,0.01689247111253496,0.00785969469824968,0.008841631365759162,0.021601253225800778,0.026463107420922595,0.014569090572613469
0.3132931,0.026066578090902702,0.001587391314314143,0.016905023443630283,0.007925702582868776,0.008829426300386096,0.021571123449754828,0.026470444967276976,0.014554108642144922
0.3137586,0.02608046931304956,0.0015894508849084038,0.01691846817738517,0.007992324209375658,0.008817365870546807,0.021539685435061566,0.026478062957427728,0.014539279359690052
0.3142241,0.02609411344957793,0.001591468965027557,0.01693280347305629,0.008059552571717412,0.00880545488246536,0.021506949056136683,0.026485968880203676,0.0145246018792728
0.3146897,0.026107505594447494,0.0015934452046735014,0.016948027239063312,0.008127380406717566,0.008793698116615086,0.02147292445129378,0.026494170186951233,0.014510075290269242
0.3151552,0.026120640851397387,0.0015953792843718612,0.016964137135782424,0.008195800192225714,0.008782100325766864,0.021437622018941237,0.026502674290938118,0.014495698618276768
