Time,Rectus Femoris right,Rectus Femoris left,Hamstrings right,Hamstrings left,TibilaisÂ Anterior right,TibilaisÂ Anterior left,Gastrocnemius right,Gastrocnemius left
0.0,-0.0001524744779620084,-0.0013509000648168573,0.0038328555426769186,0.0060336191526776505,0.010523434380956594,0.01803507032459335,-0.004670298421965749,0.013019968829047006
0.0004655,-5.8189820771426384e-05,-0.0011403805076905234,0.003939344866117882,0.006191798685670636,0.010609518298896259,0.018203719664257226,-0.0045265110536681485,0.013421966024522244
0.000931,3.5639588070438925e-05,-0.0009307080396162377,0.004047291050039904,0.006351289507486991,0.010695110161776903,0.01837135012998059,-0.004383179969827337,0.013822667458930217
0.0013966,0.00012899958684112238,-0.0007219164824336928,0.004156698028053771,0.006512075923844001,0.01078019583498274,0.018537929030058353,-0.0042403243746240455,0.014222015228322999
0.0018621,0.00022187614418056137,-0.0005140394693460748,0.004267569559383237,0.006674141833017187,0.010864761330740554,0.01870342386270142,-0.004097963311889949,0.014619951821960036
0.0023276,0.0003142553644170903,-0.0003071104332018297,0.004379909227139811,0.006837470727041971,0.010948792814289982,0.01886780232810994,-0.003956115657941561,0.01501642014372325
0.0027931,0.0004061234928527008,-0.00010116259484654678,0.004493720436614483,0.007002045693047793,0.011032276610013375,0.01903103234050009,-0.0038148001144779255,0.015411363533374805
0.0032586,0.0004974669210044528,0.00010377104844633553,0.004609006413586097,0.007167849414725154,0.011115199207519716,0.01919308204007388,-0.0036740352015471054,0.015804725787639275
0.0037241,0.0005882721917989559,0.00030765773445747696,0.0047257702026460395,0.007334864173926037,0.01119754726767712,0.01935391980492163,-0.0035338392505862614,0.016196451181092097
0.0041897,0.0006785260047168601,0.0005104649474078897,0.004844014665538942,0.00750307185239814,0.011279307628588487,0.019513514262846948,-0.0033942303975399574,0.016586484486836625
0.0046552,0.0007682152208843124,0.0007121604292413639,0.0049637424795191286,0.007672453933653301,0.011360467311504953,0.019671834303104204,-0.0032552265760611137,0.01697477099695264
0.0051207,0.000857326868108339,0.0009127121907951996,0.005084956135722527,0.007842991504970464,0.011441013526671864,0.019828849088038634,-0.003116845510798842,0.01736125654269997
0.0055862,0.0009458481458531214,0.0011120885228517246,0.005207657937553823,0.008014665259533498,0.011520933679102204,0.019984528064619183,-0.0029791047107771878,0.017745887514461867
0.0060517,0.001033766430154147,0.0013102580070634548,0.005331849999088605,0.008187455498704104,0.011600215374272397,0.02013884097585452,-0.002842021462868603,0.01812861088141377
0.0065172,0.0011210692784672227,0.0015071895267451544,0.005457534243490286,0.008361342134430017,0.011678846423735527,0.020291757872082754,-0.0027056128253658,0.018509374210904164
0.0069828,0.0012077444344493497,0.0017028522775264445,0.005584712401441588,0.008536304691788633,0.01175681485064706,0.02044324912212572,-0.0025698956216554567,0.018888125687534875
0.0074483,0.0012937798326684848,0.001897215777858984,0.005713386009590378,0.008712322311666153,0.011834108895198262,0.02059328542429889,-0.0024348864339970694,0.019264814131928806
0.0079138,0.0013791636032392338,0.0020902498793725754,0.005843556409009667,0.008889373753572237,0.011910717019952532,0.020741837817268075,-0.0023006015974100596,0.01963938901917331
0.0083793,0.0014638840763815956,0.0022819247770748344,0.005975224743671531,0.00906743739859015,0.011986627915080011,0.020888877690744177,-0.002167057193672042,0.020011800496927766
0.0088448,0.0015479297868999592,0.0024722110193892955,0.006108391958934733,0.00924649125246225,0.012061830503485815,0.02103437679600711,-0.0020342690454309676,0.02038199940318438
0.0093103,0.0016312894785796763,0.002661079518027002,0.006243058800045773,0.00942651294881064,0.012136313945827391,0.021178307256250063,-0.0019022527104336257,0.020749937283671974
0.0097759,0.0017139521084986707,0.002848501557686826,0.0063792258106530695,0.009607479752492754,0.012210067645416748,0.021320641576735216,-0.0017710234758727768,0.021115566408893605
0.0102414,0.0017959068512516567,0.003034448805579969,0.006516893331333958,0.009789368563091549,0.012283081253003517,0.02146135265475247,-0.0016405963528549716,0.021478839790789905
0.0107069,0.0018771431030846432,0.003218893320774376,0.00665606149813415,0.009972155918539971,0.012355344671435073,0.02160041378937304,-0.0015109860709908896,0.02183971119902127
0.0111724,0.001957650485937469,0.003401807563355109,0.006796730241119327,0.010155817998879324,0.012426848060190203,0.021737798690990653,-0.0013822070731098314,0.022198135176862657
0.0116379,0.002037418851392163,0.0035831644033971232,0.006938899282938506,0.010340330630151095,0.012497581839783342,0.02187348149064374,-0.0012542735100998079,0.022554067056705412
0.0121034,0.0021164382845249366,0.0037629371297473032,0.007082568137398819,0.01052566928842189,0.012567536696036915,0.022007436749113013,-0.001127199235874508,0.022907462975160754
0.012569,0.0021946991076596334,0.003941099458613019,0.0072277361080513285,0.01071180910394102,0.012636703584220022,0.02213963946578949,-0.0010009978024683073,0.023258279887759643
0.0130345,0.002272191884020472,0.004117625541954868,0.007374402286787436,0.010898724865430327,0.01270507373305229,0.02227006508730898,-0.0008756824552603919,0.023606475583243577
0.0135,0.0023489074212819454,0.004292489975681554,0.0075225655524454324,0.011086391024505822,0.012772638648572051,0.02239868951594949,-0.0007512661283290187,0.023952008697440862
0.0139655,0.0024248367750137924,0.004465667807645109,0.007672224569426681,0.011274781700230701,0.012839390117868213,0.02252548911778857,-0.000627761439936895,0.024294838726722962
0.014431,0.002499971252019024,0.004637134545434784,0.007823377786320914,0.01146387068379921,0.012905320212675164,0.022650440730618223,-0.0005051806881486206,0.024634926041035204
0.0148966,0.0025743024135630697,0.004806866163968,0.007976023434540097,0.011653631443350784,0.012970421292830114,0.022773521671615327,-0.00038353584658109543,0.024972231896496444
0.0153621,0.002647822078492182,0.004974839112876776,0.008130159526960296,0.011844037128913873,0.013034686009592084,0.022894709744765866,-0.0002628385602877315,0.025306718447562375
0.0158276,0.0027205223262392825,0.0051410303236880854,0.008285783856570974,0.012035060577478702,0.013098107308821789,0.023013983248041738,-0.00014310014177724794,0.025638348758747563
0.0162931,0.002792395499715458,0.005305417216796583,0.008442893995131071,0.012226674318198235,0.013160678434021566,0.023131320980329134,-2.4331567167750297e-05,0.025967086815902003
0.0167586,0.002863434208085316,0.005467977708228237,0.008601487291831286,0.012418850577716453,0.013222392929234572,0.02324670224810757,9.34565275232873e-05,0.02629289753703856
0.0172241,0.00293363132942439,0.005628690216193501,0.008761560871961786,0.012611561285623085,0.013283244641802437,0.023360106871878734,0.00021025384995259705,0.026615746782708307
0.0176897,0.003002980013256762,0.005787533667428774,0.008923111635584631,0.012804778080033812,0.013343227724980625,0.02347151519234427,0.00032605045488778335,0.02693560136592137
0.0181552,0.003071473682971091,0.005944487503325086,0.00908613625621009,0.012998472313295012,0.013402336640410795,0.023580908076331543,0.00044083674750668416,0.027252429061611225
0.0186207,0.0031391060381132,0.0060995316858430985,0.009250631179475943,0.01319261505781197,0.01346056616044946,0.023688266922466512,0.0005546034865591005,0.02756619861564101
0.0190862,0.0032058710565534207,0.006252646703213662,0.009416592621828857,0.013387177111999495,0.013517911370352234,0.02379357366659301,0.0006673417873906362,0.027876879753350677
0.0195517,0.0032717629965269644,0.006403813575423286,0.009584016569206816,0.013582129006353826,0.01357436767031295,0.023896810786937995,0.0007790431248284661,0.0281844431876445
0.0200172,0.003336776398545731,0.006553013859483944,0.009752898775721592,0.013777441009644698,0.01362993077735689,0.02399796130902264,0.0008896993359289329,0.028488860626618775
0.0204828,0.0034009060871801953,0.006700229654486674,0.009923234762340102,0.01397308313522639,0.01368459672708741,0.02409700881031938,0.000999302622586956,0.02879010478072986
0.0209483,0.003464147172710304,0.006845443606438415,0.010095019815563487,0.014169025147466565,0.01373836187528508,0.02419393742465537,0.0011078455540073243,0.029088149369502866
0.0214138,0.0035264950526446306,0.0069886389128815275,0.010268248986102659,0.0143652365682916,0.013791222899358687,0.024288731846362724,0.0012153210690380178,0.029382969127781502
0.0218793,0.003587945413107286,0.007129799327295423,0.010442917087548992,0.014561686683847077,0.013843176799647253,0.024381377334176148,0.0013217224783657778,0.0296745398115195
0.0223448,0.0036484942300923145,0.0072689091632796654,0.010619018695038795,0.014758344551272026,0.01389422090057239,0.02447185971487855,0.0014270434665742025,0.029962838203114243
0.0228103,0.0037081377705854594,0.007405953298517965,0.010796548143910187,0.014955179005585495,0.01394435285164025,0.024560165386695414,0.0015312780940646927,0.03024784211628298
0.0232759,0.0037668725935533515,0.007540917178522418,0.010975499528350984,0.015152158666683959,0.013993570628292306,0.02464628132243845,0.0016344207988406158,0.03052953040048206
0.0237414,0.0038246955508004087,0.007673786820157361,0.011155866700036193,0.015349251946448095,0.014041872532604104,0.02473019507239927,0.0017364663981550657,0.03080788294486946
0.0242069,0.00388160378769397,0.007804548814942168,0.01133764326675373,0.015546427055957397,0.01408925719383104,0.024811894766993702,0.001837410090022614,0.031082880681810945
0.0246724,0.003937594743758501,0.007933190332132274,0.011520822591017043,0.01574365201281117,0.014135723568800121,0.024891369119157555,0.0019372474545954472,0.03135450558993013
0.0251379,0.003992666153139948,0.00805969912157767,0.011705397788663332,0.01594089464855448,0.01418127094214651,0.02496860742649473,0.002035974455404278,0.03162274069670246
0.0256034,0.004046816044941562,0.008184063516358092,0.0118913617274363,0.016138122616207663,0.014225898926393683,0.025043599573178893,0.0021335874404644216,0.03188757008059325
0.026069,0.004100042743432701,0.008306272435194108,0.012078707025552375,0.016335303397897898,0.014269607461875836,0.025116336031609874,0.002230083143247429,0.032148978872739556
0.0265345,0.004152344868132338,0.008426315384633266,0.012267426050249714,0.016532404312591478,0.014312396816501212,0.02518680786382589,0.002325458683518683,0.03240695325817584
0.027,0.004203721333769115,0.008544182461010527,0.012457510916319364,0.016729392523925034,0.014354267585355,0.025255006722672866,0.002419711568041372,0.032661480476602944
0.0274655,0.00425417135011991,0.008659864352182195,0.012648953484618412,0.01692623504813419,0.014395220690140565,0.025320924852731925,0.002512839691147315,0.03291254882270005
0.027931,0.004303694421728973,0.008773352339032568,0.012841745360565121,0.017122898762077673,0.014435257378457873,0.025384555091006202,0.0026048413351751295,0.033160147645978744
0.0283966,0.0043522903475096885,0.008884638296752604,0.013035877892616366,0.017319350411355152,0.014474379222918055,0.025445890867368374,0.002695715170776293,0.03340426735017859
0.0288621,0.004399959220231042,0.00899371469588986,0.013231342170727776,0.017515556618516698,0.014512588120093164,0.025504926204770347,0.0027854602570896872,0.03364489939220313
0.0293276,0.0044467014258908555,0.009100574603169051,0.01342812902479711,0.017711483891361967,0.01454988628930011,0.025561655719216706,0.0028740760417852555,0.033882036280595634
0.0297931,0.004492517642977839,0.009205211682082616,0.013626229023091282,0.01790709863132706,0.014586276271217754,0.025616074619503812,0.002961562360977427,0.03411567157355379
0.0302586,0.004537408841624508,0.009307620193250864,0.0138256324706575,0.01810236714195704,0.014621760926336186,0.025668178706726708,0.003047919439009014,0.03434579987648256
0.0307241,0.004581376282653039,0.009407794994551369,0.014026329407718858,0.018297255637462137,0.014656343433237363,0.025717964373556192,0.003133147888106322,0.034572416839084595
0.0311897,0.004624421516516134,0.0095057315410174,0.014228309608054853,0.018491730251355643,0.014690027286706592,0.0257654286032888,0.003217248707906264,0.03479551915198743
0.0316552,0.004666546382134968,0.009601425884505299,0.014431562577367486,0.018685757045171496,0.014722816295674797,0.02581056896867267,0.0033002232848563197,0.03501510454290684
0.0321207,0.004707753005636324,0.009694874673130932,0.014636077551633979,0.018879302017259514,0.014754714580992062,0.02585338363051258,0.0033820733914882283,0.035231171772345575
0.0325862,0.004748043798990989,0.009786075150475566,0.014841843495447551,0.019072331111656165,0.014785726573033519,0.025893871336057795,0.0034628011855663446,0.035443720628826815
0.0330517,0.004787421458555522,0.00987502515456208,0.015048849100348077,0.01926481022702862,0.01481585700913914,0.02593203141717659,0.0035424092091116376,0.03565275192366252
0.0335172,0.004825888963519472,0.009961723116602863,0.015257082783144825,0.01945670522568975,0.014845110930889464,0.025967863788321593,0.0036209003873023324,0.03585826748525729
0.0339828,0.004863449574260135,0.010046168059521396,0.015466532684233973,0.019647981942681605,0.014873493681219558,0.02600136894429018,0.0036982780272522262,0.03606027015294922
0.0344483,0.004900106830606912,0.010128359596249921,0.0156771866659138,0.019838606194924766,0.014901010901373779,0.026032547957784213,0.0037745458166677597,0.03625876377038979
0.0349138,0.004935864550017338,0.0102082979278061,0.015889032310700928,0.020028543790430772,0.014927668527703997,0.02606140247677338,0.0038497078223849964,0.0364537531784653
0.0353793,0.004970726825666819,0.010285983841151676,0.016102056919651272,0.020217760537574746,0.014953472788314071,0.026087934721666203,0.0039237684887877995,0.03664524420776229
0.0358448,0.005004698024454091,0.010361418706836384,0.016316247510689563,0.02040622225442524,0.014978430199553529,0.02611214748229271,0.003996732636108644,0.03683324367057982
0.0363103,0.005037782784924408,0.010434604476430288,0.016531590816951543,0.020593894778128223,0.015002547562363477,0.02613404411470258,0.004068605458613683,0.03701775935249147
0.0367759,0.005069986015112402,0.010505543679747858,0.016748073285143012,0.020780743974342084,0.015025831958477846,0.02615362853778234,0.004139392522673811,0.03719880000346046
0.0372414,0.005101312890306565,0.010574239421867028,0.016965681073919877,0.02096673574672044,0.01504829074648323,0.02617090522969534,0.004209099764723619,0.03737637532851168
0.0377069,0.005131768850737244,0.01064069537994665,0.017184400052293408,0.02115183604643956,0.015069931557740633,0.026185879224147963,0.004277733489110167,0.037550495977964726
0.0381724,0.00516135959919002,0.01070491579984572,0.017404215798064768,0.021336010881767075,0.015090762292172563,0.026198556106485887,0.004345300365833577,0.03772117353723237
0.0386379,0.005190091098546301,0.010766905492547833,0.017625113596292916,0.021519226327668513,0.01511079111391906,0.026208942009624057,0.004411807428181413,0.03788842051618934
0.0391034,0.005217969569252889,0.010826669830394285,0.017847078437799965,0.021701448535448205,0.015130026446866306,0.02621704360981432,0.004477262070258834,0.038052250338116454
0.039569,0.005245001486722298,0.010884214743129417,0.018070095017718175,0.021882643742420802,0.01514847697005154,0.02622286812225478,0.004541672044416474,0.038212677328225635
0.0400345,0.005271193578665514,0.010939546713761765,0.018294147734082705,0.02206277828160959,0.015166151612948141,0.026226423296545197,0.004605045458578027,0.038369716701771396
0.0405,0.00529655282235886,0.010992672774244736,0.018519220686474464,0.022241818591467684,0.015183059550634771,0.026227717411992882,0.00466739077346954,0.038523384551755205
0.0409655,0.005321086441846593,0.011043600500980575,0.018745297674717408,0.022419731225617898,0.015199210198852597,0.02622675927277394,0.004728716799752441,0.038673697836229835
0.041431,0.00534480190508082,0.011092338010151394,0.01897236219763478,0.022596482862607105,0.015214613208954657,0.026223558202954883,0.004789032695062409,0.03882067436521157
0.0418966,0.005367706921000269,0.011138893952881057,0.019200397451868766,0.022772040315670646,0.015229278462751423,0.026218124041379718,0.004848347960956168,0.03896433278720857
0.0423621,0.005389809436549435,0.011183277510231734,0.01942938633076824,0.022946370542502315,0.015243216067256642,0.026210467136427773,0.004906672439768416,0.03910469257537422
0.0428276,0.005411117633639568,0.011225498388038973,0.01965931142334916,0.023119440655025386,0.01525643634933758,0.026200598340647484,0.004964016311381061,0.0392417740132944
0.0432931,0.005431639926052963,0.011265566811589344,0.019890155013332175,0.023291217929160092,0.015268949850273744,0.026188529005271244,0.005020390089906992,0.03937559818041811
0.0437586,0.005451384956291984,0.011303493520144802,0.020121899078261975,0.023461669814582937,0.015280767320228279,0.026174270974616342,0.005075804620290613,0.039506186937140746
0.0442241,0.005470361592374236,0.011339289761318054,0.02035452528871275,0.02363076394447338,0.015291899712636253,0.02615783658037694,0.00513027107482735,0.03963356290954991
0.0446897,0.005488578924575271,0.011372967285303343,0.020588015007584063,0.023798468145243338,0.015302358178514055,0.026139238635811874,0.00518380094960434,0.03975774947384356
0.0451552,0.005506046262120213,0.011404538338967086,0.020822349289491258,0.023964750446244975,0.01531215406069416,0.026118490429832907,0.005236406060864456,0.039878770740430766
0.0456207,0.005522773129825614,0.011434015659802923,0.021057508880254396,0.024129579089452288,0.015321298887989611,0.026095605720997988,0.0052880985412957935,0.03999665153772595
0.0460862,0.0055387692646928985,0.011461412469755706,0.02129347421648964,0.02429292253911188,0.01532980436929249,0.026070598731413947,0.005338890836248746,0.04011141739564764
0.0465517,0.005554044612454695,0.011486742468919,0.02153022542530689,0.024454749491358323,0.015337682387610749,0.02604348414055288,0.0053887956998827195,0.04022309452883338
0.0470172,0.005568609324075316,0.011510019829110638,0.021767742324117566,0.02461502888378937,0.015344944994047753,0.026014277078986486,0.0054378261912445625,0.04033170981958227
0.0474828,0.00558247375220672,0.011531259187330854,0.022006004420556096,0.024773729904996433,0.015351604401728908,0.025982993122042313,0.005485995670280749,0.040437290800537026
0.0479483,0.005595648447601235,0.0115504756391075,0.0222449909125189,0.024930822004045814,0.015357672979679772,0.025949648283385793,0.00553331779378532,0.04053986563711711
0.0484138,0.005608144155482341,0.011567684731732766,0.022484680688324363,0.025086274899906436,0.01536316324665999,0.02591425900853178,0.005579806511285591,0.04063946310971465
0.0488793,0.0056199718118748005,0.01158290245739581,0.022725052326997255,0.025240058590819844,0.015368087864957495,0.025876842168289137,0.005625476060867579,0.04073611259566495
0.0493448,0.0056311425398954005,0.011596145246215675,0.02296608409868092,0.02539214336360833,0.015372459634147276,0.025837415052141918,0.005670340964943121,0.04082984405100345
0.0498103,0.005641667646005555,0.011607429959178772,0.023207753965180388,0.02554249980291713,0.01537629148481913,0.025795995361570793,0.005714416025960551,0.04092068799202083
0.0502759,0.005651558616226947,0.011616773880985169,0.023450039580639438,0.025691098800386548,0.015379596472278698,0.0257526012033183,0.005757716322060812,0.04100867547662866
0.0507414,0.0056608271123213755,0.011624194712807867,0.023692918292354443,0.025837911563749684,0.015382387770226116,0.025707251082601704,0.005800257202680825,0.04109383808554746
0.0512069,0.005669484967935899,0.011629710564969106,0.02393636714172765,0.025982909625851508,0.015384678664416533,0.025659963896277078,0.00584205428410592,0.04117620790332947
0.0516724,0.0056775441847143615,0.011633339949537675,0.024180362865362404,0.02612606485358486,0.015386482546306743,0.025610758925958186,0.005883123444973039,0.04125581749922804
0.0521379,0.005685016928376307,0.01163510177285112,0.02442488189630251,0.02626734945673875,0.015387812906692137,0.025559655831093507,0.0059234808217264335,0.04133269990792544
0.0526034,0.005691915524764277,0.011635015327966628,0.024669900365417843,0.026406735996754208,0.015388683329338137,0.02550667464200469,0.005963142804027527,0.04140688861013063
0.053069,0.005698252455860437,0.011633100287044291,0.024915394102938027,0.0265441973953829,0.015389107484610174,0.025451835752889524,0.00600212603012056,0.04147841751305836
0.0535345,0.005704040355773436,0.011629376693666364,0.025161338640135908,0.02667970694324359,0.015389099123106263,0.025395159914792603,0.006040447382155598,0.041547320930800394
0.054,0.005709292006696368,0.011623864955096055,0.02540770921116239,0.026813238308271575,0.015388672069296167,0.02533666822854669,0.00607812398147047,0.041613633564599635
0.0544655,0.005714020334836651,0.01161658583447932,0.025654480755033942,0.026944765544056195,0.015387840215171047,0.02527638213768782,0.0061151731838331004,0.04167739048303756
0.054931,0.005718238406318632,0.011607560442993096,0.02590162791777399,0.02707426309806165,0.015386617513907427,0.025214323421347,0.006151612574645706,0.04173862710214488
0.0553966,0.0057219594230596615,0.011596810231943417,0.026149125054709354,0.02720170581972647,0.015385017973549282,0.025150514187121453,0.006187459964112269,0.041797379165445174
0.0558621,0.005725196718620323,0.011584356984816684,0.026396946232922627,0.027327068968437153,0.015383055650711883,0.02508497686392796,0.006222733382370631,0.041853682723941
0.0563276,0.0057279637540295,0.011570222809287503,0.026645065233861346,0.02745032822137166,0.015380744644311004,0.025017734194841153,0.006257451074590526,0.04190757411605161
0.0567931,0.005730274113584878,0.011554430129186347,0.02689345555610465,0.02757145968120855,0.015378099089320994,0.024948809229919693,0.006291631496038858,0.04195908994751102
0.0572586,0.005732141500629444,0.011537001676430288,0.02714209041828792,0.02769043988369773,0.015375133150565096,0.02487822531902344,0.006325293307113388,0.04200826707123514
0.0577241,0.005733579733304522,0.011517960482920057,0.027390942762185812,0.02780724580508861,0.015371861016541258,0.024806006104625303,0.006358455368346061,0.04205514256716632
0.0581897,0.005734602740279863,0.011497329872406592,0.027639985255953795,0.02792185486941151,0.015368296893286608,0.0247321755146215,0.006391136735377109,0.042099753722103776
0.0586552,0.0057352245564612735,0.011475133452330269,0.027889190297528246,0.0280342449556079,0.015364454998283643,0.024656757755144258,0.006423356653901029,0.04214213800952846
0.0591207,0.005735459318676308,0.01145139510563592,0.028138530018184886,0.028144394404505006,0.015360349554411113,0.024579777303380866,0.006455134554585543,0.04218233306943085
0.0595862,0.005735321261338589,0.011426138982566742,0.0283879762862552,0.02825228202563018,0.015355994783942428,0.024501258900402913,0.00648649004796463,0.04222037668815065
0.0600517,0.005734824712091353,0.011399389492440088,0.028637500711000182,0.028357887103860602,0.015351404902594288,0.02442122754400937,0.00651744291930662,0.04225630677823732
0.0605172,0.005733984087430887,0.011371171295408126,0.028887074646640705,0.028461189405903864,0.015346594113628133,0.024339708481587004,0.006548013123458376,0.04229016135834078
0.0609828,0.005732813888310597,0.011341509294206195,0.029136669196543463,0.028562169186605226,0.015341576602006865,0.024256727202991418,0.006578220779666543,0.042321978533141694
0.0614483,0.005731328695726496,0.011310428625891732,0.029386255217561472,0.028660807195077482,0.015336366528609167,0.02417230943345186,0.006608086166376799,0.04235179647333112
0.0619138,0.005729543166284989,0.011277954653576509,0.029635803324527723,0.028757084680649237,0.015330978024503596,0.024086481126502718,0.006637629716012066,0.042379653395649294
0.0623793,0.005727472027753849,0.011244112958154868,0.029885283894900482,0.02885098339862752,0.015325425185284578,0.02399926845694451,0.006666872009730557,0.04240558754299381
0.0628448,0.005725130074597333,0.011208929330030646,0.03013466707355853,0.028942485615870598,0.015319722065472278,0.023910697813837055,0.006695833772164557,0.04242963716460765
0.0633103,0.005722532163496386,0.011172429760845417,0.030383922777744307,0.02903157411616712,0.015313882672978167,0.02382079579352742,0.006724535866140787,0.04245184049635772
0.0637759,0.005719693208854865,0.011134640435210634,0.03063302070215271,0.029118232205417906,0.015307920963638054,0.023729589192715093,0.0067529992873832006,0.042472235741114965
0.0642414,0.005716628178292723,0.011095587722446268,0.030881930324163115,0.029202443716617385,0.015301850835814208,0.02363710500155667,0.006781245159199018,0.04249086104924696
0.0647069,0.005713352088127036,0.01105529816832841,0.03113062090921201,0.029284193014632115,0.015295686125068148,0.02354337039681224,0.006809294727148775,0.042507754499233955
0.0651724,0.0057098799988417395,0.011013798486848412,0.03137906151630334,0.029363465000774493,0.015289440598905605,0.023448412735035506,0.006837169353701126,0.042522954078418884
0.0656379,0.005706227010546921,0.01097111555198599,0.03162722100365357,0.02944024511717017,0.015283127951595152,0.023352259545809644,0.006864890512873094,0.0425364976639017
0.0661034,0.005702408258428486,0.010927276389498726,0.031875068034468206,0.029514519350917798,0.015276761799062042,0.02325493852503073,0.006892479784856441,0.04254842300358816
0.066569,0.0056984389081890146,0.010882308168730388,0.032122571082846434,0.02958627423804023,0.015270355673858767,0.023156477528240554,0.006919958850630764,0.042558767697402744
0.0670345,0.005694334151480649,0.010836238194440356,0.0323696984398102,0.02965549686722645,0.01526392302021396,0.023056904564010577,0.006947349486563923,0.042567569178675095
0.0675,0.005690109201330868,0.010789093898656484,0.0326164182194541,0.029722174883364243,0.015257477189161303,0.022956247787378734,0.006974673559000364,0.042574864695709265
0.0679655,0.005685779287562041,0.010740902832553573,0.03286269836521244,0.02978629649086399,0.015251031433750083,0.022854535493340523,0.0070019530188378636,0.042580691293544845
0.068431,0.005681359652205703,0.010691692658359614,0.03310850665623953,0.029847850456774606,0.015244598904339124,0.02275179611039583,0.007029209896093197,0.04258508579591945
0.0688966,0.005676865544912519,0.010641491141291834,0.03335381071389946,0.02990682611369306,0.015238192643975771,0.022648058194152814,0.007056466294457201,0.04258808478744205
0.0693621,0.005672312218358942,0.010590326141524607,0.03359857800836104,0.029963213362469123,0.015231825583861516,0.02254335042099007,0.007083744385839715,0.0425897245959872
0.0698276,0.0056677149236515935,0.010538225606191217,0.03384277586529393,0.030017002674707388,0.015225510538905812,0.022437701581778303,0.007111066404904882,0.04259004127532038
0.0702931,0.005663088905730486,0.010485217561421468,0.03408637147266156,0.030068185095068405,0.015219260203369469,0.02233114057566277,0.007138454643597255,0.04258907058796468
0.0707586,0.0056584493987722325,0.010431330104417118,0.0343293318876068,0.03011675224337105,0.015213087146598922,0.02222369640390754,0.007165931445659154,0.04258684798831896
0.0712241,0.005653811621594463,0.010376591395567118,0.03457162404342667,0.030162696316498084,0.015207003808852553,0.022115398163802716,0.007193519201139707,0.04258340860603732
0.0716897,0.005649190773062782,0.010321029650604592,0.03481321475663239,0.030206010090106854,0.01520102249722014,0.022006275042635512,0.0072212403408959455,0.04257878722967931
0.0721552,0.005644602027501616,0.010264673132807474,0.035054070734091565,0.030246686920147002,0.015195155381636391,0.02189635631172613,0.007249117331086289,0.04257301829063997
0.0726207,0.005640060530110353,0.010207550145244701,0.03529415858024936,0.030284720744186883,0.015189414490989343,0.021785671320529117,0.007277172667656782,0.04256613584736849
0.0730862,0.0056355813923861815,0.010149689023069815,0.03553344480442567,0.0303201060825503,0.01518381170932432,0.021674249490800962,0.007305428870820453,0.04255817356988389
0.0735517,0.005631179687555027,0.01009111812586383,0.03577189582818515,0.030352838039264935,0.015178358772144055,0.021562120310834522,0.007333908479530243,0.04254916472459553
0.0740172,0.00562687044601203,0.010031865830029154,0.03600947799277695,0.03038291230282372,0.015173067262805363,0.02144931332976071,0.007362634045946072,0.04253914215943642
0.0744828,0.005622668650773039,0.009971960521236348,0.03624615756664086,0.0304103251467602,0.015167948609012698,0.02133585815191785,0.007391628129896727,0.0425281382893163
0.0749483,0.005618589232938612,0.009911430586925358,0.036481900752976505,0.030435073430039178,0.015163014079408762,0.021221784431288866,0.007420913293337284,0.042516185081901775
0.0754138,0.005614647067172115,0.00985030440886289,0.03671667369737194,0.03045715459726374,0.01515827478026224,0.021107121866006488,0.00745051209480287,0.04250331404373006
0.0758793,0.005610856967193505,0.009788610355757477,0.03695044249548818,0.030476566678700235,0.015153741652252573,0.020991900192926363,0.007480447083859617,0.04248955620666293
0.0763448,0.005607233681290446,0.009726376775933783,0.03718317320079589,0.03049330829012295,0.015149425467351593,0.020876149182267895,0.0075107407955536856,0.042474942114687206
0.0768103,0.005603791887848358,0.009663631990067626,0.03741483183236081,0.030507378632480434,0.015145336825801648,0.020759898632322513,0.007541415744859318,0.042459501811067994
0.0772759,0.005600546190901086,0.009600404283983167,0.03764538438267425,0.030518777491385773,0.015141486153189831,0.020643178364228815,0.0075724944211269145,0.042443264825860444
0.0777414,0.005597511115703774,0.009536721901513738,0.03787479682552542,0.030527505236433293,0.015137883697617694,0.020526018216813907,0.007603999282532202,0.04242626016378608
0.0782069,0.0055947011043295716,0.009472613037427732,0.038103035123912735,0.030533562820344445,0.015134539526965812,0.020408448041500188,0.007635952750527587,0.04240851629247882
0.0786724,0.005592130511291748,0.009408105830420987,0.03833006523799158,0.030536951777945714,0.015131463526252371,0.020290497697276713,0.007668377204296824,0.04239006113110596
0.0791379,0.00558981359919275,0.009343228356177081,0.038555853133056824,0.030537674224981572,0.015128665395084869,0.020172197045734065,0.007701294975214149,0.04237092203936887
0.0796034,0.00558776453440174,0.00927800862049695,0.038780364787558565,0.030535732856765238,0.015126154645203924,0.020053575946161722,0.007734728341309046,0.04235112580688796
0.080069,0.005585997382762104,0.009212474552499187,0.03900356620114995,0.030531130946670204,0.015123940598118045,0.01993466425070663,0.007768699521737827,0.042330698642976054
0.0805345,0.005584526105330374,0.00914665399789241,0.039225423402765865,0.030523872344465134,0.015122032382828138,0.019815491799591814,0.00780323067126328,0.042309666166804254
0.081,0.005583364554147994,0.009080574712320964,0.039445902458731294,0.030513961474494592,0.015120438933640434,0.01969608841639362,0.007838343874743654,0.04228805339796411
0.0814655,0.005582526468047317,0.009014264354785228,0.03966496948089798,0.030501403333707787,0.015119168988066398,0.019576483903376213,0.00787406114163229,0.04226588474742964
0.081931,0.005582025468493167,0.008947750481137747,0.039882590634807674,0.030486203489537317,0.01511823108480807,0.01945670803688185,0.007910404400489202,0.042243184008922526
0.0823966,0.005581875055461294,0.008881060537656275,0.040098732147880185,0.030468368077629735,0.01511763356182724,0.019336790562775482,0.00794739549350589,0.042219974350683524
0.0828621,0.005582088603355004,0.00881422185469484,0.04031336031762454,0.030447903799429545,0.015117384554496828,0.019216761191941992,0.007985056171044638,0.04219627830765283
0.0833276,0.005582679356961225,0.008747261640413803,0.040526441519871274,0.030424817919618055,0.01511749199383277,0.01909664959583447,0.008023408086193564,0.0421721177740617
0.0837931,0.0055836604274471825,0.008680206974589861,0.04073794221702434,0.03039911826340852,0.015117963604804767,0.018976485402071686,0.008062472789338712,0.042147513996437465
0.0842586,0.005585044788398857,0.008613084802506802,0.040947828966330826,0.030370813213698875,0.015118806904724303,0.018856298190083044,0.00810227172275448,0.04212248756702379
0.0847241,0.005586845271902315,0.008545921928927837,0.04115606842816679,0.030339911708083162,0.015120029201708416,0.018736117486799063,0.00814282621521374,0.04209705841761746
0.0851897,0.005589074564668968,0.008478745012150176,0.04136262737433725,0.03030642323572293,0.015121637593217769,0.018615972762385514,0.008184157476619016,0.04207124581382294
0.0856552,0.005591745204205785,0.008411580558142527,0.04156747269638816,0.03027035783407951,0.015123638964667644,0.018495893426019244,0.008226286592656151,0.0420450683497255
0.0861207,0.005594869575031391,0.008344454914766082,0.041770571413928176,0.03023172608550829,0.015126039988110563,0.01837590882170364,0.00826923451947179,0.04201854394298347
0.0865862,0.0055984599049389815,0.008277394266079504,0.0419718906829579,0.03019053911371581,0.015128847120989244,0.018256048224121607,0.008313022078376085,0.0419916898303397
0.0870517,0.0056025282613069004,0.008210424626728356,0.04217139780420443,0.030146808580080516,0.015132066604958633,0.018136340834523975,0.00835766995057195,0.0419645225635523
0.0875172,0.005607086547457721,0.008143571836419347,0.04236906023145889,0.030100546679837945,0.015135704464775745,0.018016815776651134,0.008403198671912264,0.041937058005744224
0.0879828,0.005612146499066574,0.008076861554479701,0.04256484557991474,0.030051766138131313,0.01513976650725602,0.01789750209268586,0.008449628627686381,0.041909311328171134
0.0884483,0.005617719680619466,0.008010319254501836,0.042758721634504324,0.030000480205928232,0.015144258320294925,0.017778428739235245,0.008496980047437286,0.04188129700740676
0.0889138,0.005623817481922288,0.007943970219073584,0.04295065635823133,0.029946702655804593,0.015149185271953547,0.017659624583339768,0.008545272999810796,0.041853028822944456
0.0893793,0.0056304511146611546,0.007877839534594009,0.04314061790049661,0.029890447777596696,0.0151545525096069,0.017541118398507523,0.008594527387438088,0.04182451985521368
0.0898448,0.005637631609014775,0.007811952086174953,0.04332857460541467,0.02983173037392285,0.015160364959153667,0.017422938860771602,0.008644762941852903,0.041795782484009676
0.0903103,0.005645369810319486,0.007746332552628304,0.04351449502011843,0.029770565755575774,0.015166627324286095,0.01730511454476859,0.008695999218444729,0.041766828387334524
0.0907759,0.00565367637578758,0.007681005401539053,0.043698347903049065,0.02970696973678715,0.01517334408581866,0.017187673919836173,0.008748255591449337,0.04173766854064779
0.0912414,0.00566256177127956,0.007615994884424124,0.04388010223222797,0.029640958630365574,0.015180519501074281,0.017070645346127778,0.00880155124897813,0.041708313216524844
0.0917069,0.005672036268130919,0.0075513250319769465,0.04405972721350742,0.029572549242709356,0.015188157603326884,0.01695405707074225,0.008855905188087774,0.04167877198472112
0.0921724,0.005682109940034016,0.007487019649397762,0.04423719228879688,0.02950175886869515,0.01519626220129918,0.01683793722386656,0.008911336209891702,0.04164905371264053
0.0926379,0.005692792659975644,0.007423102311809589,0.04441246714426164,0.029428605286443466,0.015204836878714779,0.016722313814929654,0.00896786291471503,0.041619166566206234
0.0931034,0.005704094097230796,0.007359596359759761,0.04458552171849071,0.029353106751961854,0.015213884993903958,0.016607214728765564,0.009025503697294475,0.04158911801113199
0.093569,0.005716023714413175,0.007296524894806928,0.044756326210630484,0.029275281993666507,0.015223409679462821,0.016492667721784045,0.00908427674202484,0.041558914814591896
0.0940345,0.005728590764582896,0.007233910775193335,0.04492485108848126,0.029195150206782938,0.015233413841965988,0.01637870041814713,0.009144200018253636,0.04152856304728627
0.0945,0.00574180428841185,0.007171776611602193,0.04509106709655333,0.029112731047626322,0.015243900161733248,0.01626534030594999,0.009205291275625372,0.04149806808590117
0.0949655,0.005755673111407131,0.007110144762999838,0.04525494526407995,0.029028044627762126,0.015254871092650774,0.016152614733404548,0.009267568039477005,0.04146743461595892
0.095431,0.00577020584119292,0.007049037332562403,0.04541645691298412,0.02894111150804757,0.015266328862047486,0.01604055090502422,0.009331047606286043,0.041436666635056775
0.0958966,0.005785410864851199,0.006988476163686598,0.04557557366579635,0.028851952692554483,0.01527827547062714,0.015929175877808135,0.009395747039172642,0.041405767456490626
0.0963621,0.005801296346321657,0.006928482836084214,0.045732267453520346,0.028760589622374152,0.015290712692456626,0.015818516557423213,0.00946168316345706,0.04137473971326067
0.0968276,0.005817870223861095,0.006869078661959874,0.04588651052344357,0.028667044169304847,0.015303642075010835,0.015708599694382448,0.00952887256227372,0.04134358536245565
0.0972931,0.005835140207562629,0.006810284682271523,0.04603827544688954,0.02857133862942279,0.015317064939274393,0.01559945188021782,0.009597331572243071,0.04131230569001197
0.0977586,0.005853113776934966,0.006752121663073145,0.046187535126908714,0.02847349571653745,0.015330982379900457,0.015491099543646442,0.009667076279202432,0.04128090131584429
0.0982241,0.005871798178541993,0.006694610091939113,0.04633426280590469,0.02837353855553212,0.01534539526542674,0.015383568946728467,0.00973812251399685,0.04124937219934402
0.0986897,0.005891200423702916,0.006637770174469556,0.04647843207319264,0.02827149067559075,0.015360304238548794,0.01527688618101545,0.009810485848331028,0.041217717645242215
0.0991552,0.005911327286253111,0.0065816218308760895,0.046620016872486354,0.028167376003311862,0.015375709716450576,0.015171077163687801,0.009884181590683213,0.041185936309833616
0.0996207,0.005932185300365923,0.006526184692647222,0.04675899150931061,0.028061218855710373,0.015391611891192175,0.015066167633680034,0.009959224782281935,0.04115402620755831
0.1000862,0.005953780758435612,0.006471478099292757,0.046895330658335385,0.027953043933107845,0.015408010730154603,0.01496218314779258,0.010035630193146329,0.04112198471793756
0.1005517,0.00597611970902173,0.006417521095166479,0.04702900937062831,0.027842876311911725,0.015424905976541376,0.01485914907678894,0.010113412318190775,0.04108980859286003
0.1010172,0.005999207954855314,0.00636433242636641,0.04716000308082152,0.027730741437284125,0.015442297149936541,0.014757090601477113,0.010192585373394458,0.041057493964214375
0.1014828,0.006023051050907366,0.006311930537711964,0.04728828761418926,0.02761666511570066,0.015460183546918752,0.014656032708774346,0.010273163292036421,0.0410250363518639
0.1019483,0.006047654302520178,0.006260333569797291,0.047413839193632075,0.02750067350740003,0.015478564241730853,0.014556000187754457,0.010355159720996585,0.040992430671958735
0.1024138,0.006073022763602137,0.006209559356120172,0.047536634446563496,0.02738279311872529,0.015497438087004363,0.014457017625677158,0.010438588017123213,0.04095967124558062
0.1028793,0.006099161234886645,0.006159625420285835,0.0476566504116949,0.027263050794357816,0.015516803714538204,0.014359109403999034,0.010523461243667183,0.040926751807715246
0.1033448,0.0061260742622558035,0.006110548973285137,0.04777386454571409,0.027141473709445373,0.015536659536130894,0.014262299694366017,0.01060979216678344,0.040893665516546635
0.1038103,0.006153766135129537,0.0060623469108466565,0.04788825472985292,0.027018089361625603,0.015557003744465385,0.01416661245458729,0.010697593252099923,0.040860404963067934
0.1042759,0.006182240884920834,0.006015035810862307,0.047999799276338954,0.026892925562946608,0.01557783431404566,0.014072071424590687,0.010786876661354259,0.04082696218100266
0.1047414,0.0062115022835578125,0.005968631930886235,0.04810847693472624,0.026766010431686083,0.01559914900218417,0.013978700122359685,0.010877654249098435,0.04079332865703023
0.1052069,0.006241553842073385,0.005923151205706849,0.04821426689809968,0.026637372384070518,0.015620945350039108,0.01388652183985214,0.010969937559471642,0.040759495341309376
0.1056724,0.0062723988092633345,0.005878609244991902,0.04831714880914768,0.026507040125896036,0.015643220683700526,0.01379555963890098,0.01106373782304148,0.04072545265829252
0.1061379,0.006304040170413629,0.005835021331006622,0.04841710276609706,0.026375042644052635,0.015665972115324205,0.013705836347097163,0.011159065953713644,0.04069119051782425
0.1066034,0.0063364806460978135,0.005792402416404914,0.048514109328504314,0.026241409197953865,0.015689196544312153,0.013617374553655385,0.011255932545710192,0.040656698326516416
0.107069,0.006369722691045338,0.005750767122093629,0.04860814952289705,0.026106169310874495,0.015712890658538543,0.013530196605262997,0.01135434787061639,0.04062196499939236
0.1075345,0.0064037684930816395,0.00571012973516992,0.048699204848258994,0.025969352761199233,0.015737050935619792,0.013444324601912786,0.011454321874496206,0.04058697897179226
0.108,0.006438619972140771,0.0056705042069316305,0.048787257281351915,0.025830989573586,0.015761673644227554,0.013359780392720266,0.01155586417507639,0.04055172821153161
0.1084655,0.006474278779351317,0.005631904150960667,0.04887228928186757,0.025691110010047622,0.015786754845443347,0.01327658557172628,0.011658984058999037,0.04051620023130445
0.108931,0.006510746296196303,0.005594342841279248,0.04895428379740269,0.025549744560956048,0.015812290394153564,0.013194761473685803,0.011763690479142505,0.04048038210132321
0.1093966,0.00654802363374777,0.005557833210578874,0.049033224268250096,0.02540692393597329,0.015838275940483607,0.013114329169843982,0.011869992052010397,0.04044426046218693
0.1098621,0.006586111631976643,0.005522387848521872,0.049109094631999715,0.025262679054913348,0.015864706931269935,0.013035309463700696,0.011977897055188353,0.040407821537969874
0.1103276,0.00662501085913852,0.005488019000115345,0.0491818793279436,0.02511704103853953,0.015891578611568768,0.012957722886765258,0.01208741342486826,0.0403710511495223
0.1107931,0.006664721611235982,0.005454738564157299,0.04925156330128021,0.024970041199301875,0.015918886026200257,0.01288158969430331,0.012198548753439339,0.04033393472797535
0.1112586,0.006705243911558041,0.005422558091754767,0.04931813200711351,0.024821711032019418,0.015946624021327047,0.012806929861078342,0.012311310287145544,0.040296457328441546
0.1117241,0.0067465775102972785,0.005391488784913674,0.049381571414243715,0.024672082204512214,0.015974787246066272,0.012733763077090645,0.01242570492380864,0.04025860364390254
0.1121897,0.006788721884245255,0.00536154149520023,0.049441868008746365,0.02452118654818807,0.016003370154134167,0.01266210874331679,0.012541739210616187,0.04022035801927533
0.1126552,0.006831676236566691,0.005332726722473593,0.04949900879733751,0.024369056048588772,0.016032367005522578,0.012591985967452889,0.012659419341973678,0.04018170446564829
0.1131207,0.0068754394966529025,0.005305054613689588,0.04955298131052252,0.024215722835900625,0.016061771868206627,0.012523413559664996,0.012778751157420033,0.04014262667467794
0.1135862,0.006920010320054977,0.005278534961775217,0.04960377360552646,0.024061219175433992,0.016091578619882776,0.012456410028349981,0.012899740139605688,0.04010310803313731
0.1140517,0.00696538708849712,0.005253177204573773,0.0496513742690045,0.023905577458076498,0.01612178094973644,0.012390993575910236,0.013022391412332445,0.040063131637606546
0.1145172,0.0070115679099706394,0.005228990423860331,0.049695772419531194,0.02374883019072469,0.01615237236023825,0.012327182094545482,0.013146709738654293,0.04002268030929621
0.1149828,0.007058550618909007,0.00520598334442746,0.04973695770986888,0.023591009986698806,0.01618334616896794,0.012264993162065023,0.013272699519038344,0.03998173660899374
0.1154483,0.00710633277644444,0.005184164333241008,0.04977492032901691,0.023432149556145167,0.016214695510464887,0.012204444037723682,0.013400364789585058,0.039940282852123275
0.1159138,0.007154911670746429,0.005163541398665888,0.04980965100404482,0.023272281696430818,0.01624641333810414,0.012145551658084756,0.013529709220306815,0.039898301123909345
0.1163793,0.007204284317442607,0.00514412218976179,0.04984114100171414,0.023111439282534642,0.016278492425996913,0.01208833263291324,0.01366073611346379,0.03985577329463489
0.1168448,0.00725444746012234,0.005125913995648837,0.04986938212989524,0.02294965525743936,0.01631092537091437,0.012032803241102473,0.013793448401956109,0.03981268103498398
0.1173103,0.007305397570923413,0.0051089237449432135,0.04989436673878683,0.022786962622528495,0.016343704594233732,0.011978979426637365,0.013927848647771064,0.03976900583145988
0.1177759,0.0073571308512021295,0.005093158005262855,0.049916087721946736,0.022623394427992414,0.016376822343905785,0.01192687679459715,0.014063939040484192,0.039724729001869116
0.1182414,0.007409643232287172,0.005078622982803319,0.04993453851714297,0.022458983763247575,0.01641027069644315,0.011876510607200592,0.014201721395812921,0.039679831710861875
0.1187069,0.007462930376317518,0.005065324521984003,0.04994971310703457,0.022293763747372984,0.016444041558929055,0.011827895779896479,0.01434119715422149,0.039634294985519646
0.1191724,0.007516987677164696,0.005053268105164882,0.04996160601969159,0.02212776751956788,0.016478126671046544,0.011781046877502156,0.014482367379575738,0.03958809973098029
0.1196379,0.007571810261439618,0.005042458852433958,0.049970212328963357,0.021961028229634527,0.016512517607128397,0.011735978110392732,0.014625232757846406,0.03954122674609088
0.1201034,0.007627392989584238,0.005032901521465618,0.0499755276547041,0.02179357902849007,0.01654720577822805,0.011692703330743515,0.014769793595859504,0.039493656739078495
0.120569,0.007683730457048229,0.005024600507450081,0.04997754816286458,0.02162545305871118,0.016582182434211876,0.011651236028828092,0.014916049820092309,0.03944537034322898
0.1210345,0.00774081699555087,0.005017559843094153,0.0499762705654581,0.021456683445115213,0.01661743866587314,0.011611589329374505,0.015064000975513466,0.039396348132563284
0.1215,0.007798646674428263,0.005011783198693505,0.049971692120408875,0.021287303285381316,0.016652965407067986,0.011573775987981795,0.015213646224465716,0.039346570637500945
0.1219655,0.007857213302065978,0.005007273882276689,0.04996381063129045,0.021117345640715057,0.01668875343687367,0.01153780838759914,0.015364984345589628,0.03929601836049994
0.122431,0.007916510427417192,0.005004034839821151,0.04995262444696144,0.020946843526559778,0.016724793381769413,0.01150369853506978,0.015518013732786733,0.03924467179166193
0.1228966,0.00797653134160629,0.0050020686555414685,0.04993813246110593,0.02077582990335798,0.016761075717840287,0.01147145805774188,0.015672732394220276,0.03919251142429189
0.1233621,0.008037269079617897,0.005001377552250042,0.04992033411168517,0.020604337667365774,0.01679759077300468,0.011441098200148414,0.015829137951351782,0.039139517770400825
0.1238276,0.008098716422071219,0.005001963391790417,0.049899229380307615,0.02043239964152355,0.016834328729265914,0.011412629820758195,0.01598722763801153,0.0390856713761404
0.1242931,0.00816086589707955,0.0050038276755434,0.049874818791523556,0.02026004856638582,0.016871279624988723,0.011386063388800164,0.016146998299500864,0.03903095283715851
0.1247586,0.008223709782194727,0.005006971545006098,0.049847103412050994,0.020087317091113225,0.016908433357201234,0.011361408981163069,0.016308446391724303,0.03897534281386481
0.1252241,0.008287240106436255,0.005011395782443982,0.0498160848499388,0.019914237764529635,0.016945779683923277,0.011338676279372602,0.01647156798034914,0.03891882204659572
0.1256897,0.008351448652404772,0.005017100811616042,0.0497817652536734,0.01974084302624722,0.016983308226521977,0.011317874566648078,0.01663635873999026,0.03886137137066844
0.1261552,0.00841632695847943,0.005024086698573127,0.049744147311234665,0.01956716519786231,0.017021008472095794,0.011299012725040669,0.016802813953417657,0.03880297173131388
0.1266207,0.008481866321098801,0.005032353152529504,0.04970323424910703,0.01939323647422485,0.017058869775888278,0.011282099232655177,0.016970928510784144,0.03874360419847842
0.1270862,0.008548057797124795,0.005041899526807689,0.049659029831251304,0.019219088914784122,0.017096881363732934,0.011267142160957321,0.017140696908870514,0.03868324998148452
0.1275517,0.008614892206289077,0.005052724819856605,0.049611538358043016,0.019044754435013283,0.017135032334530675,0.011254149172168455,0.01731211325034537,0.03862189044354055
0.1280172,0.008682360133721423,0.00506482767634307,0.04956076466518289,0.018870264797915214,0.01717331166276126,0.011243127516749558,0.017485171243036706,0.03855950711609021
0.1284828,0.0087504519325594,0.005078206388316651,0.049506714122584734,0.018695651605611954,0.017211708201030136,0.011234084030976267,0.017659864199212234,0.038496081712992354
0.1289483,0.008819157726638764,0.005092858896447871,0.04944939263324616,0.018520946291019934,0.017250210682651982,0.011227025134606636,0.017836185034865427,0.038431596144522275
0.1294138,0.008888467413263892,0.005108782791339785,0.04938880663210713,0.018346180109613187,0.01728880772427224,0.011221956828643246,0.01801412626900441,0.038366032531185736
0.1298793,0.008958370666057607,0.005125975314912888,0.04932496308490146,0.018171384131276714,0.017327487828527843,0.011218884693191166,0.01819368002294099,0.03829937321733797
0.1303448,0.009028856937889696,0.005144433361863345,0.04925786948700576,0.017996589232252235,0.017366239386748365,0.011217813885413248,0.01837483801957751,0.03823160078460061
0.1308103,0.009099915463883397,0.005164153481194446,0.049187533862290474,0.017821826087178666,0.01740505068169873,0.011218749137584177,0.018557591582689853,0.03816269806507038
0.1312759,0.00917153526449909,0.005185131877821228,0.049113964761977276,0.017647125161229824,0.017443909890364664,0.01122169475524465,0.018741931636205356,0.03809264815431418
0.1317414,0.009243705148694355,0.005207364414248153,0.049037171263507116,0.017472516702352014,0.017482805086782027,0.011226654615457115,0.01892784870347509,0.038021434424145316
0.1322069,0.00931641371715949,0.0052308466123196845,0.0489571629694228,0.017298030733604256,0.017521724244910997,0.011233632165164438,0.01911533290654027,0.03794904053517589
0.1326724,0.009389649365627575,0.005255573655043599,0.04887395000627019,0.017123697045604062,0.01756065524155604,0.011242630419652932,0.019304373965392866,0.03787545044914024
0.1331379,0.009463400288258011,0.005281540388486814,0.048787543023521646,0.016949545189081684,0.01759958585933243,0.011253651961121082,0.019494961197230917,0.03780064844098432
0.1336034,0.00953765448109251,0.005308741323743507,0.04869795319252532,0.016775604467545807,0.01763850378967997,0.011266698937355381,0.019687083515709462,0.03772461911071601
0.134069,0.009612399745582346,0.005337170638975218,0.04860519220548362,0.016601903930063572,0.01767739663592448,0.011281773060514566,0.01988072943018892,0.03764734739501067
0.1345345,0.009687623692185754,0.005366822181522673,0.048509272274464,0.016428472364157704,0.01771625191638748,0.01129887560602354,0.020075887044983542,0.03756881857856663
0.135,0.009763313744034151,0.00539768947008898,0.04841020613044468,0.016255338288823442,0.017755057067544416,0.01131800741157827,0.02027254405861337,0.03748901830520455
0.1354655,0.009839457140666008,0.005429765696993857,0.04830800702239792,0.01608252994766786,0.01779379944723176,0.011339168876262832,0.02047068776306384,0.03740793258870477
0.135931,0.009916040941827006,0.005463043730498545,0.04820268871641288,0.01591007530217407,0.017832466337903072,0.011362359959779796,0.02067030504305764,0.037325547823376395
0.1363966,0.009993052031335187,0.005497516117200975,0.04809426549486001,0.015738002025092773,0.017871044949934155,0.011387580181795073,0.020871382375343844,0.0372418507943518
0.1368621,0.010070477121009714,0.005533175084500771,0.047982752155598225,0.01556633749396347,0.017909522424977283,0.011414828621398258,0.021073905828009644,0.03715682868760032
0.1373276,0.010148302754661854,0.005570012543133633,0.047868164011226136,0.015395108784767658,0.01794788583936441,0.01144410391667946,0.021277861059820494,0.037070469099654724
0.1377931,0.0102265153121468,0.005608020089774555,0.047750516888378135,0.015224342665716229,0.017986122207559258,0.011475404264423577,0.021483233319594532,0.03698276004704418
0.1382586,0.010305101013474906,0.00564718900970938,0.0476298271270657,0.01505406559117326,0.0180242184856581,0.011508727419922834,0.021690007445617387,0.03689368997542747
0.1387241,0.010384045922980856,0.005687510279574071,0.047506111580064014,0.014884303695718177,0.018062161574939017,0.01154407069690842,0.02189816786510347,0.03680324776842041
0.1391897,0.010463335953549298,0.005728974570161108,0.04737938761234375,0.014715082788348263,0.018099938325459308,0.011581430967601957,0.022107698593709937,0.036711422756111806
0.1396552,0.010542956870895327,0.0057715722492923316,0.04724967310054732,0.014546428346823388,0.018137535539700586,0.011620804662887462,0.022318583235109643,0.03661820472326224
0.1401207,0.010622894297898203,0.005815293384757522,0.04711698643250889,0.014378365512154713,0.01817493997626098,0.011662187772604396,0.022530804980629416,0.036523583917180025
0.1405862,0.010703133718986551,0.005860127747317976,0.046981346506816776,0.01421091908323905,0.018212138353593737,0.011705575845962357,0.02274434660896009,0.036427551055268834
0.1410517,0.01078366048457325,0.005906064813774287,0.04684277273241659,0.014044113511640493,0.01824911735379141,0.011750963992077819,0.022959190485944664,0.036330097332241636
0.1415172,0.010864459815538099,0.005953093770097484,0.04670128502825317,0.013877972896520863,0.01828586362641468,0.011798346880633326,0.023175318564450934,0.036231214426995444
0.1419828,0.010945516807756291,0.006001203514622714,0.046556903822949025,0.013712520979720453,0.01832236379236467,0.011847718742659422,0.02339271238433486,0.036130894509141656
0.1424483,0.011026816436670622,0.00605038266130458,0.04640965005451656,0.013547781140990419,0.018358604447797657,0.011899073371439547,0.023611353072500802,0.03602913024518678
0.1429138,0.0111083435619054,0.006100619543033318,0.046259545170101016,0.01338377639337826,0.018394572168080704,0.011952404123538018,0.023831221343064642,0.035925914804358375
0.1433793,0.011190082931919946,0.006151902215011003,0.04610661112575091,0.013220529378767634,0.01843025351178676,0.012007703919951136,0.024052297497625594,0.03582124186407144
0.1438448,0.011272019188699526,0.006204218458186995,0.04595087038621204,0.01305806236357374,0.018465635024727547,0.012064965247381432,0.024274561425652392,0.03571510561503068
0.1443103,0.011354136872481619,0.006257555782751917,0.045792345924741094,0.012896397234595458,0.01850070324402244,0.012124180159634925,0.02449799260498927,0.035607500765965396
0.1447759,0.011436420426515314,0.006311901431689466,0.045631061222934456,0.012735555495025324,0.01853544470220142,0.012185340279141173,0.02472257010248699,0.03549842254799451
0.1452414,0.011518854201851572,0.006367242384385469,0.04546704027056745,0.012575558260618288,0.01856984593134011,0.012248436798595863,0.024948272574763977,0.03538786671862045
0.1457069,0.011601422462162055,0.006423565360293606,0.04530030756543895,0.012416426256020165,0.018603893467224852,0.012313460482725564,0.02517507826910243,0.035275829565351226
0.1461724,0.011684109388584085,0.006480856822657342,0.04513088811321601,0.012258179811256537,0.018637573853545687,0.012380401670174174,0.025402965024484022,0.03516230790895112
0.1466379,0.011766899084589258,0.006539102982287611,0.04495880742727317,0.012100838858382798,0.01867087364611512,0.012449250275510537,0.02563191027276958,0.03504729910632136
0.1471034,0.011849775580873178,0.006598289801395843,0.044784091528521246,0.011944422928295914,0.018703779417110395,0.012519995791356615,0.02586189104002708,0.03493080105301335
0.147569,0.011932722840263732,0.006658402997481924,0.04460676694522042,0.011788951147708402,0.018736277759336818,0.012592627290635473,0.026092883948011902,0.03481281218537839
0.1480345,0.012015724762645352,0.006719428047276675,0.044426860712772936,0.011634442236284981,0.01876835529050972,0.012667133428938304,0.026324865215803208,0.034693331482358716
0.1485,0.012098765189896749,0.0067813501907384,0.044244400373490485,0.011480914503942279,0.018799998657552334,0.012743502447009603,0.02655781066160017,0.03457235846692532
0.1489655,0.012181827910839696,0.00684415443510304,0.0440594139763318,0.011328385848311865,0.018831194540906954,0.01282172217334951,0.02679169570468159,0.03444989320716867
0.149431,0.01226489666619652,0.006907825558987377,0.04387193007660552,0.011176873752366867,0.018861929658856552,0.012901780026932373,0.027026495367532283,0.03432593631704812
0.1498966,0.012347955153554024,0.0069723481165447545,0.043681977735633294,0.011026395282212309,0.018892190771853976,0.012983663020040516,0.027262184278139437,0.03420048895680627
0.1503621,0.012430987032331621,0.00703770644167277,0.04348958652036794,0.010876967085039288,0.018921964686855763,0.013067357761212421,0.02749873667246191,0.03407355283305458
0.1508276,0.0125139759287515,0.007103884652272316,0.043294786502961244,0.010728605387243009,0.018951238261657576,0.013152850458304655,0.027736126397075275,0.03394513019853686
0.1512931,0.012596905440808687,0.00717086665455741,0.04309760826027585,0.010581325992704579,0.01897999840922821,0.013240126921667043,0.027974326911995206,0.03381522385157754
0.1517586,0.012679759143239058,0.007238636147415198,0.042898082873335436,0.010435144281236415,0.019008232102038995,0.013329172567430788,0.02821331129368148,0.033683837135221904
0.1522241,0.012762520592483466,0.007307176626815563,0.042696241926707554,0.01029007520719098,0.019035926376385674,0.013419972420909206,0.028453052238224797,0.033550973936075375
0.1526897,0.012845173331646316,0.007376471390269771,0.04249211750781386,0.010146133298232532,0.01906306833669986,0.013512511120110721,0.028693522064718157,0.03341663868284923
0.1531552,0.012927700895447085,0.007446503541337602,0.04228574220616224,0.010003332654271445,0.019089645159847467,0.013606772919363776,0.02893469271881457,0.033280836344619674
0.1536207,0.013010086815163384,0.007517255994182428,0.04207714911249583,0.009861686946560594,0.0191156440994115,0.013702741693053161,0.029176535776472397,0.03314357242880726
0.1540862,0.013092314623564255,0.007588711478173763,0.0418663718178541,0.009721209416953222,0.01914105248995689,0.013800400939467283,0.029419022447889645,0.033004852978883156
0.1545517,0.013174367859832439,0.007660852542536774,0.041653444412540944,0.009581912877321613,0.019165857751275172,0.013899733784755798,0.029662123581628227,0.03286468457180889
0.1550172,0.013256230074474377,0.007733661561048287,0.04143840148499488,0.009443809709135843,0.01919004739260716,0.014000722986997042,0.029905809668929025,0.03272307431521547
0.1554828,0.013337884834216641,0.00780712073677882,0.04122127812055621,0.009306911863201808,0.01921360901684197,0.014103350940374562,0.030150050848218472,0.032580029844328
0.1559483,0.013419315726887383,0.007881212106880182,0.04100210990012592,0.00917123085955771,0.01923653032469089,0.014207599679461993,0.030394816909807148,0.03243555931864175
0.1564138,0.013500506366281353,0.007955917547418175,0.040780932898710716,0.00903677778752808,0.019258799118834748,0.014313450883615492,0.030640077300780666,0.03228967141835543
0.1568793,0.013581440397006981,0.00803121877824996,0.04055778368384858,0.0089035633059344,0.019280403308043474,0.014420885881472821,0.03088580113008291,0.03214237534056751
0.1573448,0.013662101499313902,0.00810709736794559,0.040332699313909016,0.008771597643461344,0.019301330911266852,0.014529885655558185,0.03113195717379141,0.03199368079524116
0.1578103,0.013742473393899269,0.008183534738753178,0.04010571733626192,0.008640890599177529,0.019321570061695652,0.014640430846991844,0.031378513880584505,0.03184359800094356
0.1582759,0.013822539846691169,0.008260512171607193,0.039876875785309206,0.00851145154320968,0.019341109010792692,0.014752501760303545,0.03162543937739979,0.03169213768036515
0.1587414,0.013902284673607329,0.00833801081117927,0.039646213180373154,0.00838328941756897,0.019359936132293688,0.014866078368348721,0.031872701475283385,0.031539311055624304
0.1592069,0.013981691745287277,0.00841601167097092,0.03941376852343551,0.008256412737128254,0.019378039926178075,0.014981140317326398,0.03212026767542959,0.03138512984336284
0.1596724,0.01406074499179604,0.008494495638447477,0.03917958129672128,0.00813082959074886,0.019395409022610294,0.015097666931897725,0.032368105175410423,0.031229606249637533
0.1601379,0.01413942840729731,0.008573443480212503,0.03894369146012119,0.008006547642555492,0.019412032185851972,0.01521563722040403,0.03261618087559484,0.03107275296461272
0.1606034,0.014217726054693935,0.008652835847221927,0.038706139448446704,0.007883574133357765,0.01942789831814553,0.015335029880183326,0.03286446138575719,0.030914583157058906
0.161069,0.01429562207023351,0.008732653280036994,0.03846696616851144,0.007761915882216788,0.019442996463569624,0.01545582330298411,0.03311291303187463,0.030755110468662226
0.1615345,0.01437310066807675,0.008812876214115141,0.03822621299603301,0.007641579288155194,0.01945731581186667,0.01557799558047542,0.033361501863113346,0.030594349008149897
0.162,0.014450146144826313,0.00889348498513785,0.037983921772349584,0.007522570332008929,0.019470845702242626,0.015701524509851957,0.033610193659003564,0.030432313345236838
0.1624655,0.014526742884013772,0.008974459834374438,0.03774013480094584,0.007404894578419075,0.019483575627139045,0.01582638759953316,0.03385895393680369,0.030269018504398667
0.162931,0.014602875360542356,0.009055780914080803,0.037494894843783676,0.007288557177961937,0.019495495235977246,0.015952562074955025,0.03410774795905412,0.030104479958476416
0.1633966,0.014678528145083252,0.00913742829293203,0.03724824511743348,0.007173562869415554,0.019506594338874344,0.01608002488445346,0.03435654074132136,0.02993871362211809
0.1638621,0.014753685908423166,0.009219381961487746,0.037000229289002116,0.007059915982160786,0.01951686291033072,0.016208752705237865,0.03460529706013282,0.029771735845062045
0.1643276,0.014828333425760802,0.009301621837689095,0.036750891471854244,0.006947620438715046,0.01952629109288842,0.01633872194945362,0.03485398146110274,0.029603563405266996
0.1647931,0.014902455580949898,0.009384127772386154,0.03650027622112336,0.006836679757396711,0.019534869200759853,0.016469908770332123,0.03510255826724926,0.029434213501893288
0.1652586,0.014976037370686302,0.009466879554894576,0.03624842852900904,0.006727097055118186,0.019542587723426163,0.016602289068426875,0.0353509915875026,0.029263703748139882
0.1657241,0.015049063908636537,0.009549856918580206,0.03599539381985685,0.006618875050305552,0.0195494373292045,0.016735838497934075,0.03559924532540396,0.0290920521639415
0.1661897,0.015121520429505179,0.009633039546470441,0.03574121794501756,0.00651201606594269,0.019555408868783517,0.016870532473096108,0.035847283187995,0.02891927716853039
0.1666552,0.015193392293038292,0.009716407076890986,0.03548594717748269,0.0064065220327376915,0.01956049337872625,0.017006346174686153,0.03609506869489712,0.028745397572867256
0.1671207,0.015264664987960076,0.00979993910912669,0.03522962820629421,0.006302394492409354,0.0195646820849396,0.017143254556572125,0.03634256518757988,0.028570432571945838
0.1675862,0.015335324135839812,0.009883615209105053,0.034972308130727284,0.006199634601091539,0.019567966406109527,0.01728123235235805,0.03658973583881764,0.028394401736975744
0.1680517,0.015405355494886213,0.009967414915101043,0.03471403445424583,0.006098243132853119,0.019570337957100982,0.01742025408210097,0.036836543662332986,0.028217325007447964
0.1685172,0.015474744963666296,0.0100513177434617,0.03445485507823152,0.0059982204833312095,0.01957178855232162,0.017560294059101464,0.037082951522625585,0.028039222683087315
0.1689828,0.015543478584746183,0.010135303194349085,0.034194818295487595,0.005899566673475413,0.01957231020904814,0.01770132639676573,0.0373289221449844,0.027860115415696052
0.1694483,0.015611542548251431,0.010219350757500016,0.033933972783519346,0.005802281353400738,0.019571895150714103,0.01784332501553727,0.03757441812568135,0.02768002420089264
0.1699138,0.015678923195344894,0.010303439918001011,0.03367236759759309,0.005706363806346881,0.01957053581015799,0.017986263649895893,0.03781940194234376,0.027498970369749576
0.1703793,0.015745607021620454,0.010387550162076833,0.033410052163575885,0.005611812952741515,0.019568224832830085,0.01813011585542188,0.03806383596450292,0.02731697558033404
0.1708448,0.01581158068041136,0.010471660982890957,0.033147076270558386,0.0055186273543652254,0.019564955079956856,0.01827485501592283,0.03830768246431581,0.027134061809155435
0.1713103,0.015876830986012124,0.010555751886356242,0.03288349006326304,0.005426805218615662,0.01956071963166126,0.0184204543506207,0.038550903627456806,0.02695025134252369
0.1717759,0.015941344916813108,0.010639802396954006,0.03261934403424016,0.005336344402868471,0.019555511790037405,0.018566886921396363,0.03879346156417596,0.026765566767822657
0.1722414,0.016005109618346995,0.010723792063559645,0.03235468901585453,0.0052472424189325155,0.019549325082178024,0.01871412564008883,0.03903531832052017,0.02658003096470273
0.1727069,0.01606811240624634,0.01080770046527285,0.032089576172065114,0.005159496437596871,0.019542153263153172,0.018862143275846205,0.03927643588971351,0.02639366709619722
0.1731724,0.01613034076911148,0.010891507217250379,0.03182405699000033,0.005073103293267091,0.01953399031893868,0.019010912462525252,0.03951677622369232,0.02620649859976706
0.1736379,0.016191782371288176,0.010975191976539286,0.031558183271331496,0.004988059488688198,0.019524830469292983,0.019160405706136346,0.03975630124479091,0.026018549178278522
0.1741034,0.016252425055554548,0.01105873444790836,0.031292007123447096,0.004904361199751829,0.019514668170581062,0.019310595392330474,0.03999497285757299,0.0258298427909187
0.174569,0.01631225684571696,0.011142114389675536,0.031025580950430343,0.004822004280384956,0.01950349811854415,0.019461453793924846,0.04023275296080389,0.025640403644053573
0.1750345,0.016371265949114772,0.011225311619528847,0.030758957443843094,0.004740984267517533,0.019491315251013948,0.019612953078463596,0.040469603459558356,0.025450256182033497
0.1755,0.016429440759034103,0.011308306020338475,0.030492189573319162,0.004661296386126418,0.019478114750569857,0.019765065315809956,0.040705486277458354,0.025259425077951266
0.1759655,0.01648676985703077,0.011391077545957345,0.030225330576970254,0.004582935554352891,0.01946389204713771,0.019917762485766217,0.040940363369035115,0.02506793522435779
0.176431,0.01654324201516296,0.011473606227007598,0.029958433951608115,0.0045058963886910365,0.01944864282052823,0.02007101648571762,0.04117419673220938,0.024875811723940496
0.1768966,0.01659884619813418,0.011555872176650257,0.029691553442786553,0.004430173209244269,0.019432363002913445,0.020224799138296234,0.04140694842088358,0.024683079880169587
0.1773621,0.016653571565347376,0.011637855596335305,0.029424743034667362,0.0043557600450472396,0.019415048781239088,0.02037908219906074,0.041638580557639526,0.02448976518791715
0.1778276,0.01670740747287107,0.011719536781529387,0.029158056939714266,0.004282650639450323,0.019396696599570946,0.020533837364187974,0.041869055346534824,0.024295893324054088
0.1782931,0.016760343475318466,0.011800896127418286,0.02889154958821922,0.004210838455563879,0.01937730316137315,0.020689036278172035,0.042098335085990944,0.024101490138029792
0.1787586,0.016812369327640648,0.011881914134581284,0.02862527561766575,0.0041403166817594135,0.019356865431716306,0.020844650541526625,0.042326382181765744,0.023906581642439452
0.1792241,0.016863474986834902,0.011962571414634448,0.028359289861933975,0.004071078237224814,0.019335380639413573,0.021000651718486255,0.04255315916000268,0.023711194003583937
0.1796897,0.016913650613569305,0.012042848695839884,0.028093647340352124,0.00400311577757078,0.019312846279082765,0.021157011344701927,0.04277862868034896,0.02351535353202725
0.1801552,0.016962886573724755,0.012122726828677911,0.027828403246599444,0.0039364217004856,0.01928926011313269,0.021313700934926762,0.04300275354913449,0.02331908667315648
0.1806207,0.01701117343985555,0.012202186791379084,0.027563612937465256,0.00387098815143543,0.019264620173672004,0.021470691990687067,0.04322549673260322,0.02312241999774919
0.1810862,0.01705850199256964,0.01228120969541297,0.02729933192146908,0.0038068070294072455,0.019238924764338874,0.021627956007934122,0.04344682137018828,0.022925380192553167
0.1815517,0.017104863221829733,0.012359776790930593,0.027035615847346657,0.0037438699926916593,0.019212172462049686,0.021785464484671915,0.043666690787821885,0.022727994050883202
0.1820172,0.017150248328176465,0.012437869472157427,0.026772520492406852,0.0036821684647028036,0.019184362118665137,0.021943188928555925,0.04388506851127094,0.022530288463239578
0.1824828,0.017194648723874998,0.012515469282733843,0.026510101750764476,0.0036216936398324943,0.019155492862572177,0.022101100864457986,0.04410191827948889,0.022332290407952756
0.1829483,0.01723805603398629,0.012592557920999914,0.02624841562145413,0.0035624364893359225,0.019125564100180258,0.022259171841992224,0.04431720405797428,0.022134026941858648
0.1834138,0.01728046209736437,0.01266911724522148,0.025987518196430373,0.0035043877672461424,0.019094575517330376,0.022417373442997154,0.04453089005212636,0.021935525191008734
0.1838793,0.017321858967580792,0.012745129278754456,0.025727465648459458,0.0034475380163146467,0.019062527080615354,0.02257567728896945,0.04474294072058778,0.021736812341419016
0.1843448,0.01736223891377741,0.012820576215144283,0.02546831421890763,0.0033918775739753735,0.01902941903860975,0.02273405504844515,0.04495332078856411,0.02153791562986182
0.1848103,0.017401594421448396,0.012895440423157524,0.0252101202054311,0.0033373965783295104,0.018995251923007734,0.02289247844432474,0.045161995261109894,0.02133886233470408
0.1852759,0.017439918193152496,0.012969704451742614,0.024952939949572456,0.003284084974148528,0.018960026549667275,0.023050919261138753,0.045368929436370595,0.021139679766795753
0.1857414,0.017477203149156382,0.013043351034916757,0.024696829824268105,0.0032319325188929185,0.018923744019559045,0.023209349352250868,0.045574088918769455,0.020940395260411686
0.1862069,0.017513442428009944,0.013116363096576057,0.024441846221271102,0.0031809287887441793,0.018886405719618627,0.0233677406469956,0.04577743963212798,0.02074103616425026
0.1866724,0.017548629387054378,0.013188723755225997,0.024188045538493765,0.003131063184647633,0.018848013323500758,0.02352606515774753,0.04597894783270856,0.020541629832491852
0.1871379,0.01758275760286392,0.013260416328629433,0.02393548416727412,0.00308232493836374,0.01880856879223451,0.023684294986919246,0.046178580122167544,0.020342203615920117
0.1876034,0.017615820871622022,0.013331424338369324,0.023684218479570276,0.003034703118525593,0.018768074374778516,0.0238424023338849,0.04637630346040714,0.020142784853108844
0.188069,0.017647813209432792,0.013401731514323497,0.02343430481508663,0.0029881866367003464,0.01872653260847559,0.0240003595018263,0.04657208517831494,0.019943400861677132
0.1885345,0.017678728852568396,0.013471321799048695,0.023185799468335985,0.0029427642534523555,0.018683946319406064,0.024158138904498732,0.04676589299038003,0.01974407892961543
0.189,0.017708562257653198,0.013540179352071163,0.02293875867564147,0.002898424584405841,0.01864031862263946,0.02431571307291365,0.04695769500717492,0.01954484630668503
0.1894655,0.017737308101785247,0.013608288554080954,0.02269323860208237,0.0028551561063049164,0.018595652922384017,0.024473054661935615,0.04714745974769281,0.0193457301958934
0.189931,0.01776496128259567,0.013675634011027064,0.022449295328387856,0.002812947163068844,0.018549952912033627,0.0246301364567907,0.047335156151529646,0.01914675774504792
0.1903966,0.01779151691824653,0.013742200558110398,0.022206984837782592,0.0027717859718403835,0.018503222574111754,0.0247869313794838,0.047520753590900355,0.018947956038390307
0.1908621,0.017816970347367594,0.013807973263671475,0.021966363002788238,0.002731660629025103,0.018455466180111766,0.02494341249512214,0.047704221882479046,0.018749352088314186
0.1913276,0.017841317128932336,0.013872937432969792,0.021727485571984534,0.002692559116319535,0.018406688290233172,0.025099553018142116,0.047885531299053284,0.018550972827168107
0.1917931,0.01786455304207364,0.01393707861185179,0.02149040815673369,0.002654469306726046,0.018356893753013123,0.025255326318436553,0.04806465258098292,0.018352845099146316
0.1922586,0.01788667408583958,0.014000382590304396,0.021255186217871636,0.0026173789705523217,0.01830608770485265,0.02541070592737927,0.0482415569474545,0.018154995652269523
0.1927241,0.017907676478889866,0.014062835405891363,0.02102187505236943,0.002581275781393358,0.018254275569437022,0.025565665543743774,0.04841621610752257,0.017957451130457935
0.1931897,0.017927556659133623,0.01412442334706995,0.020790529779968134,0.0025461473220939213,0.018201463057049724,0.025720179039512736,0.04858860227093041,0.017760238065698677
0.1936552,0.017946311283309195,0.014185132956385946,0.020561205329790163,0.0025119810906894594,0.018147656163779637,0.025874220465574898,0.04875868815870305,0.01756338287030978
0.1941207,0.017963937226506757,0.01424495103354551,0.020333956426930106,0.002478764506323481,0.01809286117062106,0.026027764057306037,0.04892644701350701,0.017366911829302865
0.1945862,0.01798043158163446,0.014303864638362942,0.020108837579027896,0.0024464849151394643,0.018037084642466304,0.02618078424003081,0.04909185260977153,0.01717085109284648
0.1950517,0.017995791658828773,0.014361861093583983,0.019885903062827268,0.002415129596145341,0.017980333426990566,0.026333255634362493,0.049254879263566594,0.016975226668832232
0.1955172,0.01801001498480969,0.014418927987584778,0.019665206910722415,0.0023846857670486144,0.017922614653428728,0.026485153061418003,0.049415501842233395,0.01678006441554556
0.1959828,0.018023099302181454,0.014475053176946995,0.019446802897295754,0.00235514059006017,0.017863935731243768,0.026636451547905938,0.04957369577376318,0.016585390034443197
0.1964483,0.0180350425686796,0.014530224788909708,0.019230744525849573,0.0023264811776648356,0.017804304348686382,0.02678712633108548,0.049729437055920776,0.016391229063039126
0.1969138,0.018045842956365316,0.014584431223698775,0.019017085014934352,0.0022986945983567756,0.01774372847124563,0.02693715286359422,0.04988270226510961,0.01619760686790093
0.1973793,0.018055498850768223,0.01463766115673445,0.01880587728487644,0.002271767882337835,0.01768221633999049,0.027086506818143,0.05003346856497498,0.01600454863775819
0.1978448,0.018064008849978934,0.014689903540717864,0.01859717394430783,0.0022456880271770163,0.017619776469802548,0.02723516409207594,0.05018171371474224,0.015812079376724637
0.1983103,0.01807137176369272,0.014741147607597071,0.018391027276700805,0.0022204420034293583,0.017556417647500197,0.027383100811793976,0.050327416077286295,0.015620223897635612
0.1987759,0.01807758661220568,0.01479138287041342,0.018187489226910426,0.002196016760212579,0.01749214892985501,0.027530293337040584,0.0504705546269286,0.015429006815502268
0.1992414,0.018082652625364754,0.014840599125029053,0.01798661138772797,0.0021723992307399317,0.017426979641501087,0.0276767182650486,0.050611108956957473,0.01523845254108399
0.1997069,0.01808656924147282,0.01488878645173656,0.01778844498644863,0.0021495763378078293,0.01736091937273836,0.027822352434547323,0.0507490592868674,0.01504858527458041
0.2001724,0.018089336106150218,0.014935935216751933,0.017593040871457053,0.002127534999236889,0.01729397797723111,0.02796717292962942,0.05088438646931261,0.01485942899944438
0.2006379,0.018090953071153854,0.014982036073592156,0.01740044949883444,0.0021062621332651496,0.017226165569603144,0.028111157083477643,0.05101707199677004,0.01467100747631711
0.2011034,0.01809142019315542,0.015027079964338877,0.017210720918991045,0.002085744663892293,0.017157492522931393,0.028254282481951908,0.05114709800790662,0.014483344237086708
0.201569,0.018090737732480284,0.015071058120789623,0.017023904763328105,0.002065969526173754,0.017087969466139927,0.02839652696703781,0.05127444729364638,0.01429646257907119
0.2020345,0.018088906151808862,0.015113962065498079,0.016840050230933247,0.00204692367146364,0.017017607281296414,0.028537868640158035,0.051399103302932146,0.014110385559326996
0.2025,0.018085926114842568,0.015155783612704865,0.016659206075313494,0.002028594072605391,0.01694641710081321,0.02867828586534849,0.051521050148177115,0.013925135989083872
0.2029655,0.018081798484936615,0.015196514869160278,0.01648142059117005,0.0020109677290691,0.01687441030455515,0.028817757272301285,0.05164027261040088,0.013740736428306893
0.203431,0.01807652432370211,0.015236148234840336,0.01630674160121911,0.0019940316720344015,0.016801598516856083,0.028956261759277117,0.051756756144044465,0.013557209180386295
0.2038966,0.01807010488957995,0.01527467640355748,0.016135216443062886,0.0019777729694178464,0.016727993603446,0.02909377849588968,0.05187048688145869,0.013374576286955755
0.2043621,0.01806254163638904,0.015312092363467164,0.015966891956115035,0.0019621787308436527,0.01665360766829072,0.029230286925764952,0.05198145163705918,0.013192859522839653
0.2048276,0.01805383621185123,0.015348389397471492,0.015801814468584537,0.0019472361125567215,0.01657845305034575,0.02936576676907792,0.052089637911141795,0.01301208039112979
0.2052931,0.018043990456095386,0.015383561083520984,0.01564002978452206,0.0019329323222768114,0.01650254232022611,0.029500198024969525,0.052195033893351235,0.012832260118392079
0.2057586,0.01803300640014266,0.015417601294815451,0.0154815831709327,0.0019192546239927767,0.01642588827679366,0.02963356097384643,0.05229762846579544,0.012653419650003613
0.2062241,0.01802088626437511,0.015450504199904852,0.015326519344958872,0.0019061903426958187,0.01634850394366335,0.02976583617956651,0.05239741120579806,0.012475579645620533
0.2066897,0.018007632456989588,0.015482264262690938,0.015174882461137101,0.0018937268690507596,0.016270402565629855,0.0298970044915132,0.052494372388280905,0.012298760474776991
0.2071552,0.01799324757243871,0.015512876242330467,0.015026716098732242,0.0018818516640044254,0.016191597605015883,0.03002704704656202,0.05258850298776859,0.012122982212615452
0.2076207,0.01797773438986059,0.015542335193040716,0.014882063249152635,0.0018705522633302852,0.016112102737943328,0.03015594527094271,0.05267979468000757,0.01194826463574854
0.2080862,0.017961095871498935,0.015570636463808112,0.014740966303449624,0.0018598162821085464,0.01603193185052841,0.030283680882000227,0.052768239843192434,0.011774627218252492
0.2085517,0.017943335161115043,0.015597775698000872,0.014603467039904715,0.0018496314191409286,0.015951099035001852,0.030410235889857768,0.05285383155879369,0.01160208912779229
0.2090172,0.017924455582392983,0.015623748832886671,0.014469606611707599,0.0018399854612993756,0.015869618585755016,0.03053559259898492,0.05293656361198366,0.011430669221878468
0.2094828,0.017904460637339324,0.015648552099056506,0.01433942553472817,0.001830866287807987,0.015787504995312913,0.030659733609673723,0.05301643049165923,0.011260386044255537
0.2099483,0.01788335400467863,0.015672182019756016,0.014212963675385605,0.0018222618744575122,0.015704772950234803,0.030782641819425353,0.05309342739006275,0.011091257821422017
0.2104138,0.017861139538245932,0.015694635410125675,0.014090260238617482,0.0018141602977518145,0.015621437326943158,0.030904300424250086,0.05316755020200363,0.010923302459281869
0.2108793,0.017837821265377255,0.015715909376351332,0.013971353755951921,0.0018065497389858052,0.015537513187481585,0.031024692919882895,0.05323879552368474,0.010756537539927202
0.2113448,0.017813403385299183,0.015736001314726668,0.013856282073685606,0.001799418488254449,0.015453015775202273,0.031143803102917162,0.053307160651139024,0.010590980318552014
0.2118103,0.017787890267518345,0.015754908910629084,0.013745082341170563,0.0017927549483925595,0.015367960510383435,0.031261615071858845,0.05337264357828294,0.010426647720496606
0.2122759,0.017761286450211595,0.015772630137410582,0.013637790999212553,0.0017865476388452249,0.01528236298577717,0.0313781132281034,0.05343524299459404,0.01026355633842229
0.2127414,0.01773359663861753,0.015789163255205057,0.013534443768583846,0.0017807851994687792,0.015196238962088063,0.03149328227683797,0.05349495828242058,0.010101722429615906
0.2132069,0.0177048257034299,0.015804506809653358,0.013435075638653243,0.0017754563942623208,0.015109604363382798,0.031607107227871245,0.05355178951393126,0.009941161913423584
0.2136724,0.017674978679193338,0.01581865963054742,0.01333972085613617,0.0017705501150298089,0.01502247527243099,0.03171957339639377,0.053605737447712895,0.009781890368813152
0.2141379,0.01764406076270175,0.01583162083039468,0.01324841291396764,0.0017660553849727797,0.01493486792597734,0.03183066640367111,0.05365680352502454,0.009623923032064495
0.2146034,0.017612077311399653,0.015843389802904076,0.013161184540300956,0.0017619613622137343,0.014846798709945213,0.03194037217767256,0.05370498986571711,0.009467274794587173
0.215069,0.017579033841786582,0.015853966221394795,0.013078067687635048,0.001758257343250226,0.014758284154571604,0.03204867695363792,0.05375029926382846,0.009311960200864545
0.2155345,0.017544936027824535,0.01586335003712922,0.012999093522073388,0.0017549327663396867,0.014669340929473446,0.032155567274584705,0.05379273518286511,0.009157993446523589
0.216,0.017509789699348403,0.01587154147757142,0.012924292412717437,0.0017519772148150202,0.014579985838645126,0.032261029991758235,0.0538323017507827,0.009005388376529574
0.2164655,0.01747360084047914,0.015878541044572834,0.012853693921197637,0.0017493804203310187,0.014490235815387007,0.03236505226502696,0.05386900375467742,0.008854158483504713
0.216931,0.01743637558803935,0.015884349512487,0.012787326791345062,0.0017471322660416687,0.014400107917164695,0.032467621563225406,0.0539028466352008,0.008704316906169865
0.2173966,0.017398120229970896,0.01588896792621526,0.01272521893900682,0.0017452227897084523,0.01430961932039875,0.032568725664446865,0.05393383648070995,0.008555876427908357
0.2178621,0.01735884120375404,0.01589239759918576,0.012667397442008342,0.00174364218673977,0.01421878731518453,0.03266835265628786,0.053961980021165624,0.00840884947545086
0.2183276,0.01731854509482754,0.015894640111268035,0.012613888530265844,0.0017423808131616318,0.014127629299941975,0.03276649093604641,0.05398728462178994,0.008263248117680321
0.2187931,0.017277238635009167,0.015895697306625548,0.012564717576052249,0.0017414291885197845,0.01403616277599532,0.03286312921087571,0.05400975827649607,0.00811908406455585
0.2192586,0.017234928700916082,0.015895571291508523,0.012519909084419955,0.0017407779987134366,0.013944405342083034,0.03295825649789503,0.054029409601102016,0.007976368666154492
0.2197241,0.017191622312384462,0.015894264431989356,0.012479486683783765,0.0017404180987607416,0.01385237468879872,0.0330518621242596,0.05404624782634104,0.007835112911829784
0.2201897,0.017147326630887843,0.015891779351642852,0.012443473116667249,0.0017403405154961978,0.013760088592964122,0.03314393572719158,0.054060282790680786,0.007695327429486008
0.2206552,0.01710204895795373,0.015888118929173498,0.012411890230615674,0.0017405364502001122,0.013667564911935817,0.03323446725397444,0.05407152493296295,0.007557022484967042
0.2211207,0.017055796733578075,0.015883286295991953,0.01238475896927867,0.0017409972811602778,0.013574821577847453,0.03332344696191333,0.05407998528487519,0.007420207981558727
0.2215862,0.017008577534637317,0.01587728483374286,0.012362099363665585,0.0017417145661659987,0.013481876591789734,0.03341086541826424,0.05408567546326643,0.007284893459603666
0.2220517,0.016960399073297664,0.01587011817178601,0.01234393052357645,0.0017426800449346026,0.013388748017930621,0.03349671350013482,0.054088607662317205,0.007151088096227353
0.2225172,0.01691126919542139,0.015861790184632723,0.012330270629211455,0.00174388564147055,0.013295453977578496,0.033580982394359804,0.05408879464557608,0.007018800705174564
0.2229828,0.016861195878969858,0.015852304989339334,0.012321136922961676,0.0017453234663572545,0.013202012643191386,0.03366366359735388,0.054086249737873494,0.006888039736754885
0.2234483,0.016810187232402903,0.015841666942859434,0.012316545701383875,0.0017469858189817077,0.013108442232335442,0.033744748914944965,0.05408098681712408,0.006758813277896293
0.2239138,0.01675825149307416,0.015829880639356524,0.012316512307362092,0.001748865189691995,0.013014761001595921,0.03382423046219059,0.05407302030602823,0.006631129052305665
0.2243793,0.01670539702562174,0.015816950907478568,0.012321051122458846,0.0017509542618877807,0.012920987240443937,0.03390210066318012,0.05406236516368352,0.006504994420735081
0.2248448,0.01665163232035363,0.015802882807595873,0.012330175559458733,0.0017532459140438316,0.012827139265062265,0.033978352250825426,0.0540490368771161,0.006380416381352721
0.2253103,0.016596965991626987,0.015787681629003597,0.012343898055107362,0.0017557332216666423,0.012733235412133559,0.034052978266642456,0.054033051452742155,0.006257401570217157
0.2257759,0.016541406776220687,0.015771352887090053,0.012362230063048487,0.0017584094591842159,0.012639294032594572,0.03412597206052602,0.05401442540776921,0.006135956261853772
0.2262414,0.01648496353170021,0.01575390232047195,0.012385182046962205,0.0017612681017690425,0.012545333485360213,0.03419732729052021,0.053993175761546726,0.006016086369931978
0.2267069,0.016427645234774215,0.015735335888097546,0.01241276347390717,0.0017643028270943083,0.012451372131021586,0.034267037922586514,0.05396932002687535,0.00589779744804188
0.2271724,0.016369460979642144,0.01571565976631862,0.012444982807869615,0.0017675075170233564,0.012357428325522333,0.03433509823037172,0.05394287620128392,0.005781094690568997
0.2276379,0.01631041997633228,0.015694880345932145,0.012481847503521971,0.001770876259232412,0.012263520413817732,0.03440150279497787,0.0539138627582829,0.00566598293366556
0.2281034,0.016250531549029803,0.015673004229192346,0.012523364000193795,0.001774403348766578,0.012169666723521077,0.034466246504736085,0.05388229863860285,0.0055524666563169615
0.228569,0.016189805134394566,0.015650038226793873,0.012569537716057583,0.001778083289529093,0.012075885558541812,0.03452932455498625,0.053848203241426106,0.005440549981501842
0.2290345,0.016128250279868292,0.015625989354826668,0.012620373042532041,0.0017819107957038397,0.011982195192719812,0.034590732447864286,0.053811596415619355,0.005330236677444318
0.2295,0.016065876641971163,0.01560086483170315,0.012675873338905222,0.0017858807931110815,0.01188861386346022,0.03465046599209872,0.053772498450974524,0.005221530158956854
0.2299655,0.016002693984587663,0.015574672075058261,0.01273604092717999,0.0017899884204963942,0.011795159765373079,0.034708521302817846,0.053730930069464965,0.0051144334888722715
0.230431,0.01593871217724163,0.015547418698622967,0.012800877087144164,0.0017942290307527433,0.01170185104392203,0.03476489480136862,0.05368691241652354,0.005008949379563378
0.2308966,0.015873941193360407,0.015519112509071734,0.012870382051667701,0.0017985981920756542,0.011608705789086205,0.03481958321514839,0.05364046705234877,0.004905080194548696
0.2313621,0.01580839110852798,0.015489761502844583,0.012944555002229276,0.00180309168905141,0.01151574202903938,0.034872583577450204,0.05359161594324494,0.004802827950182809
0.2318276,0.015742072098726884,0.015459373862944185,0.013023394064674542,0.0018077055236782103,0.011422977723850402,0.034923893227322346,0.053540381453001815,0.00470219431742984
0.2322931,0.01567499443856877,0.015427957955708489,0.013106896305208374,0.0018124359163202244,0.011330430759208894,0.034973509809442506,0.05348678633431939,0.00460318062371864
0.2327586,0.01560716849951342,0.015395522327559214,0.01319505772662339,0.0018172793065944694,0.011238118940180022,0.03502143127400669,0.053430853720283084,0.004505787854878313
0.2332241,0.01553860474807605,0.015362075701726633,0.013287873264767056,0.0018222323541904578,0.011146059984992145,0.035067655876633,0.05337260711589434,0.004410016657152733
0.2336897,0.015469313744022738,0.015327626974950995,0.013385336785249637,0.001827291939622549,0.011054271518861016,0.03511218217827995,0.053312070389661737,0.004315867339292774
0.2341552,0.015399306138553864,0.015292185214161109,0.01348744108039524,0.0018324551649149525,0.010962771067854182,0.03515500904517906,0.05324926776525746,0.0042233398747249535
0.2346207,0.01532859267247556,0.015255759653130531,0.013594177866438148,0.0018377193542193318,0.010871576052799122,0.0351961356487809,0.05318422381324373,0.004132433903795246
0.2350862,0.015257184174359313,0.015218359689111952,0.013705537780966556,0.0018430820543649733,0.010780703783238615,0.035235561465714174,0.053116963442873734,0.004043148736086779
0.2355517,0.015185091558690028,0.015179994879450322,0.013821510380615848,0.001848541035341498,0.010690171451436706,0.03527328627775683,0.05304751189397128,0.003955483352810165
0.2360172,0.015112325824002838,0.015140674938175334,0.013942084139013496,0.0018540942907141098,0.01059999612643861,0.03530931017181857,0.05297589472889344,0.0038694364092651933
0.2364828,0.015038898051009041,0.015100409732573981,0.014067246444977645,0.0018597400379714074,0.010510194748187814,0.03534363353993366,0.052902137824579906,0.003785006237372624
0.2369483,0.014964819400711468,0.015059209279743989,0.014196983600971496,0.0018654767188058098,0.010420784121703525,0.035376257079263174,0.052826267364692786,0.0037021908482748225
0.2374138,0.014890101112509633,0.015017083743129038,0.014331280821815466,0.0018713029993266735,0.010331780911321593,0.035407181792105225,0.05274830983185007,0.0036209879350039436
0.2378793,0.014814754502295044,0.014974043429036688,0.014470122233659163,0.001877217770206211,0.010243201635001949,0.035436408985911785,0.05266829199995589,0.003541394875216384
0.2383448,0.014738790960536999,0.014930098783139934,0.014613490873215134,0.0018832201467583478,0.010155062658705487,0.0354639402733103,0.052586240926630314,0.0034634087339921677
0.2388103,0.014662221950359171,0.01488526038696336,0.014761368687256284,0.0018893094689506806,0.010067380190843292,0.035489777572128,0.052502183945741104,0.0033870262666979268
0.2392759,0.014585059005607182,0.01483953895435468,0.014913736532378805,0.0018954853013497168,0.009980170276801004,0.03551392310541662,0.05241614866003985,0.0033122439219121194
0.2397414,0.014507313728907439,0.014792945327942477,0.015070574175032528,0.0019017474329996007,0.009893448793541086,0.035536379401474895,0.05232816293390441,0.0032390578444111166
0.2402069,0.01442899778971733,0.014745490475580875,0.015231860291820692,0.0019080958772345429,0.009807231444285606,0.03555714929386585,0.0522382548861895,0.0031674638782147706
0.2406724,0.014350122922366917,0.014697185486781823,0.015397572470071222,0.0019145308714251933,0.009721533753282146,0.0355762359214259,0.05214645288318683,0.0030974575696900795
0.2411379,0.014270700924092179,0.014648041569135677,0.01556768720868174,0.0019210528766592163,0.009636371060655324,0.03559364272826232,0.052052785531695955,0.003029034170711553
0.2416034,0.01419074365305981,0.014598070044720794,0.015742179919240644,0.0019276625773563371,0.009551758517346349,0.035609373463736056,0.05195728167220663,0.0029621886418768582
0.242069,0.014110263026383487,0.014547282346502901,0.015921024927426614,0.001934360880818148,0.009467711080142945,0.035623432182426154,0.051859970372193226,0.0028969156557763277
0.2425345,0.014029271018131522,0.014495690014725181,0.016104195474689005,0.0019411489167129505,0.009384243506801908,0.03563582324407243,0.05176088091952136,0.0028332096003149026
0.243,0.013947779657325814,0.014443304693290176,0.016291663720211583,0.0019480280364959203,0.009301370351266464,0.03564655131349262,0.051660042815966395,0.002771064582085105
0.2434655,0.013865801025932089,0.014390138126134665,0.01648340074316208,0.00195499981276487,0.009219105958980508,0.03565562136047009,0.05155748577084324,0.002710474429789626
0.243931,0.013783347256841508,0.014336202153598826,0.016679376545230117,0.0019620660385518992,0.009137464462301743,0.03566303865960797,0.051453239694746106,0.002651432697712134
0.2443966,0.013700430531843876,0.014281508708790917,0.016879560053455905,0.0019692287265512323,0.00905645977601562,0.035668808790145355,0.05134733469339688,0.002593932669234926
0.2448621,0.013617063079592725,0.014226069813948765,0.017083919123352123,0.0019764901082835813,0.008976105592951944,0.03567293763573159,0.051239801061600025,0.0025379673604020154
0.2453276,0.013533257173562631,0.014169897576799142,0.01729242054232124,0.0019838526331974085,0.00889641537970591,0.035675431384154375,0.051130669277301456,0.002483529523526275
0.2457931,0.013449025129999114,0.014113004186916096,0.017505030033370454,0.0019913189677075033,0.008817402372465241,0.03567629652701816,0.05101996999574864,0.002430611650839204
0.2462586,0.013364379305861377,0.014055401912079256,0.017721712259126315,0.0019988919941713343,0.008739079572945068,0.03567553985936893,0.05090773404374834,0.002379205978181898
0.2467241,0.013279332096758209,0.013997103094633033,0.017942430826151053,0.0020065748098036813,0.008661459744432085,0.03567316847926197,0.05079399241401842,0.0023293044887357627
0.2471897,0.013193895934877378,0.013938120147847621,0.018167148289562434,0.00201437072553009,0.008584555407939447,0.03566918978726909,0.0506787762596296,0.002280898916791515
0.2476552,0.013108083286908925,0.013878465552282648,0.018395826157958938,0.0020222832647797517,0.00850837883847381,0.0356636114859217,0.05056211688853269,0.002233980751554994
0.2481207,0.01302190665196292,0.013818151852154214,0.01862842489865189,0.002030316162218448,0.008432942061415854,0.03565644157908622,0.05044404575816669,0.002188541240988319
0.2485862,0.012935378559482248,0.01375719165170607,0.01886490394320601,0.002038473362422263,0.00835825684901553,0.035647688371268256,0.05032459447014305,0.0021445713956849506
0.2490517,0.012848511567151201,0.013695597611585644,0.01910522169328973,0.002046759018492789,0.008284334717003244,0.03563736046684178,0.05020379476500137,0.0021020619927772186
0.2495172,0.012761318258800603,0.013633382445225722,0.01934933552683645,0.0020551774906145954,0.008211186921318087,0.035625466769199594,0.05008167851703131,0.0020610035798749285
0.2499828,0.01267381124231033,0.01357055891523273,0.019597201804517763,0.002063733344555766,0.008138824454954164,0.03561201647982095,0.04995827772915577,0.002021386479033667
0.2504483,0.012586003147510042,0.013507139829782694,0.019848775876529525,0.002072431350112308,0.00806725804492603,0.03559701909725231,0.049833624527870185,0.0019832007907514384
0.2509138,0.012497906624078977,0.01344313803902614,0.02010401208969153,0.0020812764794972682,0.007996498149354112,0.035580484415997184,0.049707751158232436,0.0019464363979922801
0.2513793,0.012409534339445591,0.013378566431503211,0.020362863794861342,0.0020902739056753933,0.007926554954670968,0.035562422525311096,0.049580689978898265,0.0019110829702354908
0.2518448,0.012320898976687821,0.013313437930570325,0.020625283354662755,0.002099429000644159,0.007857438372949168,0.035542843807898065,0.049452473457196916,0.0018771299675491091
0.2523103,0.012232013232434629,0.013247765490839775,0.020891222151529176,0.0021087473336619945,0.0077891580393514865,0.03552175893850536,0.049323134164241715,0.0018445666446862594
0.2527759,0.012142889814769447,0.013181562094633689,0.021160630596062102,0.0021182346694245055,0.007721723309704031,0.03549917888241345,0.049192704770070525,0.0018133820552029812
0.2532414,0.012053541441136155,0.013114840748453918,0.021433458135704686,0.002127896966189493,0.007655143258192873,0.035475114893818216,0.04906121803881113,0.001783565055596153
0.2537069,0.011963980836248184,0.013047614479469633,0.02170965326373021,0.0021377403738515447,0.007589426675184677,0.03544957851410238,0.048928706823866616,0.0017551043094601111
0.2541724,0.011874220730001356,0.012979896332024511,0.021989163528545217,0.0021477712319669475,0.007524582065171766,0.03542258156999311,0.04879520406311594,0.001727988291660569
0.2546379,0.011784273855391086,0.012911699364165594,0.02227193554330678,0.002157996067729688,0.007460617644841981,0.03539413617160256,0.04866074277412487,0.0017022052925244368
0.2551034,0.011694152946434631,0.012843036644196023,0.022557914995853447,0.002168421593899258,0.007397541341273645,0.03536425471034798,0.048525356049362936,0.0016777434220441457
0.255569,0.011603870736099016,0.012773921247253829,0.022847046658949134,0.0021790547066809995,0.007335360790255879,0.035332949856748105,0.048389077051422175,0.001654590614095095
0.2560345,0.011513439954235321,0.012704366251919019,0.023139274400839207,0.002189902483559702,0.00727408333473446,0.03530023455809237,0.04825193900823334,0.0016327346306648563
0.2565,0.011422873325520043,0.01263438473685101,0.023434541196118045,0.002200972181087158,0.007213716023383373,0.03526612203597963,0.04811397520827548,0.0016121630660927977
0.2569655,0.011332183567404223,0.012563989777458495,0.023732789136907195,0.0022122712326243647,0.0071542656093020966,0.03523062578372332,0.0479752189957742,0.001592863351318803
0.257431,0.011241383388071029,0.012493194442603618,0.024033959444343226,0.002223807246039043,0.0070957385488387,0.035193759563620274,0.04783570376588396,0.0015748227581397906
0.2578966,0.011150485484402457,0.012422011791342334,0.02433799248037442,0.002235588001359136,0.007038141000538692,0.035155537404081276,0.04769546295984994,0.0015580284034727413
0.2583621,0.011059502539955824,0.012350454869702642,0.02464482775986531,0.002247621448382921,0.006981478824219536,0.03511597359662167,0.047554530060144776,0.0015424672536229734
0.2588276,0.010968447222950591,0.012278536707502315,0.02495440396300802,0.002259915704246359,0.006925757580170721,0.035075082692711326,0.0474129385855766,0.0015281261285564212
0.2592931,0.010877332184266085,0.012206270315207643,0.025266658948039353,0.002272479050948294,0.00687098252847918,0.03503287950048344,0.04727072208636485,0.0015149917061747097
0.2597586,0.010786170055450534,0.012133668680834604,0.025581529764262412,0.0022853199328340883,0.0068171586284798335,0.03498937908130213,0.04712791413918083,0.0015030505265918623
0.2602241,0.01069497344674184,0.012060744766893769,0.025898952665371535,0.0022984469540382655,0.006764290538330961,0.034944596746189105,0.04698454834215094,0.0014922889964114965
0.2606897,0.010603754945100363,0.011987511507380177,0.026218863123079143,0.0023118688758867276,0.006712382614714041,0.03489854805211002,0.04684065830982033,0.0014826933930033915
0.2611552,0.010512527112253981,0.01191398180480929,0.026541195841043162,0.002325594614259085,0.006661438912657675,0.03485124879812148,0.04669627766807598,0.0014742498687783123
0.2616207,0.010421302482755527,0.01184016852730004,0.026865884769093466,0.002339633236911633,0.006611463185485129,0.034802715021380375,0.04655144004902793,0.0014669444554600043
0.2620862,0.010330093562052663,0.011766084505705869,0.02719286311775579,0.0023539939607615,0.006562458884885011,0.034752962993018034,0.04640617908584822,0.0014607630683533019
0.2625517,0.010238912824570207,0.011691742530794589,0.027522063373071667,0.0023686861491324716,0.006514429161104478,0.03470200921388228,0.046260528407566816,0.0014556915106073288
0.2630172,0.010147772711804752,0.01161715535047775,0.027853417311712775,0.0023837193089629944,0.006467376863264379,0.03464987041015081,0.04611452163382372,0.0014517154774728318
0.2634828,0.010056685630431416,0.011542335667090174,0.028186856016388023,0.002399103087976842,0.006421304539795653,0.03459656352881969,0.04596819236957687,0.001448820560552717
0.2639483,0.009965663950422416,0.011467296134720154,0.02852230989154158,0.002414847271816938,0.006376214438996246,0.0345421057330707,0.04582157419976463,0.0014469922520448921
0.2644138,0.009874720003177125,0.01139204935659083,0.028859708679339843,0.0024309617811428,0.006332108509707735,0.03448651439752138,0.04567470068392233,0.0014462159489765246
0.2648793,0.009783866079663195,0.01131660788249308,0.029198981475945233,0.002447456668692104,0.0062889884021108235,0.03442980710336193,0.04552760535075229,0.0014464769574288414
0.2653448,0.009693114428568243,0.011240984206270222,0.0295400567480745,0.0024643421163068353,0.006246855468638799,0.03437200163338285,0.045380321692647385,0.001447760496751578
0.2658103,0.00960247725446157,0.011165190763354748,0.02988286234983908,0.0024816284319245227,0.00620571076500798,0.03431311596689759,0.04523288316016801,0.001450051703766185
0.2662759,0.009511966715965298,0.011089239928357227,0.03022732553986481,0.0024993260465350415,0.0061655550513641565,0.034253168274564254,0.04508532315647295,0.0014533356369568974
0.2667414,0.009421594923934332,0.011013144012707435,0.030573372998688227,0.0025174455111034765,0.006126388793543923,0.03419217691311087,0.04493767503170465,0.001457597280648751
0.2672069,0.00933137393964452,0.010936915262347642,0.03092093084642653,0.0025359974934595366,0.0060882121644498,0.03413016041996831,0.044789972077329744,0.0014628215491716366
0.2676724,0.009241315772988382,0.010860565855477981,0.031269924660717874,0.002554992775154008,0.006051025045537944,0.034067137507815266,0.04464224752043566,0.0014689932910094711
0.2681379,0.009151432380677784,0.010784107900353687,0.03162027949492882,0.0025744422482827183,0.006014827028417228,0.0340031270590395,0.044494534517984526,0.001476097292933557
0.2686034,0.009061735664452907,0.010707553433133935,0.031971919896625206,0.0025943569122784814,0.005979617416558396,0.03393814812011954,0.04434686615102509,0.0014841182841191963
0.269069,0.00897223746929679,0.01063091441578192,0.03232476992630274,0.002614747870671492,0.005945395227111947,0.03387221989593104,0.04419927541886369,0.001493040940244618
0.2695345,0.008882949581654703,0.01055420273401575,0.032678753176373296,0.0026356263278186254,0.005912159192833364,0.03380536174398165,0.044051795233195225,0.0015028498875712803
0.27,0.008793883727657591,0.01047743019530963,0.03303379279040261,0.0026570035856021,0.0058799077641142295,0.033737593168578446,0.043904458412195216,0.0015135297070046055
0.2704655,0.008705051571348753,0.010400608526944771,0.03338981148259497,0.0026788910400979728,0.005848639111117738,0.0336689338149314,0.04375729767457432,0.0015250649381342157
0.270931,0.008616464712912898,0.010323749374109409,0.033746731557520025,0.0027013001782149318,0.005818351126017049,0.03359940346319688,0.043610345633596524,0.0015374400832527282
0.2713966,0.008528134686906741,0.010246864298047298,0.0341044749300767,0.0027242425743038818,0.005789041425334884,0.033529022022465084,0.04346363479106274,0.001550639611352183
0.2718621,0.00844007296049033,0.010169964774254059,0.03446296314568877,0.0027477298867388095,0.005760707352382751,0.03345780952469563,0.04331719753126145,0.001564647962097169
0.2723276,0.008352290931658358,0.010093062190720729,0.03482211740072665,0.0027717738544694465,0.005733345979798092,0.03338578611860576,0.043171066114888336,0.0015794495497737239
0.2727931,0.008264799927470843,0.010016167846223983,0.03518185856314934,0.0027963862935462516,0.005706954112177622,0.03331297206351586,0.043025272672936606,0.0015950287672130885
0.2732586,0.008177611202282654,0.009939292948662394,0.03554210719336038,0.002821579093618245,0.005681528288805109,0.03323938772315686,0.04287984920056017,0.001611369989689428
0.2737241,0.008090735935971554,0.009862448613438208,0.03590278356527142,0.0028473642144042385,0.00565706478647178,0.03316505355944386,0.042734827550911444,0.0016284575787906487
0.2741897,0.008004185232164547,0.00978564586188403,0.036263807687566686,0.002873753682138025,0.005633559622387516,0.03308999012622037,0.04259023942895549,0.0016462758862614767
0.2746552,0.007917970116462444,0.009708895619733912,0.036625099325161226,0.0029007595859880837,0.005611008557180947,0.03301421806297703,0.04244611638526216,0.0016648092578179785
0.2751207,0.007832101534662638,0.00963220871563827,0.03698657802084576,0.002928394074452383,0.005589407097986533,0.03293775808854868,0.04230248980977755,0.0016840420369327249
0.2755862,0.007746590350980132,0.009555595879722087,0.03734816311711052,0.0029566693517288595,0.0055687505016166735,0.03286063099479321,0.0421593909255762,0.0017039585685898102
0.2760517,0.007661447346266897,0.009479067742185815,0.03770977377814019,0.0029855976740621602,0.005549033777816868,0.032782857640255396,0.04201685078259546,0.0017245432030089502
0.2765172,0.0075766832162297,0.0094026348319484,0.03807132901197195,0.0030151913460672547,0.005530251692601893,0.032704458943818786,0.04187490025135344,0.001745780299337893
0.2769828,0.007492308569646665,0.009326307575331767,0.03843274769280806,0.0030454627170305357,0.0055123987716709415,0.03262545587834848,0.04173357001665181,0.0017676542293123781
0.2774483,0.007408333926582957,0.009250096294786118,0.038793948583474465,0.0030764241771890554,0.005495469303899634,0.0325458694643275,0.0415928905712652,0.0017901493808828795
0.2779138,0.007324769716606085,0.009174011207655415,0.039154850358016406,0.003108088153988538,0.005479457344906771,0.032465720763489414,0.0414528922096184,0.0018132501618073596
0.2783793,0.007241626277001524,0.009098062424982454,0.039515371624421744,0.003140467108320847,0.005464356720693652,0.03238503087245014,0.041313605021452975,0.0018369410032092629
0.2788448,0.007158913850989386,0.00902225995035306,0.03987543094746249,0.003173573530741575,0.005450161031353766,0.03230382091634149,0.041175058885485005,0.0018612063630999824
0.2793103,0.0070766425859429905,0.00894661367877897,0.0402349468716446,0.0032074199376684277,0.0054368636548505905,0.03222211204244945,0.04103728346305542,0.00188603072986505
0.2797759,0.006994822531610216,0.008871133395619115,0.040593837944255855,0.003242018867561076,0.005424457750861229,0.03213992541385982,0.040900308191775016,0.0019113986257133357
0.2802414,0.006913463638338582,0.00879582877553893,0.04095202273850142,0.003277382877083135,0.005412936264683528,0.032057282203113914,0.04076416227916621,0.0019372946100885845
0.2807069,0.006832575755305073,0.008720709381507413,0.04130941987671633,0.003313524537246918,0.00540229193120431,0.03197420358587658,0.04062887469630414,0.0019637032830426716
0.2811724,0.00675216862875175,0.008645784663831558,0.041665948053644035,0.0033504564295416296,0.005392517278926284,0.03189071073461906,0.04049447417146,0.0019906092885700003
0.2816379,0.006672251900228214,0.008571063959227737,0.04202152605976964,0.003388191142045666,0.005383604634051178,0.03180682481231877,0.04036098918374962,0.0020179973179025156
0.2821034,0.006592835104842013,0.008496556489929545,0.042376072804696414,0.0034267412655237177,0.005375546124616572,0.031722566966178464,0.04022844795679056,0.002045852112764832
0.282569,0.006513927669518048,0.008422271362831536,0.04272950734055376,0.003466119389509405,0.005368333684683891,0.03163795832136709,0.04009687845237093,0.002074158468589007
0.2830345,0.0064355389112680204,0.008348217568668262,0.04308174888542455,0.0035063380983742128,0.00536195905857496,0.03155301997478506,0.039966308364133056,0.0021029012376885103
0.2835,0.006357678035470892,0.008274403981227977,0.04343271684677939,0.003547409967383531,0.005356413805154504,0.03146777298885656,0.039836765111275,0.0021320653323909527
0.2839655,0.0062803541341653404,0.0082008393566003,0.04378233084490515,0.0035893475587406576,0.005351689302155939,0.031382238385351834,0.03970827583227296,0.0021616357281291493
0.284431,0.0062035761843550995,0.008127532332457114,0.04413051073631464,0.003632163417619657,0.005347776750547803,0.0312964371392424,0.03958086737862754,0.002191597466490096
0.2848966,0.006127353046328076,0.008054491427366006,0.04447717663712407,0.003675870068188032,0.005344667178938103,0.031210390172592247,0.0394545663086369,0.0022219356582214383
0.2853621,0.006051693461990072,0.00798172504013549,0.04482224894638454,0.0037204800096202,0.005342351448013883,0.031124118348488217,0.039329398881199844,0.002252635486195023
0.2858276,0.005976606053213927,0.007909241449191374,0.04516564836935364,0.00376600571210281,0.005340820255013258,0.031037642465012658,0.039205391049651934,0.0022836822083271333
0.2862931,0.005902099320204842,0.007837048811983566,0.045507295940692985,0.0038124596128329712,0.005340064138227174,0.030950983249261408,0.03908256845563794,0.0023150611604550032
0.2867586,0.005828181639882618,0.007765155164422709,0.04584711304757773,0.003859854112010517,0.0053400734815281315,0.030864161351409947,0.03896095642302391,0.0023467577591692037
0.2872241,0.005754861264281489,0.007693568420345976,0.04618502145270354,0.003908201568825462,0.005340838518923091,0.0307771973388304,0.03884057995185248,0.0023787575046015016
0.2876897,0.005682146318968213,0.007622296371011493,0.046520943317177314,0.003957514297441862,0.005342349339127783,0.030690111690261864,0.038721463712345104,0.002411045983167797
0.2881552,0.005610044801479088,0.007551346684620935,0.04685480122327757,0.004007804562979317,0.0053445958901596315,0.030602924790036398,0.038603632038954803,0.0024436088702657352
0.2886207,0.005538564579776517,0.007480726905869978,0.0471865181970712,0.0040590845774933935,0.00534756798394649,0.03051565692236293,0.03848710892447291,0.002476431932926599
0.2890862,0.005467713390725823,0.007410444455526431,0.04751601773087326,0.00411136649595625,0.0053512553009483835,0.030428328265671198,0.03837191801419315,0.002509501032421068
0.2895517,0.0053974988385929795,0.007340506630035984,0.047843223805537134,0.004164662412238747,0.005355647394789457,0.030340958887017672,0.03825808260013639,0.00254280212681845
0.2900172,0.005327928393563978,0.0072709206011555404,0.04816806091256302,0.004218984355095322,0.005360733696897328,0.030253568736555252,0.038145625615338956,0.0025763212734989873
0.2904828,0.00525900939028652,0.007201693415614177,0.04849045407601315,0.004274344284152875,0.005366503521147002,0.030166177642068272,0.03803456962820793,0.002610044631618863
0.2909483,0.005190749026434734,0.007132831994801687,0.048810328874223076,0.004330754085904886,0.005372946068506563,0.03007880530357413,0.037924936836946706,0.002643958464527562
0.2914138,0.00512315436129758,0.007064343134484698,0.049127611461298834,0.004388225569711977,0.005380050431681799,0.029991471287992736,0.03781674906405471,0.0026780491421372625
0.2918793,0.00505623231439158,0.006996233504550282,0.049442228588390535,0.004446770463810063,0.005387805599756948,0.029904195023884673,0.03771002775090534,0.0027123031432439723
0.2923448,0.004989989664098496,0.006928509648776958,0.04975410762473301,0.004506400411327229,0.005396200462828746,0.029816995796258884,0.03760479395240706,0.002746707057800137
0.2928103,0.004924433046328532,0.0068611779846329225,0.05006317657844441,0.004567126966310477,0.005405223816630939,0.029729892741450357,0.037501068331752714,0.002781247589138488
0.2932759,0.004859568953209645,0.006794244803101328,0.05036936411707361,0.00462896158976345,0.0054148643671464314,0.029642904842068177,0.03739887115526219,0.002815911556146889
0.2937414,0.004795403731803496,0.006727716268532371,0.05067259958788689,0.004691915645696259,0.005425110735204241,0.02955605092201409,0.03729822228732355,0.002850685895393978
0.2942069,0.004731943582848606,0.006661598418521946,0.050972813037884625,0.004756000397188558,0.00543595146105842,0.029469349641571572,0.037199141185437615,0.0028855576632053816
0.2946724,0.004669194559531273,0.0065958971638165565,0.051269935233538726,0.004821227002466993,0.005447375008946106,0.029382819492565177,0.03710164689537074,0.002920514037690295
0.2951379,0.004607162566284818,0.006530618288244154,0.05156389768024217,0.004887606510998199,0.005459369771621851,0.029296478793589993,0.037005758046420555,0.0029555423207182556
0.2956034,0.004545853357617741,0.006465767448670543,0.05185463264146257,0.004955149859598509,0.005471924074865406,0.02921034568531087,0.03691149284679921,0.0029906299398459405
0.296069,0.004485272536971326,0.00640135017498097,0.052142073157592304,0.005023867868561578,0.005485026181960085,0.029124438125831063,0.03681886907913856,0.0030257644501938455
0.2965345,0.004425425555607238,0.006337371870086494,0.05242615306448842,0.005093771237805145,0.005498664298138878,0.02903877388612987,0.03672790409612195,0.003060933536272744
0.297,0.004366317711525605,0.006273837809954765,0.052706807011695264,0.005164870543038195,0.0055128265749954716,0.028953370545568655,0.03663861481624698,0.0030961250137598395
0.2974655,0.004307954148414034,0.006210753143664815,0.052983970480343236,0.005237176231949799,0.0055275011148573075,0.028868245487464826,0.036551017719723744,0.003131326831224559
0.297931,0.004250339854627993,0.006148122893485571,0.05325757980071683,0.005310698620420934,0.00554267597511784,0.028783415894733086,0.03646512884451312,0.0031665270718039366
0.2983966,0.004193479662202929,0.006085951954977892,0.053527572169485164,0.005385447888760632,0.005558339172525146,0.028698898745593265,0.036380963782509664,0.003201713954827544
0.2988621,0.004137378245898487,0.0060242450971200396,0.05379388566658826,0.005461434077967804,0.005574478687424044,0.028614710809343972,0.03629853767587339,0.0032368758373919142
0.2993276,0.00408204012227515,0.00596300696245659,0.054056459271772495,0.0055386670860201595,0.005591082467948953,0.028530868642201335,0.03621786521351453,0.0032720012158844233
0.2997931,0.0040274696488035834,0.0059022420672708775,0.05431523288076879,0.005617156664191583,0.0056081384341647444,0.028447388583202053,0.036138960627735146,0.0033070787274566043
0.3002586,0.003973671023006966,0.005841954801781107,0.05457014732110827,0.0056969124133994424,0.005625634482152918,0.028364286750170036,0.03606183769103113,0.003342097151446876
0.3007241,0.00392064828163655,0.005782149430360321,0.054821144367570934,0.005777943780583219,0.005643558488040508,0.028281579035746133,0.03598650971305772,0.0033770454107526987
0.3011897,0.003868405299880668,0.005722830091780413,0.05506816675726384,0.005860260055115882,0.005661898311969173,0.028199281103480616,0.03591298953776158,0.0034119125731521737
0.3016552,0.003816945790607396,0.005664000799480382,0.05531115820432678,0.005943870365249402,0.005680641802002074,0.02811740838398869,0.03584128954068184,0.0034466878525751354
0.3021207,0.003766273303641055,0.005605665441859024,0.0555500634142639,0.006028783674595776,0.005699776797966216,0.028035976071169623,0.03577142162642247,0.0034813606103238043
0.3025862,0.0037163912250727546,0.005547827782592262,0.05578482809789987,0.006115008778644879,0.005719291135228056,0.027954999118490306,0.03570339722629798,0.0035159203562430586
0.3030517,0.0036673027766051455,0.0054904914609752616,0.05601539898495983,0.006202554301320432,0.005739172648400277,0.027874492235334412,0.035637227296154046,0.0035503567498404104
0.3035172,0.0036190110149315695,0.005433659992289501,0.056241723837271704,0.006291428691575332,0.005759409174977672,0.027794469883418334,0.03557292231436436,0.0035846596013557747
0.3039828,0.003571518831149779,0.005377336768194915,0.05646375146158965,0.006381640220027524,0.005779988558900241,0.027714946273275476,0.035510492280004746,0.003618818872781132
0.3044483,0.0035248289502104084,0.005321525057147248,0.05668143172203721,0.006473196975637595,0.005800898654041782,0.027635935360810757,0.03544994671120531,0.0036528246788301915
0.3049138,0.0034789439304003964,0.005266228004840731,0.05689471555216911,0.0065661068624292135,0.005822127327622562,0.027557450843927554,0.03539129464368099,0.0036866672878581794
0.3053793,0.0034338661628615596,0.005211448634676142,0.05710355496665044,0.006660377596253523,0.0058436624635449935,0.02747950615922974,0.035334544629440606,0.003720337122731899
0.3058448,0.003389597871144548,0.0051571898482543664,0.0573079030725527,0.006756016701598583,0.005865491965651768,0.027402114478801646,0.035279704735674336,0.0037538247616502292
0.3063103,0.003346141110798399,0.005103454425895458,0.057507714080266004,0.006853031508444929,0.005887603760906326,0.027325288707069018,0.03522678254381896,0.0037871209389152526
0.3067759,0.0033034977689959354,0.005050245027183241,0.05770294331402732,0.006951429149168312,0.00590998580249595,0.02724904147774415,0.0351757851488002,0.0038202165456542457
0.3072414,0.0032616695641952383,0.004997564191535401,0.05789354722206438,0.007051216555490658,0.005932626072858096,0.02717338515085829,0.03512671915845095,0.0038531026304927745
0.3077069,0.003220658045837448,0.0049454143387990005,0.05807948338635504,0.007152400455480291,0.005955512586630716,0.02709833180988426,0.03507959069310402,0.003885770400179167
0.3081724,0.003180464594081122,0.004893797769871312,0.058260710532001825,0.007254987370602415,0.005978633393527533,0.027023893258952325,0.03503440538535771,0.003918211220160644
0.3086379,0.0031410904195733817,0.004842716667345826,0.05843718853622081,0.007358983612820808,0.00600197658113937,0.026950081020162095,0.034991168380012067,0.003950416615111387
0.3091034,0.003102536563258073,0.0047921730961832726,0.058608878436944095,0.007464395281751658,0.00602553027766288,0.026876906330993492,0.03494988433417361,0.003982378269412827
0.309569,0.003064803896221123,0.004742169004407458,0.05877574244103456,0.007571228261870385,0.006049282654558174,0.026804380141819607,0.03491055741752583,0.004014088027586393
0.3100345,0.0030278931195732886,0.004692706223825714,0.05893774393211175,0.00767948821977228,0.006073221929137002,0.026732513113524335,0.03487319131276249,0.0040455378946789855
0.3105,0.0029918047643704413,0.004643786470773717,0.05909484747798757,0.007789180601487699,0.006097336367083222,0.0266613156152276,0.034837789216180665,0.004076720036601377
0.3109655,0.0029565391915715453,0.004595411346884406,0.05924701883771112,0.007900310629852523,0.006121614284907288,0.026590797722120793,0.034804353838429905,0.004107626780419767
0.311431,0.002922096592034438,0.004547582339880687,0.05939422496822165,0.008012883301934571,0.00614604405233652,0.0265209692134149,0.03477288740541397,0.004138250614600678
0.3118966,0.00288847698654953,0.004500300824391584,0.05953643403060958,0.008126903386516584,0.006170614094642898,0.026451839570403608,0.03474339165934109,0.004168584189209414
0.3123621,0.002855680225911507,0.004453568062791495,0.05967361539598558,0.008242375421636366,0.0061953128949100555,0.026383417974643573,0.03471586785991878,0.004198620316062271
0.3128276,0.0028237059910290983,0.004407385206062126,0.05980573965095813,0.008359303712184664,0.006220128996241206,0.026315713306253628,0.03469031678568886,0.004228351968832739
0.3132931,0.002792553793072987,0.004361753294676734,0.05993277860272031,0.008477692327561298,0.006245051003909673,0.026248734142334626,0.03466673873549825,0.004257772283111923
0.3137586,0.0027622229736619106,0.004316673259506226,0.06005470528374688,0.008597545099390098,0.006270067587453693,0.02618248875551143,0.03464513353010104,0.00428687455642345
0.3142241,0.0027327127050869927,0.004272145922746682,0.06017149395610294,0.008718865619293132,0.0062951674827171795,0.026116985112598193,0.03462550051388716,0.004315652248193143
0.3146897,0.00270402199057434,0.004228171998867804,0.06028312011536555,0.00884165723672472,0.0063203394938380515,0.026052230873388038,0.034607838556732634,0.0043440989796737686
0.3151552,0.0026761496645859185,0.004184752095581793,0.06038956049416004,0.008965923056865662,0.0063455724951857785,0.02598823338956801,0.03459214605596656,0.0043722085338252165
0.3156207,0.0026490943931587194,0.004141886714832126,0.06049079306531237,0.009091665938578066,0.006370855433249716,0.02592499970375991,0.03457842093844951,0.004399974855150479
0.3160862,0.0026228546742822142,0.004099576253801654,0.06058679704461935,0.0092188884924211,0.006396177328479817,0.02586253654868771,0.034566660662758576,0.004427392049487856
