Time,Rectus Femoris right,Rectus Femoris left,Hamstrings right,Hamstrings left,TibilaisÂ Anterior right,TibilaisÂ Anterior left,Gastrocnemius right,Gastrocnemius left
0.0,0.0288883282379506,-0.0020129922315162215,0.10500792678376666,0.008802743368048788,-0.049726297696574905,-0.008796483317595425,-0.13732551036422888,-0.0070736145907026255
0.0004655,0.028947983047270386,-0.0018160245607526662,0.10532510883673968,0.008839759045262073,-0.04632787359422167,-0.00842089864286973,-0.13363503374833566,-0.006769384420109322
0.000931,0.02900629001430768,-0.0016196152875340478,0.10563698258687071,0.008876043809500966,-0.04294426383182411,-0.008045513594428427,-0.1299588584268231,-0.0064654082895102966
0.0013966,0.02906322690986245,-0.0014237907053164063,0.10594344259275063,0.008911587992576187,-0.03957601690610459,-0.007670379457300538,-0.1262975169796585,-0.006161726902198866
0.0018621,0.029118771771731552,-0.0012285769285318565,0.10624438425484325,0.008946382109589389,-0.03622367801781411,-0.007295547517133172,-0.12265153810457097,-0.005858380906461278
0.0023276,0.029172902915280758,-0.0010339998836630235,0.10653970385790375,0.008980416863528939,-0.03288778888314415,-0.006921069045487587,-0.11902144643866054,-0.005555410883378536
0.0027931,0.029225598944014674,-0.0008400853004037474,0.1068292986132996,0.009013683149818841,-0.029568887546249156,-0.006546995285174418,-0.11540776238187371,-0.005252857334701761
0.0032586,0.029276838760137754,-0.0006468587029123734,0.1071130667011971,0.009046172060817793,-0.026267508193000468,-0.006173377435638491,-0.11181100192246801,-0.0049507606708121465
0.0037241,0.029326601575099392,-0.0004543454011638052,0.1073909073125775,0.009077874890265326,-0.022984180966090458,-0.005800266638403374,-0.10823167646458727,-0.004649161198775686
0.0041897,0.02937486692011626,-0.0002625704824063254,0.10766272069104905,0.009108783137672027,-0.01971943178160267,-0.005427713962585305,-0.10467029265806588,-0.004348099110501797
0.0046552,0.02942161465666496,-7.155880272901119e-05,0.10792840817442248,0.009138888512650852,-0.01647378214716067,-0.00505577039048557,-0.10112735223057787,-0.004047614471013908
0.0051207,0.029466824986937992,0.00011866502125458075,0.1081878722360199,0.00916818293918651,-0.013247748981764562,-0.0046844868032697206,-0.09760335182224329,-0.003747747206839107
0.0055862,0.029510478464256116,0.00030807662060088954,0.10844101652568874,0.009196658559839966,-0.010041844437420297,-0.0043139139667413935,-0.09409878282280025,-0.0034485370945232094
0.0060517,0.02955255600343018,0.0004966518821034941,0.10868774591049339,0.009224307739885054,-0.006856575722662313,-0.0039441025172178385,-0.0906141312114462,-0.0031500237492770025
0.0065172,0.029593038891065338,0.0006843669562275127,0.10892796651505907,0.009251123071374276,-0.0036924449280657853,-0.003575102947513661,-0.08714987739944756,-0.0028522466137590194
0.0069828,0.029631908795800573,0.0008711982649059489,0.10916158576154274,0.00927709737713086,-0.0005499488538399277,-0.0032069655930388043,-0.08370649607561115,-0.0025552449469998413
0.0074483,0.029669147778476276,0.001057122509192811,0.10938851240920633,0.009302223714664137,0.0025704211604107036,-0.0028397406180163173,-0.08028445605470426,-0.0022590578134726136
0.0079138,0.029704738302222308,0.0012421166767679981,0.1096086565935676,0.009326495380005411,0.005668179403674526,-0.002473478001825012,-0.07688422012890529,-0.001963724072314102
0.0083793,0.02973866324245894,0.0014261580492891438,0.10982192986510306,0.00934990591146146,0.008742845959192806,-0.0021082275254717146,-0.07350624492236035,-0.001669282366700311
0.0088448,0.02977090589680267,0.001609224209585817,0.1100282452274774,0.009372449093282878,0.011793946867717228,-0.0017440387581973966,-0.07015098074891522,-0.0013757711133803381
0.0093103,0.02980144999486869,0.0017912930486917043,0.11022751717527365,0.009394118959244491,0.014821014288295194,-0.0013809610442210459,-0.06681887147308631,-0.0010832284923718914
0.0097759,0.029830279707961628,0.0019723427727105915,0.11041966173119835,0.009414909796135126,0.017823586656516524,-0.0010190434896247792,-0.06351035437432918,-0.0007916924368216876
0.0102414,0.029857379658645985,0.0021523519095121317,0.11060459648273596,0.009434816147153992,0.02080120884015846,-0.0006583349493833491,-0.060225860014657816,-0.0005012006230338306
0.0107069,0.029882734930187647,0.0023312993152535023,0.11078224061822775,0.009453832815210977,0.02375343229216886,-0.00029888401454094285,-0.0569658121096626,-0.00021179046066917295
0.0111724,0.029906331075857752,0.0025091641807231412,0.11095251496235055,0.009471954866128068,0.026679815200930213,5.9261000462021765e-05,-0.05373062740297082,7.650091688143559e-05
0.0116379,0.029928154128090443,0.002685926037502845,0.11111534201097106,0.00948917763173915,0.029579922637749254,0.00041605207030952305,-0.050520715544188806,0.0003636366619472613
0.0121034,0.029948190607486123,0.0028615647639446667,0.11127064596535285,0.009505496712885317,0.03245332670151941,0.000771441471175491,-0.047336478970360626,0.0006495802218486116
0.012569,0.029966427531652105,0.003036060590959256,0.11141835276569313,0.009520907982302788,0.03529960666050497,0.0011253817929318512,-0.04417831279097428,0.000934295347986281
0.0130345,0.029982852423872806,0.003209394107612576,0.11155839012396733,0.00953540758740051,0.03811834909119776,0.00147782595119665,-0.04104660467654268,0.001217746104747505
0.0135,0.029997453321601933,0.00338154626652825,0.11169068755606011,0.009548991952924404,0.04090914801419849,0.0018287271992198828,-0.03794173475078309,0.0014998968782266855
0.0139655,0.030010218784769397,0.0035524983890931282,0.11181517641316215,0.00956165778350521,0.04367160502707637,0.0021780391396046756,-0.03486407548641573,0.0017807123847593954
0.014431,0.03002113790389616,0.003722232170463953,0.1119317899124128,0.009573402066086766,0.04640532943416173,0.0025257157358615054,-0.03181399160459935,0.002060157679268387
0.0148966,0.030030200308010492,0.0038907296843732966,0.11204046316676955,0.009584222072231583,0.049109938373227094,0.0028717113237932074,-0.02879183997801922,0.002338198163420532
0.0153621,0.03003739617235972,0.0040579733877332,0.1121411332140857,0.009594115360300526,0.0517850569390131,0.0032159806227086067,-0.025797969537640814,0.002614799593593784
0.0158276,0.030042716225911665,0.004223946125035192,0.11223373904537882,0.00960307977750339,0.0544303183035557,0.0035584787464627505,-0.022832721183141003,0.002889928088653422
0.0162931,0.030046151758640824,0.004388631132545594,0.11231822163227309,0.009611113461817224,0.057045363833271724,0.003899161214321881,-0.019896427697027142,0.003163550137536923
0.0167586,0.030047694628594492,0.004552012042295247,0.11239452395360006,0.009618214843769192,0.05962984320275964,0.004237983961651429,-0.01698941366245362,0.0034356326066469324
0.0172241,0.030047337268734594,0.004714072885863036,0.11246259102114349,0.009624382648080927,0.06218341450527256,0.004574903350425443,-0.014111995384744754,0.0037061427470518825
0.0176897,0.030045072693551417,0.004874798097952709,0.11252236990451459,0.009629615895171388,0.06470574435982063,0.004909876179555946,-0.011264480816632208,0.003975048201493953
0.0181552,0.030040894505445892,0.005034172519762709,0.1125738097551458,0.009633913902515513,0.0671965080148595,0.0052428596950408225,-0.008447169487214605,0.004242317011204224
0.0186207,0.030034796900877365,0.005192181402148833,0.11261686182939251,0.009637276285856276,0.06965538944852184,0.00557381159992891,-0.00566035243464582,0.0045079176225250595
0.0190862,0.030026774676274213,0.005348810408579634,0.11265147951073277,0.00963970296026824,0.07208208146534838,0.0059026900641011015,-0.0029043121425575496,0.004771818893339865
0.0195517,0.03001682323370495,0.005504045617884572,0.11267761833105744,0.009641194141071192,0.07447628578947463,0.0062294537338663525,-0.00017932248022025976,0.005033990099310503
0.0200172,0.030004938586307647,0.00565787352679492,0.11269523599104322,0.009641750344592963,0.07683771315422908,0.006554061741371601,0.002514351353554901,0.005294400939922697
0.0204828,0.029991117363475702,0.005810281052277515,0.11270429237960333,0.009641372388781063,0.07916608338809844,0.006876473713824646,0.0051764528827723845,0.005553021544339866
0.0209483,0.029975356815798097,0.005961255533661345,0.1127047495924113,0.009640061393663107,0.08146112549701566,0.00719664978252913,0.007806734402867809,0.0058098224770658504
0.0214138,0.029957654819752204,0.006110784734557019,0.1126965719494944,0.00963781878165639,0.08372257774292684,0.007514550591730803,0.01040495702558593,0.006064774743417061
0.0218793,0.02993800988214728,0.006258856844569133,0.11267972601189506,0.009634646277727229,0.08595018771859425,0.007830137307274294,0.012970890720126374,0.006317849794804526
0.0223448,0.02991642114431667,0.0064054604808015635,0.11265418059739908,0.009630545909400866,0.08814371241859399,0.008143371625069621,0.015504314350564758,0.006569019533826377
0.0228103,0.02989288838605653,0.00655058468915578,0.11261990679533083,0.009625520006622899,0.09030291830646943,0.008454215779367747,0.018005015709559324,0.006818256319171302
0.0232759,0.029867412029308857,0.006694218945422315,0.11257687798041681,0.00961957120147324,0.09242758137800433,0.008762632550844503,0.020472791548355698,0.007065532970333656
0.0237414,0.029839993141586103,0.0068363531561656254,0.11252506982571972,0.009612702427733658,0.09451748722058272,0.009068585274492391,0.022907447603105063,0.007310822772140921
0.0242069,0.029810633439134784,0.006976977659402618,0.11246446031464588,0.009604916920309958,0.09657243106860668,0.009372037847319962,0.025308798617513804,0.007554099479094414
0.0246724,0.029779335289835087,0.00711608322507515,0.11239502975202915,0.009596218214509789,0.09859221785494723,0.00967295473585882,0.027676668361845375,0.007795337319524136
0.0251379,0.029746101715833473,0.007253661055316855,0.1123167607742959,0.009586610145177093,0.10057666225840767,0.00997130098347851,0.030010889648298147,0.008034510999558845
0.0256034,0.02971093639590519,0.007389702784514733,0.11222963835871497,0.009576096845684227,0.1025255887471835,0.010267042217509889,0.03231130434278587,0.008271595706912603
0.026069,0.029673843667543703,0.007524200479166107,0.11213364983173713,0.009564682746782766,0.10443883161830775,0.010560144656177703,0.0345777633731502,0.008506567114489287
0.0265345,0.02963482852877401,0.007657146637531777,0.11202878487642887,0.009552372575314116,0.10631623503307416,0.010850575115343234,0.03681012673383781,0.00873940138380688
0.027,0.029593896639687055,0.007788534189086506,0.11191503553900459,0.009539171352781092,0.10815765304843575,0.011138301015057903,0.039008263487076984,0.00897007516824352
0.0274655,0.02955105432369273,0.007918356493768344,0.11179239623446159,0.009525084393781724,0.10996294964437968,0.011423290385928622,0.04117205176059147,0.009198565616107563
0.027931,0.029506308568489018,0.008046607341028736,0.11166086375132173,0.009510117304306624,0.11173199874728347,0.01170551187529574,0.04330137874189163,0.00942485037353394
0.0283966,0.029459667026745375,0.008173280948685776,0.11152043725548258,0.009494275979901374,0.11346468424926076,0.011984934753224317,0.04539614066918514,0.009648907587209179
0.0288621,0.029411138016498528,0.008298371961583385,0.11137111829318097,0.00947756660369553,0.1151609000235082,0.01226152891830951,0.04745624281895154,0.009870715906927365
0.0293276,0.029360730521259502,0.008421875450059537,0.11121291079307027,0.009459995644299949,0.11682054993566747,0.012535264903296837,0.04948159949022661,0.010090254487979317
0.0297931,0.02930845418983086,0.008543786908226905,0.11104582106741226,0.009441569853574259,0.11844354785121894,0.012806113880518005,0.05147213398564426,0.0103075029933772
0.0302586,0.029254319335833515,0.008664102252069424,0.11086985781238387,0.009422296264266538,0.12002981763892584,0.013074047667142992,0.0534277785892847,0.010522441595916754
0.0307241,0.02919833693694285,0.008782817817358365,0.11068503210749853,0.009402182187527334,0.12157929317034913,0.013339038730249038,0.055348474541378916,0.01073505098007925
0.0311897,0.029140518633834274,0.00889993035739157,0.11049135741414103,0.009381235210300399,0.1230919183154551,0.013601060191707152,0.057234172009920065,0.010945312343775302
0.0316552,0.02908087672883857,0.009015437040559519,0.11028884957321496,0.009359463192592635,0.12456764693433924,0.013860085832886712,0.05908483005923327,0.011153207399932656
0.0321207,0.029019424184307828,0.009129335447741888,0.11007752680190165,0.00933687426462596,0.12600644286508983,0.014116090099178748,0.06090041661555526,0.01135871837793004
0.0325862,0.028956174620692936,0.009241623569538216,0.10985740968952926,0.0093134768238739,0.12740827990781645,0.014369048104338398,0.06268090842967551,0.011561828024879145
0.0330517,0.028891142314334116,0.009352299803336322,0.10962852119255093,0.00928927953198589,0.12877314180486688,0.014618935634647067,0.06442629103669044,0.011762519606756767
0.0335172,0.028824342194966095,0.009461362950222022,0.1093908866286315,0.009264291311602349,0.13010102221725706,0.014865729152894745,0.06613655871292172,0.011960776909389069
0.0339828,0.028755789842939857,0.009568812211733734,0.1091445336698416,0.009238521343063681,0.13139192469733776,0.01510940580218287,0.06781171443004974,0.012156584239289926
0.0344483,0.028685501486163195,0.009674647186465511,0.10888949233495945,0.00921197906101641,0.13264586265772396,0.015349943409548221,0.06945176980651285,0.012349926424355225
0.0349138,0.028613493996762406,0.009778867866522057,0.10862579498088067,0.009184674150919683,0.1338628593365137,0.01558732048940823,0.07105674505622334,0.01254078881441504
0.0353793,0.02853978488746777,0.009881474633829325,0.10835347629313673,0.009156616545455383,0.13504294775882753,0.0158215162468281,0.0726266689346505,0.012729157281645679
0.0358448,0.028464392307725517,0.009982468256304357,0.10807257327552414,0.009127816420845102,0.1361861706947034,0.016052510580610177,0.0741615786823222,0.01291501822084364
0.0363103,0.028387335039539274,0.010081849883888083,0.10778312523884645,0.009098284193077235,0.13729258061338695,0.01628028408620591,0.0756615199657954,0.01309835854956355
0.0367759,0.028308632493044127,0.010179621044444837,0.10748517378877233,0.009068030514047436,0.13836223963406094,0.01650481805845075,0.07712654681614721,0.013279165708122301
0.0372414,0.02822830470181654,0.010275783639532457,0.10717876281281391,0.009037066267615683,0.1393952194730633,0.01672609449412218,0.07855672156503786,0.013457427659471584
0.0377069,0.028146372317923603,0.010370339940046791,0.1068639384664306,0.009005402565583158,0.14039160138764653,0.016944096094321067,0.07995211477839738,0.013633132888941066
0.0381724,0.028062856606715255,0.010463292581744528,0.10654074915826431,0.008973050743592132,0.1413514761163362,0.017158806266676256,0.08131280518778825,0.013806270403854425
0.0386379,0.027977779441363333,0.0105546445606482,0.10620924553451384,0.00894002235695202,0.1422749438159494,0.017370209127372468,0.08263887961949663,0.013976829733020474
0.0391034,0.02789116329715125,0.0106443992283372,0.10586948046245673,0.008906329176394726,0.1431621139953378,0.017578289503001207,0.08393043292140538,0.01414480092610148
0.039569,0.027803031245518448,0.010732560287128582,0.10552150901312835,0.008871983183762408,0.14401310544592294,0.017783032932234443,0.08518756788770213,0.014310174552860808
0.0400345,0.027713406947863648,0.010819131785151391,0.1051653884431695,0.00883699656763074,0.1448280461690949,0.017984425667320707,0.0864103951814771,0.014472941702291858
0.0405,0.027622314649111065,0.010904118111318252,0.10480117817585483,0.00880138171887073,0.14560707330054573,0.018182454675403064,0.08759903325526498,0.014633093981630173
0.0409655,0.027529779171043534,0.010987523990197872,0.1044289397813152,0.008765151226152073,0.1463503330316126,0.018377107639658385,0.08875360826958605,0.014790623515250526
0.041431,0.0274358259054065,0.011069354476792151,0.10404873695596971,0.008728317871391028,0.1470579805277045,0.01856837296025718,0.08987425400954283,0.014945522943450638
0.0418966,0.027340480806786704,0.011149614951221591,0.10366063550118283,0.008690894625145697,0.1477301798438881,0.01875623975514315,0.09096111179952777,0.015097785421123042
0.0423621,0.02724377038526911,0.011228311113322677,0.10326470330116426,0.008652894641961506,0.14836710383770677,0.018940697860631663,0.09201433041609904,0.015247404616316499
0.0428276,0.02714572169887554,0.011305448977160949,0.10286101030012969,0.008614331255669681,0.14896893407930764,0.019121737831826094,0.09303406599908068,0.015394374708688279
0.0432931,0.02704636234578826,0.01138103486546347,0.10244962847874167,0.008575217974641364,0.1495358607589498,0.019299350942850978,0.0940204819609443,0.01553869038784848
0.0437586,0.026945720456361698,0.011455075403974412,0.10203063182985063,0.008535568477000039,0.15006808259196627,0.019473529186900675,0.09497374889452852,0.015680346851597502
0.0442241,0.026843824684925466,0.011527577515737504,0.10160409633355631,0.008495396605794809,0.15056580672125142,0.019644265276102253,0.09589404447915233,0.01581933980405772
0.0446897,0.026740704201381707,0.011598548415309069,0.10117009993161097,0.008454716364137041,0.15102924861734465,0.019811552641191086,0.09678155338517797,0.015955665453700352
0.0451552,0.026636388682599915,0.011667995602905368,0.10072872250118571,0.008413541910302856,0.15145863197617992,0.01997538543099763,0.09763646717707831,0.016089320511268462
0.0456207,0.026530908303612332,0.011735926858487948,0.10028004582802146,0.008371887552803837,0.1518541886145702,0.020135758511743755,0.09845898421506286,0.01622030218759697
0.0460862,0.02642429372861314,0.011802350235790626,0.09982415357898587,0.008329767745428283,0.15221615836349583,0.020292667466147128,0.0992493095553158,0.016348608191330466
0.0465517,0.02631657610176483,0.011867274056291772,0.0993611312740583,0.008287197082255301,0.15254478895926538,0.02044610859233258,0.10000765484889948,0.01647423672653941
0.0470172,0.026207787037815244,0.011930706903135387,0.09889106625776348,0.008244190292643897,0.15284033593261717,0.02059607890254966,0.1007342382393755,0.016597186490235387
0.0474828,0.026097958612529122,0.011992657615004506,0.09841404767007529,0.008200762236199234,0.15310306249583044,0.0207425761216962,0.10142928425919544,0.016717456669785788
0.0479483,0.025987123352938363,0.01205313527995028,0.097930166416811,0.008156927897718087,0.15333323942791438,0.020885598685648033,0.10209302372491279,0.01683504694022845
0.0484138,0.025875314227415687,0.012112149229180086,0.09743951513953578,0.008112702382115528,0.1535311449579437,0.021025145739395346,0.10272569363126685,0.01694995746148679
0.0488793,0.025762564635576694,0.01216970903080787,0.09694218818499716,0.008068100909334786,0.1536970646466093,0.021161217134986168,0.1033275370441891,0.017062188875486
0.0493448,0.025648908398015903,0.012225824483569854,0.09643828157410776,0.008023138809242169,0.15383129126605272,0.021293813429277674,0.1038988029927813,0.017171742303171037
0.0498103,0.025534379745882473,0.012280505610508644,0.09592789297049431,0.007977831516508915,0.15393412467805323,0.02142293588149616,0.10443974636031483,0.017278619341427402
0.0502759,0.025419013310301615,0.012333762652628678,0.09541112164862978,0.007932194565481799,0.15400587171063546,0.0215485864506068,0.10495062777429895,0.017382822059905514
0.0507414,0.02530284411164792,0.012385606062525912,0.09488806846156497,0.007886243585044264,0.15404684603316604,0.02167076779249484,0.10543171349566538,0.01748435299774988
0.0512069,0.02518590754867699,0.012436046497994511,0.09435883580827505,0.007839994293469859,0.15405736803000722,0.021789483256960354,0.10588327530711537,0.017583215160234034
0.0516724,0.025068239387521764,0.012485094815613329,0.09382352760063552,0.007793462493269696,0.15403776467279526,0.02190473688452927,0.10630559040067467,0.017679412015302334
0.0521379,0.024949875750560298,0.01253276206431478,0.09328224923004141,0.007746664066035672,0.15398836939141083,0.022016533403083773,0.10669894126450125,0.017772947490019744
0.0526034,0.024830853105161636,0.012579059478938679,0.09273510753368282,0.00769961496728113,0.15390952194370836,0.022124878224315477,0.10706361556898926,0.017863825966930775
0.053069,0.02471120825231651,0.012623998473773521,0.09218221076048955,0.007652331221280652,0.15380156828407046,0.022229777440004924,0.1073999060522124,0.017952052280329082
0.0535345,0.024590978315159644,0.012667590636087583,0.09162366853675688,0.007604828915910656,0.1536648604308536,0.022331237818131067,0.10770811040474919,0.018037631712439356
0.054,0.024470200727390402,0.012709847719652176,0.0910595918314642,0.007557124197492423,0.15349975633278912,0.022429266798814667,0.10798853115393174,0.018120569989513495
0.0544655,0.024348913221598545,0.012750781638259387,0.09049009292129792,0.007509233265639187,0.15330661973440396,0.02252387249009979,0.1082414755475595,0.018200873277843217
0.054931,0.024227153817501776,0.012790404459236683,0.08991528535538977,0.007461172368108852,0.153085820040523,0.022615063663577642,0.10846725543711812,0.018278548179691458
0.0553966,0.024104960810101793,0.012828728396960778,0.0893352839197812,0.007412957795663881,0.15283773217991484,0.022702849749857163,0.10866618716054341,0.018353601729144912
0.0558621,0.02398237275776546,0.012865765806373362,0.08875020460162455,0.007364605876939802,0.15256273646814036,0.022787240833886727,0.10883859142456984,0.018426041387890123
0.0563276,0.023859428470237656,0.012901529176501331,0.08816016455313194,0.0073161329733237935,0.15226121846966367,0.022868247650131103,0.10898479318670143,0.018495875040915388
0.0567931,0.023736166996592242,0.01293603112398425,0.08756528205528205,0.007267555473844698,0.15193356885928183,0.022945881577607918,0.10910512153684343,0.018563110992140686
0.0572586,0.023612627613127497,0.012969284386611846,0.0869656764812959,0.007218889790075827,0.1515801832829298,0.023020154634787605,0.10919990957863172,0.018627757959977762
0.0577241,0.02348884981121231,0.013001301816874278,0.0863614682598923,0.007170152351051848,0.1512014622179154,0.02309107947436079,0.10926949431049691,0.018689825072822325
0.0581897,0.023364873285089263,0.013032096375528037,0.08575277883833413,0.00712135959820104,0.15079781083263735,0.023158669377876983,0.10931421650649936,0.018749321864480376
0.0586552,0.0232407379196406,0.013061681125180151,0.08513973064527634,0.007072527980294163,0.1503696388458391,0.023222938250258455,0.1093344205969707,0.018806258269530602
0.0591207,0.0231164837781229,0.013090069223893372,0.08452244705342747,0.007023673948411225,0.14991736038544873,0.023283900614193217,0.10933045454899758,0.018860644618624838
0.0595862,0.022992151089876164,0.013117273918814877,0.08390105234203601,0.0069748139509273515,0.14944139384705565,0.023341571604410933,0.1093026697467824,0.01891249163372863
0.0600517,0.022867780238012902,0.013143308539831033,0.0832756716592141,0.0069259644285190654,0.14894216175207234,0.0233959669618457,0.10925142087191582,0.018961810423303933
0.0605172,0.022743411747092407,0.013168186493250609,0.08264643098411056,0.0068771418091922035,0.14842009060562822,0.02344710302768941,0.10917706578359522,0.01900861247743602
0.0609828,0.022619086270785436,0.013191921255518851,0.0820134570889463,0.006828362503332748,0.14787561075424252,0.023494996737339242,0.10907996539882339,0.019052909662906483
0.0614483,0.0224948445795342,0.013214526366964756,0.08137687750092476,0.006779642898781819,0.1473091562433208,0.023539665614242748,0.10896048357262099,0.019094714218214313
0.0619138,0.02237072754821239,0.013236015425583794,0.08073682046403144,0.006730999355936044,0.14672116467451898,0.02358112776364379,0.10881898697828643,0.019134038748546692
0.0623793,0.022246776143789775,0.01325640208085841,0.08009341490073603,0.006682448202874478,0.1461120770630178,0.02361940186623245,0.10865584498773638,0.01917089622070118
0.0628448,0.02212303141300575,0.013275700027618442,0.0794467903736114,0.006634005730513259,0.145482337694749,0.023654507171701856,0.10847142955195938,0.019205299957960827
0.0633103,0.0219995344700561,0.01329392299994361,0.07879707704688398,0.006585688187789109,0.14483239398361417,0.023686463492214795,0.10826611508161525,0.019237263634923667
0.0637759,0.021876326484297062,0.013311084765110216,0.07814440564793017,0.006537511776872781,0.14416269632873563,0.02371529119578253,0.10804027832781207,0.019266801272287935
0.0642414,0.021753448667970635,0.013327199117583953,0.07748890742873397,0.006489492648413569,0.14347369797177936,0.023741011199558425,0.10779429826309182,0.01929392723159437
0.0647069,0.021630942263955025,0.013342279873060733,0.07683071412732109,0.006441646896815961,0.1427658548543878,0.023763644963048502,0.1075285559626555,0.01931865620992684
0.0651724,0.021508848533544067,0.01335634086255733,0.07616995792918506,0.0063939905555495564,0.14203962547576032,0.023783214481240964,0.10724343448585734,0.01934100323457251
0.0656379,0.02138720874425905,0.013369395926553647,0.07550677142872111,0.006346539592493345,0.1412954707504188,0.02379974227765655,0.10693931875799749,0.019360983657642855
0.0661034,0.02126606415769659,0.013381458909188376,0.07484128759068392,0.006299309905315487,0.1405338538661944,0.023813251397321423,0.10661659545244119,0.019378613150656657
0.066569,0.021145456017415874,0.013392543652509898,0.07417363971168511,0.0062523173168897135,0.13975524014247162,0.023823765399664007,0.10627565287309218,0.019393907699086263
0.0670345,0.021025425536868626,0.01340266399078436,0.07350396138174668,0.00620557757074949,0.1389600968887235,0.02383130835133721,0.1059168808372479,0.019406883596868277
0.0675,0.020906013887374817,0.013411833744862892,0.07283238644592677,0.0061591063265810635,0.1381488932633725,0.023835904818967267,0.10554067055886307,0.019417557440879987
0.0679655,0.020787262186147314,0.013420066716610017,0.07215904896603373,0.0061129191557565046,0.13732210013300988,0.023837579861830573,0.10514741453224839,0.01942594612538274
0.068431,0.020669211484368365,0.013427376683395189,0.07148408318244492,0.006067031536907836,0.13648018993200506,0.023836359024459717,0.10473750641623188,0.019432066836433438
0.0688966,0.020551902755320834,0.013433777392649438,0.0708076234760461,0.006021458851543329,0.13562363652253576,0.02383226832918016,0.1043113409188092,0.019435937046265308
0.0693621,0.020435376882576833,0.0134392825564891,0.07012980433030735,0.005976216379706998,0.13475291505506903,0.023825334268579086,0.1038693136823102,0.019437574507639
0.0698276,0.02031967464824645,0.013443905846408638,0.06945076029351094,0.0059313192956823284,0.13386850182932167,0.023815583797908157,0.10341182116910802,0.019436997248165014
0.0702931,0.020204836721289136,0.013447660888044733,0.06877062594114657,0.005886782663741214,0.13297087415572878,0.023803044327421922,0.10293926054789732,0.019434223564598434
0.0707586,0.02009090364589028,0.0134505612560139,0.06808953583848859,0.0058426214339390315,0.13206051021744816,0.023787743714653784,0.102452029580568,0.019429272017106876
0.0712241,0.019977915829905424,0.013452620468826166,0.06740762450336948,0.005798850437956761,0.1311378889329273,0.023769710256631403,0.10195052650970055,0.019422161423512663
0.0716897,0.01986591353337458,0.013453851983877217,0.06672502636916344,0.005755484384991013,0.13020348981906021,0.023748972682033458,0.10143514994670887,0.019412910853510303
0.0721552,0.01975493685710901,0.013454269192521597,0.06604187574799301,0.0057125378576928275,0.12925779285496033,0.023725560143289515,0.10090629876065704,0.019401539622860425
0.0726207,0.019645025731352878,0.01345388541522939,0.06535830679417155,0.005670025308156101,0.1283012783463755,0.02369950220862484,0.10036437196777633,0.019388067287561473
0.0730862,0.019536219904522003,0.01345271389682877,0.06467445346789338,0.005627961053956512,0.12733442679077103,0.0236708288540519,0.09980976862170901,0.019372513638000605
0.0735517,0.019428558932021965,0.013450767801836667,0.06399044949918328,0.0055863592742417855,0.1263577187431067,0.0236395704553104,0.09924288770450554,0.019354898693085276
0.0740172,0.019322082165147716,0.013448060209879716,0.06330642835211651,0.005545234005874173,0.12537163468233303,0.023605757779757718,0.09866412801840112,0.019335242694356936
0.0744828,0.019216828740066822,0.013444604111207643,0.06262252318931992,0.005504599139625959,0.12437665487863282,0.02356942197821172,0.09807388807839762,0.01931356610008836
0.0749483,0.019112837566888436,0.013440412402301037,0.061938866836764514,0.005464468416428757,0.12337325926143307,0.023530594576747835,0.09747256600567593,0.01928988957936628
0.0754138,0.019010147318820014,0.013435497881575446,0.061255591748859334,0.005424855423677364,0.12236192728821307,0.02348930746845238,0.0968605594218631,0.01926423400616134
0.0758793,0.018908796421413816,0.013429873245183722,0.06057282997385631,0.005385773591588865,0.12134313781413385,0.023445592905134045,0.09623826534417794,0.01923662045338757
0.0763448,0.018808823041905138,0.013423551082918466,0.05989071311957518,0.005347236189617645,0.12031736896251412,0.023399483488995385,0.09560608008147792,0.01920707018695414
0.0768103,0.018710265078644223,0.01341654387421644,0.05920937231945721,0.005309256322926954,0.11928509799617805,0.023351012164266025,0.09496439913122917,0.019175604659812176
0.0772759,0.018613160150623753,0.01340886398426678,0.05852893819895627,0.005271846928917604,0.11824680118969932,0.023300212208799433,0.09431361707742157,0.019142245505999668
0.0777414,0.018517545587103827,0.013400523660224803,0.05784954084227531,0.005235020773814405,0.11720295370256656,0.023247117225635033,0.09365412748944942,0.019107014534687487
0.0782069,0.018423458417336253,0.013391535027533208,0.057171309759455946,0.005198790449310926,0.11615402945329385,0.02319176113452765,0.09298632282197797,0.019069933724229476
0.0786724,0.01833093536039005,0.013381910086352387,0.05649437385382861,0.005163168369273111,0.1151005009945,0.02313417816344625,0.09231059431581554,0.01903102521621946
0.0791379,0.018240012815079972,0.013371660708101514,0.05581886138983016,0.00512816676650231,0.11404283938897933,0.02307440284004398,0.09162733189980989,0.0189903113095579
0.0796034,0.018150726849999844,0.01336079863211202,0.05514489996119564,0.005093797689558215,0.1129815140867861,0.02301246998310146,0.0909369240937874,0.01894781445453079
0.080069,0.018063113193662623,0.013349335462394975,0.054472616459530714,0.005060072999642194,0.1119169928033538,0.022948414693945367,0.09023975791255293,0.018903557246903246
0.0805345,0.01797720722474898,0.01333728266452386,0.05380213704327055,0.005027004367541494,0.11084974139866982,0.02288227234784416,0.08953621877096768,0.01885756242203019
0.081,0.01789304396246623,0.013324651562634161,0.05313358710703108,0.0049946032706347605,0.1097802237575259,0.022814078585382747,0.08882669039012205,0.018809852848986345
0.0814655,0.01781065805701946,0.013311453336541126,0.052467091251358074,0.004962880989959332,0.10870890167086375,0.022743869303817794,0.08811155470461969,0.01876045152471763
0.081931,0.017730083780196623,0.013297699018976936,0.05180277325287915,0.0049318486073407115,0.10763623471823505,0.0226716806484153,0.08739119177098849,0.01870938156821591
0.0823966,0.017651355016069403,0.013283399492948473,0.05114075603486381,0.004901517002584649,0.10656268015139503,0.022597549003772224,0.08666597967723369,0.018656666214718995
0.0828621,0.017574505251811614,0.01326856548921675,0.05048116163819618,0.004871896850732186,0.10548869277904808,0.022521510985123703,0.08593629445354749,0.018602328809937802
0.0833276,0.01749956756863688,0.013253207583899003,0.04982411119276508,0.004842998619378049,0.10441472485276367,0.02244360342963763,0.085202509984189,0.01854639280431229
0.0837931,0.017426574632857322,0.013237336196194372,0.04916972488927549,0.00481483256605274,0.10334122595408037,0.022363863387698066,0.08446499792054783,0.018488881747297927
0.0842586,0.017355558687064867,0.013220961586233974,0.04851812195148573,0.004787408735668652,0.1022686428828165,0.02228232811417895,0.08372412759540368,0.018429819281684273
0.0847241,0.017286551541436802,0.013204093853056133,0.04786942060887413,0.004760736958030528,0.10119741954660454,0.022199035059709594,0.08298026593839453,0.01836922913794717
0.0851897,0.017219584565167114,0.013186742932707388,0.04722373806973899,0.00473482684541058,0.10012799685166689,0.022114021861933054,0.08223377739270527,0.018307135128635924
0.0856552,0.017154688678025005,0.01316891859646989,0.04658119049473525,0.0047096877901885575,0.09906081259485003,0.02202732633675871,0.08148502383298858,0.018243561142796762
0.0861207,0.01709189434204198,0.013150630449215594,0.04594189297085128,0.0046853289625570565,0.09799630135693463,0.02193898646960984,0.0807343644845295,0.018178531140433597
0.0865862,0.017031231553328644,0.013131887927887673,0.045305959485829,0.004661759308292372,0.09693489439723828,0.021849040406667172,0.07998215584366498,0.018112069147007085
0.0870517,0.016972729834022354,0.013112700300109463,0.04467350290303038,0.004638987546591182,0.09587701954952792,0.02175752644610909,0.07922875159946946,0.018044199247972886
0.0875172,0.016916418224366674,0.01309307666292106,0.044044634936753126,0.004617022167973354,0.09482310111925861,0.021664483029349334,0.07847450255671717,0.017974945583359766
0.0879828,0.016862325274923477,0.013073025941643718,0.043419466127998275,0.004595871432251187,0.09377355978215539,0.021569948732272994,0.07771975656013148,0.017904332342388214
0.0884483,0.016810479038918354,0.013052556888872044,0.042798105820692225,0.004575543366565355,0.09272881248415502,0.021473962256471624,0.07696485841993117,0.01783238375813
0.0889138,0.016760907064719995,0.013031678083593984,0.042180662138365556,0.0045560457634878666,0.09168927234272417,0.021376562420478397,0.07621014983868332,0.01775912410220907
0.0893793,0.0167136363884541,0.013010397930438499,0.041567241961290746,0.0045373861791923095,0.09065534854957034,0.021277788151004194,0.07545596933947221,0.01768457767954409
0.0898448,0.016668693526752234,0.012988724659050788,0.04095795090408092,0.004519571931691677,0.08962744627476205,0.021177678474175517,0.07470265219539265,0.017608768823133017
0.0903103,0.016626104469636152,0.012966666323594852,0.04035289329375157,0.00450261009914405,0.08860596657227414,0.021076272506775087,0.0739505303603766,0.017531721888880025
0.0907759,0.016585894673537882,0.012944230802383124,0.039752172148246806,0.004486507518226395,0.08759130628697409,0.020973609447485986,0.07319993240136068,0.017453461250465478
0.0912414,0.016548089054456084,0.012921425797632818,0.03915588915543178,0.004471270782576725,0.08658385796306463,0.020869728568140282,0.07245118343180224,0.017374011294259566
0.0917069,0.01651271198124908,0.012898258835348559,0.038564144652552534,0.0044569062413048486,0.08558400975399769,0.020764669204973284,0.07170460504655099,0.017293396414280553
0.0921724,0.01647978726906497,0.0128747372653308,0.03797703760616431,0.004443419997571877,0.08459214533387491,0.02065847074988443,0.07096051525808292,0.017211641007198672
0.0926379,0.016449338172909386,0.012850868261309406,0.03739466559252914,0.00443081790723868,0.08360864381034912,0.020551172641705986,0.07021922843410243,0.017128769467386805
0.0931034,0.016421387381351373,0.012826658821201728,0.03681712477848328,0.004419105577583418,0.08263387963904127,0.020442814357480642,0.06948105523651853,0.017044806182019128
0.093569,0.01639595701036801,0.012802115767494343,0.03624450990277481,0.004408288366088276,0.08166822253948715,0.020333435403749125,0.06874630256180027,0.016959775526218846
0.0940345,0.016373068597328403,0.012777245747747622,0.03567691425787127,0.004398371379295481,0.08071203741262738,0.02022307530784892,0.06801527348271674,0.016873701858256124
0.0945,0.016352743095117823,0.0127520552352221,0.03511442967223721,0.004389359471732685,0.07976568425985471,0.020111773609225437,0.06728826719146606,0.01678660951479719
0.0949655,0.016335000866402768,0.012726550529625603,0.034557146493081184,0.004381257244907721,0.07882951810363124,0.01999956985075694,0.06656557894419805,0.016698522806205478
0.095431,0.01631986167803777,0.012700737757979969,0.03400515356957159,0.0043740690463727775,0.0779038889096885,0.019886503570094645,0.06584750000693444,0.01660946601189562
0.0958966,0.01630734469561497,0.012674622875606117,0.033458538236520584,0.004367798968857931,0.07698914151082215,0.01977261429101952,0.06513431760288993,0.016519463375740926
0.0963621,0.01629746847815749,0.01264821166722614,0.032917386298535065,0.004362450849474018,0.07608561553229284,0.01965794151481711,0.06442631486119721,0.016428539101535005
0.0968276,0.016290250972957738,0.012621509748180998,0.03238178201463373,0.004358028268984758,0.07519364531884394,0.019542524711671932,0.06372377076703822,0.016336717348507942
0.0972931,0.016285709510561932,0.01259452256576238,0.03185180808332895,0.004354534551148039,0.07431355986334619,0.019426403312082747,0.06302696011318396,0.01624402222689745
0.0977586,0.016283860799902163,0.012567255400657115,0.031327545628172124,0.004351972762126263,0.07344568273707883,0.01930961669830024,0.06233615345294421,0.016150477793575372
0.0982241,0.016284720923577467,0.01253971336850249,0.030809074183761186,0.004350345709965666,0.07259033202165607,0.019192204195788386,0.0616516170545287,0.016056108047729903
0.0986897,0.01628830533328541,0.012511901421550753,0.030296471682208774,0.004349655944144524,0.07174782024260747,0.019074205064710824,0.06097361285682038,0.015960936926604042
0.0991552,0.01629462884540576,0.012483824350440913,0.029789814440069673,0.0043499057551901685,0.07091845430461981,0.018955658491443345,0.06030239842656134,0.015864988301290905
0.0996207,0.016303705636737793,0.012455486786075878,0.02928917714572625,0.004351097174364761,0.07010253542844833,0.018836603580113638,0.05963822691695109,0.01576828597258667
0.1000862,0.01631554924039275,0.012426893201602906,0.028794632847230706,0.0043532319734197935,0.06930035908950402,0.018717079344169326,0.058981347027656825,0.01567085366690208
0.1005517,0.016330172541843054,0.012398047914495168,0.028306252940602926,0.004356311664419292,0.06851221495812411,0.018597124697975233,0.05833200296623474,0.015572715032233519
0.1010172,0.01634758777512964,0.012368955088732144,0.02782410715858286,0.004360337499631712,0.06773838684153172,0.01847677844844091,0.05769043441096098,0.015473893634194628
0.1014828,0.01636780651922886,0.012339618737076508,0.02734826355983644,0.004365310471490464,0.06697915262749127,0.018356079286679313,0.05705687647507056,0.015374412952109435
0.1019483,0.016390839694580245,0.01231004272344499,0.02687878851861403,0.0043712313126230366,0.06623478422966513,0.01823506577969755,0.05643155967240206,0.01527429637516778
0.1024138,0.016416697559776296,0.012280230765370681,0.0264157467148605,0.004378100495948602,0.06550554753467736,0.018113776362120526,0.05581470988444524,0.015173567198643803
0.1028793,0.01644538970841543,0.012250186436554048,0.02595920112477585,0.004385918234843998,0.06479170235088963,0.017992249327948538,0.055206548328788664,0.01507224862017807
0.1033448,0.01647692506611901,0.012219913169499946,0.02550921301182534,0.004394684483377939,0.06409350235889417,0.017870522822349976,0.05460729152896364,0.014970363736123883
0.1038103,0.01651131188771324,0.012189414258237764,0.02506584191819783,0.004404398936613256,0.0634111950637284,0.01774863483349042,0.05401715128568071,0.014867935537958185
0.1042759,0.01654855775457674,0.01215869286112174,0.024629145656710847,0.0044150610309770045,0.06274502174881563,0.01762662318439969,0.05343633464945409,0.014764986908757357
0.1047414,0.016588669572154248,0.012127752003708435,0.024199180303160716,0.004426669944698178,0.06209521743163576,0.017504525524878443,0.052865043894609345,0.014661540619738112
0.1052069,0.016631653567637027,0.012096594581708312,0.023776000189115815,0.004439224598312808,0.06146201082112963,0.01738237932344601,0.052303476494668946,0.014557619326863573
0.1056724,0.01667751528781035,0.012065223364008329,0.023359657895150945,0.004452723655236168,0.06084562427684018,0.017260221859331237,0.051751825099110145,0.014453245567514513
0.1061379,0.016726259597068346,0.012033640995762446,0.022950204244520458,0.0044671655224017845,0.06024627376979337,0.017138090214508045,0.05121027751148927,0.014348441757225723
0.1066034,0.016777890675596516,0.012001850001546967,0.022547688297267745,0.004482548350966982,0.0596641688451213,0.01701602126577739,0.050679016668926574,0.01424323018648739
0.107069,0.01683241201772207,0.01196985278857758,0.02215215734476852,0.0044988700370846586,0.05909951258642971,0.016894051676897177,0.050158220622945254,0.014137633017611343
0.1075345,0.0168898264304323,0.011937651649984955,0.021763656904705258,0.004516128222740979,0.058552501581911526,0.016772217890761644,0.049648062521658654,0.01403167228166195
0.108,0.016950136032061216,0.011905248768145667,0.021382230716470028,0.0045343202966587,0.058023325892207704,0.01665055612163163,0.04914871059329929,0.013925369875451454
0.1084655,0.017013342251144526,0.01187264621806514,0.021007920736993015,0.004553443395265818,0.05751216902001645,0.016529102347417113,0.04866032813108366,0.013818747558599555
0.108931,0.017079445825443327,0.011839845970809266,0.020640767136993882,0.004573494403729253,0.057019207881451046,0.016407892302013324,0.04818307347940633,0.013711826950656968
0.1093966,0.017148446801136624,0.011806849896981275,0.020280808297653084,0.0045944699570532495,0.05654461277914635,0.016286961467691582,0.047717100021357,0.013604629528292882
0.1098621,0.017220344532183064,0.011773659770240358,0.019928080807700307,0.004616366441242226,0.056088547377113496,0.016166345067546054,0.04726255616755398,0.013497176622546165
0.1103276,0.017295137679852215,0.011740277270858614,0.019582619460917088,0.004639179994527794,0.05565116867734178,0.016046078057997522,0.04681958534628735,0.01338948941614024
0.1107931,0.017372824212425777,0.011706703989312811,0.019244457254050665,0.004662906508659675,0.0552326269981464,0.015926195121355124,0.04638832599496484,0.013281588940861493
0.1112586,0.01745340140506912,0.01167294142990747,0.01891362538513612,0.004687541630260305,0.05483306595426013,0.015806730658437053,0.045968911552853445,0.013173496075001016
0.1117241,0.01753686583987359,0.011638991014425842,0.01859015325222388,0.004713080762242873,0.054452622438666894,0.01568771878125112,0.04556147045510954,0.013065231540859423
0.1121897,0.017623213406069926,0.011604854085805418,0.018274068452509604,0.0047395190652925944,0.05409142660617448,0.015569193305736128,0.04516612612809027,0.012956815902314437
0.1126552,0.01771243930041324,0.011570531911834579,0.017965396781863537,0.004766851459411019,0.0537496018587235,0.015451187744565071,0.04478299698593855,0.012848269562450748
0.1131207,0.01780453802773987,0.011536025688867108,0.017664162234756354,0.004795072625523186,0.05342726483242955,0.015333735300011225,0.044412196428434136,0.012739612761251703
0.1135862,0.01789950340169647,0.011501336545551216,0.01737038700457864,0.004824177007147475,0.05312452538635512,0.015216868856878356,0.04405383284010239,0.01263086557335221
0.1140517,0.017997328545641463,0.011466465546569755,0.0170840914843511,0.004854158812127937,0.05284148659300784,0.015100620975496309,0.04370800959057255,0.012522047905852237
0.1145172,0.018098005893719196,0.011431413696388188,0.01680529426782253,0.004885012014428933,0.05257824473056133,0.014985023884783238,0.04337482503617668,0.012413179496190236
0.1149828,0.018201527192106718,0.011396181943006872,0.016534012150952737,0.004916730355991831,0.05233488927679511,0.014870109475375813,0.0430543725227805,0.01230427991007577
0.1154483,0.018307883500433178,0.01136077118171407,0.016270260133777505,0.004949307348653508,0.05211150290474965,0.014755909292828866,0.04274674038983674,0.01219536853948064
0.1159138,0.018417065193371683,0.011325182258836065,0.016014051422652834,0.004982736276126358,0.05190816148009288,0.014642454530886022,0.04245201197565197,0.012086464600687791
0.1163793,0.01852906196240327,0.011289415975480705,0.015765397432875642,0.005017010196039492,0.051724934060194405,0.01452977602482305,0.04217026562385772,0.011977587132397167
0.1168448,0.01864386281775256,0.011253473091270597,0.015524307791678287,0.005052121942040809,0.05156188289490347,0.014417904244865753,0.04190157469107681,0.01186875499388772
0.1173103,0.01876145609049452,0.011217354328062194,0.015290790341594349,0.005088064125959566,0.05141906342902727,0.014306869289684202,0.04164600755577578,0.011759986863234621
0.1177759,0.01888182943483166,0.01118106037364692,0.015064851144193222,0.005124829140029088,0.051296524306505664,0.014196700879965163,0.04140362762829444,0.011651301235580667
0.1182414,0.019004969830540872,0.01114459188543035,0.014846494484181271,0.005162409159169201,0.05119430737627856,0.014087428352064528,0.041174493362043485,0.011542716421460885
0.1187069,0.01913086358558909,0.011107949494085518,0.014635722873867399,0.0052007961433279655,0.05111244769984238,0.013979080651741574,0.040958658265861224,0.011434250545179223
0.1191724,0.01925949633891678,0.011071133807176227,0.014432537057991066,0.005239981839882222,0.05105097356049151,0.013871686327976888,0.040756170917520894,0.011325921543236283
0.1196379,0.019390853063388246,0.01103414541274618,0.014236936018910958,0.005279957786096431,0.051009906474240765,0.013765273526875729,0.040567074978379754,0.011217747162807008
0.1201034,0.01952491806890754,0.010996984882869654,0.014048916982152626,0.005320715311639253,0.05098926120242486,0.013659869985658674,0.04039140920916148,0.011109744960267214
0.120569,0.01966167500569877,0.010959652777159403,0.013868475422313517,0.005362245541157251,0.050989045765970624,0.013555503026741415,0.04022920748686332,0.011001932299767876
0.1210345,0.01980110686774935,0.01092214964622737,0.013695605069323878,0.005404539396905068,0.051009261461337684,0.013452199551905514,0.04008049882277923,0.010894326351855955
0.1215,0.01994319599641483,0.010884476035093772,0.013530297915062084,0.0054475876014314015,0.051049902878123256,0.01334998603656205,0.039945307381630275,0.010786944092140593
0.1219655,0.020087924084183792,0.010846632486540109,0.013372544220322921,0.005491380680320076,0.05111095791832625,0.013248888524110072,0.03982365250179356,0.010679802300003333
0.122431,0.020235272178601202,0.01080861954440155,0.013222332522137338,0.005535908964985456,0.051192407817265966,0.013148932620391992,0.03971554871662094,0.010572917557351024
0.1228966,0.020385220686348578,0.0107704377567943,0.013079649641442127,0.0055811625955214505,0.051294227166150175,0.013050143488248102,0.03962100577683859,0.01046630624741004
0.1233621,0.020537749377479177,0.01073208767927357,0.012944480691097972,0.005627131523603332,0.0514163839362873,0.0129525458421725,0.03954002867401869,0.010359984553560358
0.1238276,0.020692837389806304,0.010693569877917938,0.012816809084254163,0.005673805515441572,0.05155883950493675,0.012856163943072764,0.03947261766511448,0.010253968458208078
0.1242931,0.020850463233442754,0.010654884932336068,0.012696616543058203,0.005721174154786871,0.051721548682791184,0.012761021593135689,0.03941876829805027,0.010148273741695002
0.1247586,0.02101060479548951,0.010616033438592045,0.01258388310770844,0.005769226845985575,0.05190445974308421,0.012667142130801319,0.039378471438358355,0.010042915981244013
0.1252241,0.02117323934487182,0.010577016012045864,0.012478587145847785,0.005817952817084621,0.05210751445231633,0.012574548425847487,0.03935171329685481,0.009937910549939075
0.1256897,0.021338343537320923,0.010537833290105922,0.012380705362296508,0.005867341122985159,0.05233064810259185,0.012483262874586946,0.039338475458346414,0.009833272615738868
0.1261552,0.021505893420499904,0.010498485934890743,0.012290212809122004,0.0059173806486439405,0.05257378954555881,0.012393307395179102,0.03933873491136096,0.009729017140523124
0.1266207,0.021675864439272285,0.010458974635797444,0.012207082896043386,0.005968060112321545,0.05283686122794382,0.012304703423058325,0.039352464078893014,0.009625158879170807
0.1270862,0.021848231441112233,0.010419300111974712,0.012131287401168709,0.006019368068876482,0.05311977922867358,0.012217471906480778,0.03937963085015725,0.009521712378669325
0.1275517,0.02202296868165527,0.010379463114698326,0.012062796482062552,0.006071292913104153,0.053422453297574404,0.012131633302191707,0.039420198613340895,0.009418691977253913
0.1280172,0.022200049830388497,0.010339464429647298,0.012001578687141726,0.006123822883119637,0.05374478689564129,0.012047207571215109,0.03947412628934703,0.009316111803576381
0.1284828,0.02237944797647945,0.010299304879078831,0.011947600967396757,0.006176946063783252,0.05408667723686771,0.011964214174767734,0.039541368366520065,0.009213985775902371
0.1289483,0.02256113563474255,0.010258985323900346,0.0119008286884368,0.00623065039016781,0.05444801533162732,0.01188267207029935,0.03962187493634464,0.009112327601336383
0.1294138,0.02274508475174212,0.010218506665637016,0.011861225642855498,0.006284923651066482,0.054828686031598815,0.01180259970766114,0.03971559173010912,0.00901115077507388
0.1298793,0.022931266712030735,0.010177869848293544,0.011828754062915368,0.006339753492540112,0.055228568076225115,0.0117240150254041,0.03982246015652462,0.008910468579679911
0.1303448,0.023119652344521752,0.010137075860109217,0.01180337463354818,0.006395127421502853,0.05564753414069777,0.01164693544720917,0.03994241734029058,0.008810294084393867
0.1308103,0.023310211928994552,0.010096125735205795,0.011785046505668806,0.0064510328093449676,0.0560854508854578,0.011571377878450811,0.04007539616159762,0.008710640144460154
0.1312759,0.02350291520273118,0.010055020555128275,0.011773727309799942,0.006507456895591618,0.056542179007203826,0.011497358702895625,0.04022132529655812,0.008611519400484772
0.1317414,0.02369773136728286,0.010013761450279119,0.011769373170005084,0.006564386791596511,0.05701757329139874,0.011424893779537598,0.04038012925855508,0.008512944277817939
0.1322069,0.023894629095364703,0.009972349601247092,0.011771938718127015,0.006621809484269231,0.057511482666265656,0.011353998439571444,0.04055172844049929,0.00841492698596309
0.1326724,0.024093576537876787,0.009930786240032302,0.011781377108328996,0.006679711839835108,0.05802375025826445,0.01128468748350547,0.040736039157984745,0.008317479518012686
0.1331379,0.024294541331049767,0.00988907265116942,0.011797640031935758,0.006738080607626425,0.058554213449039896,0.011216975178415358,0.040932973693332105,0.008220613650111404
0.1336034,0.024497490603712854,0.009847210172751286,0.011820677732571293,0.0067969024239037555,0.05910270393383262,0.01115087525534017,0.041142440340509574,0.008124340940947388
0.134069,0.02470239098468207,0.009805200197355183,0.011850439021590374,0.006856163815706192,0.05966904778134379,0.011086400906821864,0.041364343450920334,0.008028672731272276
0.1345345,0.02490920861026664,0.009763044172874092,0.011886871293800623,0.006915851204729195,0.06025306549504465,0.011023564784589558,0.04159858348004556,0.007933620143450707
0.135,0.02511790913189114,0.0097207436032552,0.01192992054347193,0.0069759509112287945,0.0608545720759218,0.010962378997389697,0.04184505703493178,0.007839194081040059
0.1354655,0.025328457723831,0.009678300049147834,0.011979531380629994,0.007036449157950874,0.061473377086648934,0.010902855108963216,0.04210365692251112,0.007745405228401062
0.135931,0.025540819091058743,0.009635715128463028,0.01203564704763071,0.007097332074084294,0.06210928471717567,0.01084500413617073,0.042374272198743373,0.007652264050339946
0.1363966,0.02575495747719813,0.009592990516846847,0.01209820943601215,0.007158585699236631,0.0627620938517238,0.010788836547266702,0.04265678821856862,0.007559780791782694
0.1368621,0.025970836672583243,0.009550127948069666,0.012167159103620841,0.007220195987431309,0.06343159813718138,0.010734362260323595,0.04295108668665969,0.007467965477481944
0.1373276,0.026188420022419293,0.009507129214333497,0.012242435292009022,0.007282148811124944,0.06411758605288452,0.010681590641806914,0.043257045708964006,0.007376827911757046
0.1377931,0.026407670435041775,0.009463996166499527,0.012323975944099569,0.007344429965243764,0.06481984098177657,0.010630530505302115,0.04357453984502484,0.007286377678267763
0.1382586,0.026628550390270348,0.009420730714237973,0.012411717722115275,0.00740702517123799,0.06553814128293424,0.010581190110394288,0.043903440161072164,0.007196624139822067
0.1387241,0.02685102194785361,0.009377334826102365,0.01250559602576912,0.007469920081153067,0.06627226036544956,0.010533577161701568,0.04424361428387377,0.007107576438218475
0.1391897,0.027075046756000858,0.009333810529530336,0.012605545010712116,0.007533100281716731,0.0670219667636563,0.01048769880806312,0.044594926455337226,0.007019243494123375
0.1396552,0.02730058605999691,0.00929015991077299,0.012711497607235285,0.007596551298440899,0.06778702421368908,0.01044356164188259,0.04495723758785364,0.006931634006983715
0.1401207,0.027527600710895963,0.009246385114754884,0.012823385539222161,0.007660258599737392,0.06856719173136272,0.010401171698627842,0.045330405320373635,0.006844756454975511
0.1405862,0.027756051174290693,0.009202488344866679,0.012941139343348161,0.00772420760104653,0.06936222369135883,0.01036053445648778,0.0457142840752062,0.006758619094988575
0.1410517,0.027985897539152895,0.009158471862692447,0.013064688388523015,0.007788383668977655,0.07017186990770645,0.01032165483618695,0.04610872511553049,0.006673229962647867
0.1415172,0.02821709952674249,0.009114337987673658,0.01319396089557242,0.007852772125460606,0.07099587571554239,0.010284537200958644,0.04651357660361034,0.006588596872371883
0.1419828,0.028449616499581786,0.009070089096711786,0.01332888395715492,0.007917358251907146,0.07183398205413678,0.010249185356677022,0.04692868365970124,0.006504727417468481
0.1424483,0.028683407470492417,0.009025727623711474,0.013469383557909909,0.007982127293381287,0.07268592555116875,0.01021560255214882,0.04735388842163861,0.006421628970268531
0.1429138,0.028918431111692688,0.008981256059066148,0.013615384594832578,0.008047064462777465,0.0735514386082366,0.010183791479565017,0.04778903010509676,0.006339308682297742
0.1433793,0.02915464576395333,0.008936676949087964,0.013766810897871563,0.008112154945005442,0.07443024948758638,0.010153754275112798,0.048233945064506914,0.0062577734844869864
0.1438448,0.029392009445809716,0.008891992895383902,0.013923585250744941,0.00817738390118077,0.07532208240004239,0.010125492519748092,0.04868846685462312,0.006177030087421408
0.1443103,0.029630479862828706,0.008847206554179848,0.014085629411970266,0.008242736472819655,0.07622665759412263,0.01009900724012884,0.04915242629272425,0.006097084981628547
0.1447759,0.029870014416928284,0.008802320635594454,0.014252864136104274,0.008308197786036944,0.07714369144632192,0.010074298909709144,0.0496256515214401,0.006017944437905679
0.1452414,0.030110570215747874,0.008757337902864568,0.014425209195188015,0.00837375295574598,0.07807289655254458,0.010051367449994353,0.05010796807218951,0.00593961450768658
0.1457069,0.0303521040820673,0.008712261171523922,0.014602583400393018,0.00843938708985901,0.07901398182066822,0.010030212231957181,0.050599198929217895,0.005862101023447841
0.1461724,0.03059457256327217,0.00866709330853678,0.014784904623864201,0.008505085293486755,0.07996665256421936,0.010010832077614893,0.05109916459422176,0.005785409599154847
0.1466379,0.03083793194086338,0.008621837231388174,0.014972089820755125,0.008570832673135778,0.08093061059714113,0.009993225261767581,0.051607683151547644,0.005709545630747526
0.1471034,0.031082138240008248,0.008576495907132355,0.015164055051451093,0.008636614340902233,0.08190555432963263,0.009977389513897539,0.05212457033395289,0.00563451429666591
0.147569,0.031327147239130784,0.008531072351401074,0.015360715503975617,0.008702415418660521,0.08289117886503923,0.00996332202022972,0.05264963958891533,0.005560320558415559
0.1480345,0.031572914479538416,0.008485569627373388,0.015561985516575595,0.008768221042245361,0.08388717609777176,0.009951019425953176,0.05318270214547894,0.005486969161172841
0.1485,0.031819395275082485,0.008439990844708685,0.015767778600480547,0.00883401636562566,0.08489323481223265,0.009940477837603339,0.053723567081621945,0.005414464634430065
0.1489655,0.03206654472184991,0.008394339158444699,0.015978007462831165,0.008899786565068573,0.08590904078272593,0.009931692825604988,0.054272041392133714,0.005342811292680476
0.149431,0.03231431770788368,0.008348617767862368,0.01619258402977242,0.008965516843292066,0.08693427687432721,0.009924659426975662,0.054827930056986066,0.00527201323614304
0.1498966,0.03256266892293033,0.008302829915319348,0.016411419469706465,0.009031192433604196,0.08796862314468934,0.009919372148189292,0.05539103611018433,0.005202074351526961
0.1503621,0.032811552868213176,0.008256978885054108,0.016634424216700607,0.009096798604027309,0.08901175694675856,0.009915824968199745,0.055961160709083156,0.005132998312835801
0.1508276,0.033060923866230586,0.008211068001962491,0.016861507994045684,0.009162320661405298,0.09006335303237543,0.009914011341623995,0.056538103204151584,0.005064788582211103
0.1512931,0.033310736070579515,0.00816510063034865,0.017092579837960337,0.009227743955492045,0.09112308365673369,0.009913924202084569,0.05712166120917173,0.004997448410815352
0.1517586,0.03356094347580458,0.008119080172652234,0.017327548121436755,0.009293053883019143,0.09219061868367,0.009915555965710856,0.05771163067185483,0.004930980839754171
0.1522241,0.03381149992727333,0.00807301006815369,0.017566320578223733,0.009358235891741134,0.09326562569175616,0.009918898534798855,0.058307805944858064,0.004865388701037611
0.1526897,0.03406235913107838,0.008026893791659523,0.017808804326942998,0.009423275484456522,0.09434777008116509,0.009923943301628808,0.058909979857185296,0.004800674618580423
0.1531552,0.03431347466396692,0.007980734852169331,0.01805490589533491,0.009488158223003028,0.09543671518128088,0.009930681152440161,0.059517943785954305,0.004736841009241172
0.1536207,0.03456479998329816,0.007934536791526399,0.01830453124462974,0.00955286973222563,0.09653212235902246,0.009939102471563177,0.06013148772851262,0.004673890083900028
0.1540862,0.034816288437029025,0.00788830318305359,0.018557585794040807,0.009617395703916143,0.0976336511278496,0.009949197145706433,0.06075040037488391,0.004611823848575053
0.1545517,0.03506789327372862,0.007842037630176255,0.018813974445375827,0.00968172190072315,0.09874095925741933,0.009960954568399395,0.06137446918052657,0.004550644105576758
0.1550172,0.03531956765262158,0.0077957437650337654,0.019073601607762756,0.009745834160031221,0.0998537028838602,0.009974363644589153,0.062003480439385944,0.0044903524547006786
0.1554828,0.035571264653660464,0.00774942524708128,0.01933637122248643,0.00980971839780844,0.10097153662063123,0.009989412795390373,0.06263721935722139,0.004430950294457669
0.1559483,0.035822937287627137,0.007703085761683216,0.01960218678793227,0.009873360612421193,0.10209411366993178,0.010006089962987382,0.06327547012518918,0.004372438823341589
0.1564138,0.036074538506262945,0.007656729018699872,0.019870951384633257,0.009936746888415322,0.10322108593462803,0.0100243826156873,0.06391801599366202,0.004314819041134044
0.1568793,0.03632602121242749,0.007610358751068586,0.020142567700416388,0.009999863400262658,0.10435210413066193,0.01004427775312304,0.06456463934626516,0.004258091750245761
0.1573448,0.03657733827028582,0.007563978713380756,0.020416938055644648,0.010062696416072011,0.10548681789990744,0.010065761911604909,0.06521512177410901,0.0042022575570941564
0.1578103,0.0368284425155239,0.007517592680455976,0.02069396442855061,0.010125232301263595,0.10662487592343907,0.01008882116961949,0.06586924415019782,0.004147316873516672
0.1582759,0.03707928676559245,0.007471204445914492,0.020973548480657606,0.010187457522205878,0.10776592603517728,0.010113441153474392,0.06652678670399309,0.004093269918219366
0.1587414,0.03732982382997942,0.0074248178207491486,0.021255591582284246,0.010249358649813769,0.1089096153358747,0.010139607043087397,0.06718752909611043,0.0040401167182602836
0.1592069,0.037580006520511154,0.007378436631897914,0.021539994838128074,0.010310922363107064,0.11005559030740768,0.010167303577918424,0.06785125049312744,0.0039878571105671
0.1596724,0.03782978766168267,0.007332064720818033,0.021826659112923863,0.010372135452727985,0.11120349692733637,0.010196515063042668,0.0685177296424802,0.003936490743488532
0.1601379,0.03807912010101712,0.0072857059420628,0.022115485057172035,0.010432984824416664,0.11235298078369722,0.010227225375363193,0.06918674494742522,0.0038860170783790024
0.1606034,0.03832795671945459,0.007239364161861902,0.02240637313293243,0.010493457502443416,0.11350368718999035,0.010259417969961169,0.06985807454204311,0.003836435391216021
0.161069,0.03857625044177009,0.007193043256706246,0.022699223639678662,0.010553540632996669,0.11465526130032448,0.010293075886581928,0.07053149636625956,0.003787744774249729
0.1615345,0.038823954247020474,0.00714674711193815,0.022993936740208054,0.010613221487525465,0.11580734822468168,0.010328181756254915,0.07120678824085883,0.003739944137684031
0.162,0.039071021179019665,0.007100479620347758,0.023290412486602106,0.010672487466035451,0.1169595931442633,0.010364717808045527,0.07188372794246427,0.0036930322113887188
0.1624655,0.03931740435684147,0.007054244680776508,0.02358855084623227,0.010731326100337288,0.1181116414268784,0.010402665875936827,0.07256209327846001,0.0036470075466419585
0.162931,0.03956305698534905,0.0070080461967284985,0.02388825172780566,0.010789725057246386,0.11926313874233521,0.010442007405838973,0.07324166216182729,0.0036018685179024985
0.1633966,0.03980793236574969,0.006961888074990562,0.024189415007445158,0.010847672141732816,0.12041373117779564,0.010482723462724183,0.07392221268586846,0.0035576133246109282
0.1638621,0.040051983906173615,0.006915774224261885,0.02449194055479834,0.010905155300020234,0.12156306535305203,0.010524794737884906,0.07460352319879161,0.0035142399930193206
0.1643276,0.040295165132274886,0.006869708553793981,0.024795728259169366,0.01096216262263281,0.12271078853568503,0.010568201556312858,0.07528537237812785,0.0034717463780485703
0.1647931,0.04053742969785272,0.006823694972041802,0.02510067805566815,0.011018682347389081,0.12385654875605959,0.010612923884196402,0.0759675393049534,0.003430130165172727
0.1652586,0.04077873139549111,0.006777737385326771,0.025406689951370697,0.011074702862341907,0.1249999949221161,0.010658941336533792,0.07664980353788801,0.0033893888723296167
0.1657241,0.04101902416721469,0.006731839696512483,0.02571366405148459,0.011130212708663798,0.12614077693391204,0.010706233184859585,0.07733194518684104,0.0033495198518570138
0.1661897,0.04125826211515845,0.006686005803693821,0.026021500585513238,0.011185200583477084,0.12727854579786943,0.010754778365081508,0.07801374498647602,0.0033105202924536437
0.1666552,0.04149639951224907,0.006640239598900212,0.026330099933412583,0.011239655342628501,0.12841295374068193,0.010804555485424994,0.07869498436936488,0.0032723872211642777
0.1671207,0.04173339081289518,0.006594544966813742,0.02663936265173364,0.011293566003407886,0.12954365432283527,0.01085554283448252,0.07937544553880224,0.0032351175053881814
0.1675862,0.041969190663684035,0.006548925783502826,0.026949189499744026,0.011346921747210735,0.13067030255169398,0.010907718389364812,0.08005491154125077,0.0031987078549101846
0.1680517,0.042203753914082175,0.006503385915172107,0.027259481465521557,0.011399711922144463,0.13179255499410755,0.010961059823950983,0.08073316633838828,0.003163154823953645
0.1685172,0.042437035627137486,0.006457929216929224,0.027570139792012647,0.011451926045578192,0.13291006988848877,0.011015544517234663,0.08140999487872778,0.0031284548132545866
0.1689828,0.042668991090180776,0.006412559531569074,0.027881066003048155,0.011503553806635996,0.134022507256317,0.011071149561763142,0.08208518316878143,0.003094604072156297
0.1694483,0.042899575825524956,0.006367280688376159,0.028192161929309047,0.011554585068633562,0.13512952901301928,0.011127851772166589,0.0827585183437398,0.0030615987007236592
0.1699138,0.04312874560116016,0.006322096501945561,0.028503329734234063,0.011605009871458233,0.13623079907818142,0.011185627693774422,0.08342978873763802,0.003029434651876498
0.1703793,0.043356456441443085,0.006277010771023108,0.028814471939861367,0.011654818433892532,0.13732598348504124,0.011244453611315904,0.08409878395298041,0.002998107733541223
0.1708448,0.04358266463777907,0.006232027277365258,0.029125491452595888,0.011704001155881154,0.13841475048921498,0.011304305557701998,0.08476529492979533,0.002967613610820036
0.1713103,0.04380732675929503,0.006187149784619188,0.02943629158889387,0.011752548620741446,0.13949677067660793,0.01136515932288552,0.08542911401409224,0.0029379478081770155
0.1717759,0.0440303996635016,0.006142382037223562,0.029746776100855927,0.011800451597317272,0.14057171707045937,0.011426990462796572,0.08609003502569264,0.0029091057116403876
0.1722414,0.04425184050694256,0.006097727759330387,0.030056849201719676,0.011847701042076152,0.14163926523747195,0.011489774308350135,0.08674785332540705,0.0028810825710203526
0.1727069,0.0444716067558294,0.006053190653748357,0.030366415591242826,0.01189428810114944,0.14269909339297626,0.011553485974522652,0.08740236588152969,0.0028538735021418353
0.1731724,0.04468965619665872,0.006008774400908035,0.030675380480967435,0.011940204112315242,0.1437508825050809,0.011618100369494348,0.08805337133562265,0.002827473489091575
0.1736379,0.0449059469468098,0.0059644826578491615,0.03098364961935591,0.011985440606923728,0.14479431639775855,0.011683592203853923,0.0887006700675615,0.002801877386478967
0.1741034,0.04512043746511953,0.005920319057230358,0.03129112931678907,0.012029989311764445,0.14582908185281984,0.011749935999862224,0.08934406425981416,0.0027770799217100724
0.174569,0.045333086562431464,0.005876287206361403,0.031597726470416615,0.012073842150875069,0.14685486871072514,0.011817106100771378,0.08998335796092488,0.002753075697274224
0.1750345,0.045543853412115344,0.005832390686258247,0.03190334858884999,0.01211699124729116,0.14787136997018635,0.011885076680195863,0.09061835714817505,0.002729859193042627
0.1755,0.04575269756055315,0.0057886330507208724,0.032207903816687554,0.012159428924736324,0.14887828188650945,0.011953821751531849,0.09124886978939199,0.0027074247685783775
0.1759655,0.045959578937587335,0.005745017825434047,0.03251130095886188,0.012201147709252208,0.14987530406862945,0.012023315177421204,0.09187470590387722,0.002685766665457306
0.176431,0.04616445786692674,0.005701548507091003,0.032813449504798746,0.01224214033076773,0.15086213957478845,0.01209353067925649,0.09249567762242504,0.002664879009599045
0.1768966,0.04636729507650521,0.005658228562540023,0.033114259652377374,0.012282399724606898,0.151838495006808,0.012164441846723313,0.09311159924640158,0.0026447558136077345
0.1773621,0.046568051708787944,0.005615061427953928,0.0334136423316812,0.012321919032934605,0.1528040806029062,0.012236022147376364,0.09372228730585455,0.002625390979121765
0.1778276,0.04676668933102047,0.005572050508022429,0.03371150922852862,0.01236069160613969,0.15375861032900995,0.012308244936245558,0.09432756061662331,0.0026067782991719517
0.1782931,0.04696316994541503,0.005529199175167297,0.03400777280777288,0.012398711004154619,0.15470180196851152,0.01238108346546874,0.09492724033641907,0.0025889114605475495
0.1787586,0.04715745599926928,0.00548651076878029,0.03430234633636032,0.012435970997711121,0.15563337721041862,0.01245451089394742,0.0955211500198443,0.002571784046169507
0.1792241,0.04734951039501198,0.00544398859448376,0.03459514390613626,0.012472465569531124,0.15655306173584563,0.012528500297022063,0.09610911567232053,0.0025553895374703763
0.1796897,0.047539296500170435,0.005401635923413813,0.03488608045638796,0.012508188915452429,0.15746058530279292,0.012603024676163551,0.09669096580289256,0.00253972131678029
0.1801552,0.04772677815725419,0.005359455991525884,0.03517507179611392,0.012543135445488613,0.1583556818291612,0.012678056968677399,0.0972665314758777,0.002524772669718438
0.1806207,0.04791191969354911,0.00531745199892254,0.03546203462600918,0.012577299784822662,0.15923808947394805,0.012753570057417308,0.09783564636132713,0.002510536787589479
0.1810862,0.04809468593081571,0.005275627109203323,0.03574688656015647,0.012610676774733976,0.1601075507165746,0.012829536780504663,0.09839814678426646,0.0024970067697843343
0.1815517,0.04827504219488556,0.005233984448836366,0.03602954614741323,0.012643261473458392,0.16096381243429497,0.012905929941050474,0.09895387177268167,0.002484175626184804
0.1820172,0.04845295432514903,0.005192527106551552,0.03630993289248482,0.012675049156981017,0.16180662597764534,0.012982722316876154,0.09950266310421628,0.0024720362795714297
0.1824828,0.048628388683927354,0.005151258132754929,0.03658796727667461,0.012706035319761737,0.1626357472438963,0.013059886670229604,0.10004436535154526,0.002460581568034014
0.1829483,0.04880131216572194,0.005110180538964112,0.036863570778302164,0.012736215675393393,0.16345093674847969,0.013137395757492848,0.10057882592639114,0.0024498042473841924
0.1834138,0.04897169220633327,0.005069297297264378,0.03713666589278109,0.012765586157192758,0.1642519596943659,0.013215222338877506,0.10110589512214868,0.002439696993569435
0.1838793,0.04913949679184141,0.005028611339785192,0.037407176152348655,0.012794142918724551,0.16503858603937294,0.013293339188104342,0.10162542615508519,0.002430252405087829
0.1843448,0.049304694467439875,0.00498812555819684,0.03767502614543963,0.01282188233425886,0.16581059056139147,0.013371719102063036,0.10213727520408541,0.0024214630054029975
0.1848103,0.04946725434611408,0.004947842803226884,0.03794014153569758,0.012848800999162451,0.1665677529215128,0.013450334910448353,0.10264130144891241,0.002413321245358475
0.1852759,0.04962714611715542,0.004907765884196094,0.038202449080616895,0.012874895730224566,0.16730985772504667,0.013529159485368817,0.10313736710695788,0.0024058195055908613
0.1857414,0.049784340054501906,0.004867897568573509,0.03846187664980959,0.012900163565917852,0.16803669458041673,0.013608165750923962,0.10362533746845852,0.0023989500989410584
0.1862069,0.04993880702489593,0.004828240581550265,0.03871835324289098,0.012924601766595222,0.1687480581559207,0.013687326692746252,0.10410508093015765,0.0023927052728628783
0.1866724,0.05009051849585006,0.004788797605631751,0.03897180900697862,0.0129482078146234,0.1694437482343417,0.013766615367503721,0.10457646902739541,0.0023870772118283266
0.1871379,0.050239446543411656,0.004749571280247691,0.03922217525379895,0.012970979414453939,0.17012356976539583,0.013846004912359489,0.10503937646461384,0.002382058039728849
0.1876034,0.050385563859717264,0.004710564201379643,0.039469384476396155,0.012992914492632505,0.17078733291600165,0.01392546855438437,0.10549368114426651,0.002377639822271842
0.188069,0.05052884376032811,0.0046717789212054415,0.03971337036543742,0.013014011197747177,0.17143485311835607,0.014004979619918907,0.10593926419412622,0.0023738145693717617
0.1885345,0.050669260191338224,0.004633217947760024,0.03995406782510885,0.013034267900316497,0.17206595111580295,0.014084511543881233,0.10637600999298674,0.0023705742375351715
0.189,0.05080678773624715,0.004594883744612107,0.04019141298859581,0.013053683192617996,0.1726804530064809,0.014164037879017276,0.10680380619475742,0.0023679107322391118
0.1894655,0.050941401622590185,0.004556778730556142,0.04042534323314146,0.0130722558884578,0.1732781902847382,0.014243532305089839,0.10722254375095218,0.0023658159103021993
0.189931,0.05107307772831962,0.004518905279319026,0.04065579719467672,0.013089985022881894,0.17385899988030407,0.014322968638003062,0.10763211693157594,0.0023642815822478894
0.1903966,0.05120179258793158,0.004481265719281073,0.04088271478201504,0.013106869851829583,0.1744227241952079,0.01440232083885888,0.10803242334441228,0.0023632995146593617
0.1908621,0.051327523398333935,0.004443862333210759,0.041106037190605085,0.013122909851729548,0.17496921113843822,0.014481563022941905,0.10842336395271682,0.0023628614325255023
0.1913276,0.05145024802445192,0.004406697358012874,0.04132570691583443,0.01313810471903897,0.17549831415833533,0.014560669468629215,0.1088048430913206,0.0023629590215774555
0.1917931,0.051569945004568817,0.004369772984489705,0.04154166776587711,0.013152454369726025,0.17600989227271335,0.014639614626221396,0.10917676848114713,0.0023635839306152253
0.1922586,0.05168659355540031,0.004333091357114991,0.04175386487407785,0.01316595893869611,0.17650381009670746,0.014718373126691156,0.10953905124214629,0.002364727773823814
0.1927241,0.05180017357690184,0.004296654573820393,0.04196224471086542,0.013178618779162063,0.17697993786834493,0.014796919790345696,0.10989160590464822,0.0023663821330784135
0.1931897,0.05191066565680888,0.004260464685794302,0.04216675509518713,0.013190434461958602,0.17743815147183842,0.01487522963539901,0.11023435041914009,0.0023685385602381696
0.1936552,0.05201805107491079,0.004224523697292842,0.042367345205456534,0.01320140677480119,0.177878332458602,0.014953277886450183,0.11056720616446905,0.0023711885794280695
0.1941207,0.05212231180705874,0.004188833565462934,0.042563965590005685,0.013211536721489494,0.178300368065992,0.015031039982863788,0.11089009795447498,0.002374323689308514
0.1945862,0.05222343052890863,0.004153396200177363,0.042756568177033515,0.01322082552105566,0.178704151233776,0.015108491587048372,0.11120295404305755,0.002377935365332129
0.1950517,0.05232139061939945,0.004118213463881817,0.04294510628404172,0.013229274606857579,0.17908958061833485,0.015185608592629038,0.11150570612768379,0.0023820150619873787
0.1955172,0.052416176163967244,0.004083287171453879,0.04312953462674951,0.01323688562561737,0.17945656060460533,0.015262367132510056,0.11179828935134288,0.0023865542150285383
0.1959828,0.0525077719574946,0.004048619090074011,0.04330980932747898,0.013243660436405385,0.17980500131577365,0.015338743586823302,0.11208064230295776,0.0023915442436915684
0.1964483,0.052596163506995294,0.004014210939108569,0.043485887923003175,0.013249601109569962,0.18013481862073127,0.01541471459075831,0.11235270701626379,0.002396976552895447
0.1969138,0.05268133703403334,0.003980064390004915,0.04365772937184976,0.013254709925613322,0.18044593413930815,0.015490257042269601,0.11261442896716797,0.0024028425354285206
0.1973793,0.05276327947687541,0.003946181066198637,0.04382529406105344,0.013258989374013977,0.18073827524530045,0.01556534810965686,0.11286575706960388,0.0024091335741194455
0.1978448,0.052841978492375305,0.003912562543032978,0.04398854381235178,0.013262442151996144,0.18101177506731203,0.01563996523901344,0.11310664366990023,0.002415841043992289
0.1983103,0.05291742245758891,0.003879210347690471,0.0441474418878198,0.013265071163246713,0.18126637248743077,0.015714086161538663,0.113337044539683,0.0024229563144053533
0.1987759,0.05298960047111764,0.003846125959136844,0.04430195299493979,0.013266879516580418,0.18150201213776182,0.01578768890070923,0.11355691886733364,0.0024304707511732912
0.1992414,0.05305850235417833,0.0038133108080772166,0.04445204329110391,0.013267870524554009,0.18171864439484037,0.015860751779305137,0.11376622924802751,0.002438375718672071
0.1997069,0.053124118651397156,0.0037807662769246335,0.044597680387548244,0.013268047702030224,0.18191622537194568,0.015933253426285453,0.11396494167237882,0.002446662581926344
0.2001724,0.05318644063132495,0.0037484936997809457,0.044738833352717895,0.013267414764692568,0.18209471690933807,0.016005172783509283,0.11415302551371964,0.0024553227086787735
0.2006379,0.05324546028667102,0.003716494362430049,0.04487547271506379,0.013265975627511901,0.18225408656243858,0.01607648911229737,0.11433045351404242,0.0024643474714408985
0.2011034,0.053301170334252676,0.003684769502343481,0.04500757046527292,0.013263734403165856,0.18239430758797073,0.016147181999829903,0.11449720176863672,0.0024737282495251272
0.201569,0.05335356421465774,0.0036533203086983367,0.04513510005793443,0.01326069540041217,0.18251535892808218,0.016217231365376266,0.11465324970945241,0.002483456431057499
0.2020345,0.05340263609161751,0.0036221479224074447,0.045258036412644954,0.013256863122416977,0.1826172251924635,0.01628661746635277,0.11479858008722246,0.0024935234149709106
0.2025,0.053448380851088245,0.0035912534361617157,0.04537635591455711,0.013252242265038993,0.18269989663847996,0.0163553209042048,0.11493317895237849,0.002503920612978579
0.2029655,0.053490794100039735,0.003560637894484553,0.0454900364143759,0.013246837715070533,0.1827633691493331,0.01642332263011014,0.11505703563479348,0.002514639451527583
0.203431,0.05352987216495047,0.003530302293798191,0.04559905722780798,0.013240654548436152,0.18280764421026846,0.016490603950500643,0.11517014272238531,0.0025256713737323894
0.2038966,0.05356561209000966,0.003500247582501808,0.04570339913446912,0.013233698028349661,0.18283272888284574,0.016557146532399918,0.11527249603861432,0.0025370078412883233
0.2043621,0.05359801163502724,0.0034704746610612434,0.04580304437625548,0.013225973603430181,0.18283863577728868,0.016622932408574785,0.11536409461890743,0.002548640336364952
0.2048276,0.05362706927305392,0.00344098438211017,0.045897976655184455,0.013217486905777771,0.18282538302293205,0.01668794398249881,0.11544494068604076,0.002560560363479364
0.2052931,0.053652784187714034,0.0034117775505625655,0.04598818113071081,0.013208243749009179,0.1827929942367841,0.016752164033126273,0.11551503962451219,0.0025727594513493355
0.2057586,0.053675156270254966,0.003382854923736343,0.04607364441652391,0.01319825012625407,0.18274149849022356,0.016815575719475263,0.11557439995393476,0.0025852291547263442
0.2062241,0.05369418611631753,0.003354217211488034,0.046154354576831515,0.013187512208112094,0.18267093027385084,0.016878162585018824,0.11562303330148119,0.002597961056208395
0.2066897,0.053709875022432636,0.0033258650763584403,0.04623030112213565,0.013176036340571082,0.18258132946051436,0.016939908561883193,0.11566095437341013,0.0026109467680325927
0.2071552,0.053722224982250155,0.0032977991337291715,0.04630147500450567,0.013163829042886531,0.18247274126653246,0.017000797974852558,0.11568818092570385,0.0026241779338474
0.2076207,0.05373123868250642,0.0032700199519900366,0.04636786861235326,0.013150897005422523,0.18234521621113325,0.017060815545179787,0.11570473373384761,0.00263764623046451
0.2080862,0.0537369194987373,0.003242528052717257,0.046429475764714144,0.013137247087454104,0.18219881007413533,0.0171199463942028,0.1157106365617809,0.0026513433695902764
0.2085517,0.053739271490744187,0.0032153239108625013,0.046486291705040844,0.013122886314931009,0.18203358385189272,0.017178176046766403,0.11570591613005057,0.0026652610995366844
0.2090172,0.053738299397820224,0.0031884079549527604,0.0465383130945108,0.013107821878202638,0.18184960371152886,0.01723549043444945,0.1156906020831964,0.0026793912069118424
0.2094828,0.05373400863374443,0.0031617805673010827,0.04658553800485429,0.013092061129703961,0.18164694094348588,0.017291875898597205,0.11566472695639943,0.002693725518290023
0.2099483,0.05372640528155095,0.0031354420842281986,0.0466279659107064,0.013075611581602071,0.18142567191241576,0.017347319193158805,0.11562832614142386,0.002708255901861287
0.2104138,0.05371549608808071,0.003109392796295063,0.04666559768148754,0.01305848090340292,0.181185878006442,0.01740180748732953,0.11558143785188299,0.0027229742690607433
0.2108793,0.05370128845832272,0.003083632948546317,0.0466984355728172,0.013040676919517805,0.18092764558482144,0.017455328367997576,0.11552410308785926,0.002737872576177494
0.2113448,0.053683790449551634,0.0030581627407646585,0.046726483217465586,0.013022207606789148,0.18065106592403643,0.01750786984199492,0.11545636559990877,0.002752942825943329
0.2118103,0.053663010765268554,0.0030329823277360944,0.04674974561584816,0.013003081091975111,0.18035623516235003,0.017559420338151756,0.1153782718524795,0.0027681770691012297
0.2122759,0.053638958748951485,0.0030080918195260135,0.04676822912606819,0.012983305649192613,0.180043254242857,0.017609968709154,0.11528987098677211,0.0027835674059537453
0.2127414,0.05361164437762173,0.0029834912817660224,0.04678194145351269,0.012962889697318323,0.1797122288550651,0.017659504233203303,0.11519121478307166,0.0027991059878912992
0.2132069,0.05358107825523268,0.0029591807359514773,0.04679089164000725,0.012941841797347224,0.17936326937504207,0.017708016615479116,0.11508235762257812,0.002814785018900473
0.2136724,0.05354727160588677,0.002935160159749649,0.04679509005253548,0.01292017064970824,0.1789964908041642,0.01775549598940231,0.11496335644876311,0.002830596757052297
0.2141379,0.05351023626688629,0.002911429487318453,0.046794548371529236,0.01289788509153645,0.17861201270650326,0.017801932917700106,0.1148342707282791,0.0028465335159705693
0.2146034,0.05346998468162317,0.002887988609635709,0.04678927957873596,0.012874994093901408,0.17820995914488982,0.01784731839327212,0.11469516241144713,0.002862587666280196
0.215069,0.05342652989231294,0.0028648373748388703,0.04677929794467003,0.01285150675899114,0.1777904586156899,0.01789164383985749,0.11454609589234784,0.002878751637035543
0.2155345,0.053379885532577324,0.0028419755885751947,0.04676461901565538,0.012827432317251503,0.17735364398233297,0.01793490111250338,0.11438713796854008,0.0028950179171287633
0.216,0.05333006581988029,0.0028194030143623107,0.04674525960046746,0.01280278012448068,0.17689965240762848,0.017977082497835185,0.11421835780043042,0.0029113790566780606
0.2164655,0.05327708554782186,0.0027971193739591465,0.04672123775658265,0.01277755965887867,0.17642862528490805,0.018018180714129146,0.11403982687031616,0.0029278276683958066
0.216931,0.05322096007829422,0.002775124347747159,0.046692572776044196,0.012751780518051689,0.1759407081680287,0.01805818891118826,0.113851618941124,0.0029443564289364454
0.2173966,0.05316170533350462,0.002753417575121823,0.04665928517095407,0.012725452415971531,0.17543605070027263,0.018097100670022608,0.11365381001486602,0.0029609580802241017
0.2178621,0.0530993377878695,0.0027319986548942836,0.04662139665860068,0.012698585179889938,0.17491480654217773,0.01813491000233551,0.11344647829083392,0.00297762543075981
0.2183276,0.053033874459784455,0.0027108671457030924,0.04657893014623284,0.012671188747208127,0.17437713329833385,0.01817161134981711,0.1132297041235521,0.0029943513569082978
0.2187931,0.052965332903274626,0.002690022566435937,0.046531909715490864,0.012643273162301651,0.17382319244317904,0.018207199583247305,0.11300356998050992,0.003011128804164254
0.2192586,0.05289373119953008,0.002669464396661255,0.046480360606506184,0.012614848573300868,0.1732531492458313,0.018241670001410266,0.11276816039969263,0.0030279507883980363
0.2197241,0.05281908794833073,0.0026491920770696214,0.04642430920168134,0.012585925228827384,0.17266717269399226,0.018275018329822902,0.11252356194693029,0.0030448103970807743
0.2201897,0.05274142225936547,0.002629205009924793,0.04636378300916227,0.012556513474686951,0.17206543541696012,0.018307240719279905,0.1122698631730828,0.003061700790488825
0.2206552,0.05266075374344997,0.0026095025595242656,0.046298810646015355,0.012526623750519363,0.1714481136077897,0.01833833374421821,0.11200715457107839,0.0030786152028875425
0.2211207,0.05257710250364785,0.002590084052669205,0.04622942182112199,0.012496266586406058,0.17081538694463924,0.018368294400903755,0.11173552853282252,0.0030955469436943005
0.2215862,0.052490489126299986,0.002570948779143586,0.04615564731780355,0.012465452599436263,0.17016743851134425,0.018397120105443657,0.11145507930599244,0.00311248939862071
0.2220517,0.05240093467196652,0.0025520959922023666,0.046077518976189724,0.012434192490232625,0.169504454717259,0.01842480869162682,0.11116590295073275,0.0031294360307939514
0.2225172,0.052308460666286305,0.0025335249090685076,0.04599506967534353,0.01240249703943742,0.16882662521640815,0.018451358408596255,0.11086809729626576,0.0031463803818571113
0.2229828,0.052213089090757926,0.002515234711438656,0.04590833331515607,0.012370377104160503,0.16813414282599062,0.018476767918356347,0.11056176189742942,0.0031633160730484083
0.2234483,0.05211484237344648,0.0024972245459972953,0.045817344798024115,0.012337843614390333,0.16742720344428014,0.01850103629311854,0.11024699799115484,0.0031802368062591505
0.2239138,0.052013743379619864,0.00247949352493917,0.04572214001032344,0.012304907569369484,0.16670600596796606,0.018524163012488947,0.10992390845289467,0.0031971363650702585
0.2243793,0.05190981540231821,0.0024620407264997965,0.04562275580369032,0.012271580033936122,0.1659707522089798,0.018546147960501625,0.1095925977530125,0.0032140086157671642
0.2248448,0.051803082152859586,0.0024448651954938646,0.045519229976123836,0.012237872134833091,0.16522164681085225,0.018566991422501303,0.10925317191314274,0.003230847508332859
0.2253103,0.051693567751284766,0.0024279659438613517,0.04541160125292087,0.012203795056986235,0.1644588971646479,0.0185866940818795,0.10890573846252945,0.0032476470774188645
0.2257759,0.051581296716743996,0.002411341951221147,0.04529990926745533,0.012169360039753573,0.1636827133245223,0.018605257016667993,0.10855040639435268,0.003264401443293857
0.2262414,0.051466293957828285,0.002394992165431993,0.045184194541813,0.012134578373147038,0.1628933079229489,0.018622681695993584,0.10818728612204949,0.003281104812769675
0.2267069,0.051348584762847996,0.002378915503160538,0.04506449846729282,0.012099461394028382,0.16209089608566135,0.01863896997639808,0.10781648943563725,0.0032977514801044118
0.2271724,0.05122819479006185,0.0023631108504563016,0.044940863284785144,0.012064020482280781,0.16127569534635766,0.018654124098027296,0.10743812945804655,0.0033143358278822765
0.2276379,0.0511051500578597,0.002347577063333348,0.04481333206503722,0.012028267056957621,0.1604479255612112,0.018668146680692842,0.10705232060147118,0.0033308523278698945
0.2281034,0.05097947693490257,0.0023323129683584763,0.044681948688815656,0.011992212572409854,0.15960780882323367,0.01868104071981033,0.10665917852374276,0.0033472955418487175
0.228569,0.05085120213022396,0.0023173173632457388,0.04454675782697535,0.011955868514393323,0.15875556937653396,0.018692809582217473,0.10625882008473775,0.0033636601224231897
0.2290345,0.050720352683296346,0.0023025890174571285,0.04440780492044407,0.011919246396157358,0.157891433530516,0.01870345700187541,0.10585136330282531,0.003379940813804322
0.2295,0.050586955954066946,0.0022881266728092733,0.044265136160131335,0.011882357754515984,0.1570156295740572,0.018712987075456412,0.10543692731136486,0.0033961324525683292
0.2299655,0.05045103961296698,0.002273929044085983,0.04411879846677005,0.011845214145903074,0.1561283876897087,0.01872140425782108,0.10501563231526294,0.0034122299683899773
0.230431,0.05031263163089868,0.002259994819656488,0.04396883947069877,0.011807827142412863,0.15522993986795622,0.018728713357387797,0.10458759954759934,0.0034282283847502835
0.2308966,0.05017176026920472,0.002246322662099189,0.04381530749159227,0.01177020832782726,0.15432051982158074,0.018734919531397224,0.10415295122633335,0.0034441228196182305
0.2313621,0.050028454069624965,0.0022329112088307393,0.043658251518147714,0.011732369293631585,0.15340036290015477,0.018740028281074406,0.10371181051110101,0.003459908486106111
0.2318276,0.04988274184424586,0.0022197590727402574,0.04349772118773314,0.011694321635020346,0.15246970600471108,0.018744045446691025,0.10326430146011485,0.0034755806930981243
0.2322931,0.04973465266544833,0.0022068648428284765,0.04333376676600525,0.01165607694689483,0.15152878750261756,0.018746977202530206,0.10281054898717687,0.0034911348458518256
0.2327586,0.04958421585586027,0.0021942270848516318,0.04316643912650287,0.01161764681985447,0.15057784714269265,0.01874883005175624,0.10235067881881539,0.003506566446572007
0.2332241,0.049431460978319755,0.0021818443419698735,0.04299578973022227,0.011579042836183986,0.14961712597059423,0.018749610821191715,0.10188481745155588,0.003521871094956578
0.2336897,0.0492764178258554,0.00216971513539999,0.042821870605180466,0.011540276565838455,0.1486468662445136,0.01874932665600433,0.10141309210933618,0.00353704448871401
0.2341552,0.04911911641168997,0.002157837965072212,0.042644734325972426,0.01150135956242856,0.1476673113512063,0.018747985014305857,0.10093563070107557,0.0035520824240518585
0.2346207,0.04895958695927316,0.0021462113102908653,0.042464433993328006,0.011462303359208389,0.14667870572239056,0.018745593661665685,0.10045256177840801,0.0035669807961358864
0.2350862,0.048797859892349235,0.002134833630398624,0.04228102321367448,0.011423119465068216,0.1456812947515434,0.018742160665541407,0.09996401449358905,0.0035817355995192697
0.2355517,0.04863396582506494,0.0021237033654441157,0.042094556078710384,0.011383819360534727,0.1446753247111249,0.018737694389628905,0.09947011855758608,0.003596342928541344
0.2360172,0.04846793555212282,0.0021128189368526443,0.041905087144996356,0.011344414493781268,0.14366104267025936,0.0187322034881344,0.09897100419836102,0.0036107989776953584
0.2364828,0.048299800038984514,0.002102178748099782,0.04171267141356882,0.011304916276650619,0.1426386964129022,0.018725696899971,0.09846680211935421,0.0036251000419646926
0.2369483,0.048129590412128574,0.0020917811853875972,0.04151736430958212,0.011265336080692854,0.1416085343565213,0.018718183842882277,0.09795764345817742,0.0036392425171270044
0.2374138,0.04795733794936684,0.002081624618323269,0.04131922166198485,0.01122568523322086,0.140570805471321,0.018709673807495452,0.09744365974552324,0.0036532229000258033
0.2378793,0.04778307407022312,0.002071707400599829,0.04111829968323601,0.011185975013385991,0.13952575920003618,0.01870017655130688,0.09692498286429808,0.0036670377888089797
0.2383448,0.0476068303263781,0.002062027870678769,0.04091465494906676,0.011146216648276348,0.13847364537832332,0.018689702092602574,0.09640174500898528,0.0036806838831338704
0.2388103,0.047428638392184086,0.0020525843524742526,0.040708344378293564,0.011106421309040125,0.1374147141557752,0.018678260704316604,0.0958740786452442,0.0036941579843384757
0.2392759,0.047248530055253556,0.0020433751560386348,0.04049942521268867,0.011066600107036428,0.1363492159175842,0.018665862907830417,0.09534211646975119,0.0037074569955784817
0.2397414,0.04706653720712541,0.0020343985782490057,0.04028795499691367,0.011026764090015859,0.13527740120687906,0.01865251946671606,0.09480599137028753,0.0037205779219297488
0.2402069,0.04688269183401291,0.002025652903494463,0.04007399155852233,0.010986924238333175,0.1341995206477583,0.018638241380426367,0.09426583638607947,0.0037335178704559556
0.2406724,0.046697026007637504,0.002017136404363796,0.039857592988038856,0.010947091461194273,0.1331158248690429,0.018623039877935146,0.09372178466839443,0.0037462740502410847
0.2411379,0.04650957187615232,0.002008847342333262,0.03963881761911782,0.010907276592939661,0.132026564428769,0.018606926411330254,0.09317396944139825,0.0037588437723864885
0.2416034,0.04632036165515913,0.0020007839684541328,0.03941772400879218,0.01086749038936663,0.13093198973944226,0.018589912649362373,0.0926225239632775,0.003771224449972323
0.242069,0.046129427618822216,0.0019929445240397014,0.03919437091781591,0.010827743524092258,0.12983235099407217,0.018572010470952076,0.09206758148763115,0.0037834135979831858
0.2425345,0.04593680209108204,0.0019853272413514443,0.0389688172911078,0.010788046584959344,0.12872789809300625,0.018553231958657747,0.0915092752251365,0.0037954088331978676
0.243,0.045742517436971324,0.00197793034428406,0.038741122238303075,0.010748410070487317,0.12761888057158144,0.018533589392106704,0.09094773830549374,0.003807207874043173
0.2434655,0.045546606054035654,0.0019707520490491043,0.03851134501441935,0.01070884438637008,0.12650554752861012,0.018513095241391893,0.0903831037396546,0.0038188085404118146
0.243931,0.045349100363860424,0.00196379056485695,0.03827954500064346,0.010669359842022755,0.1253881475557169,0.018491762160436475,0.08981550438233962,0.0038302087534444174
0.2443966,0.045150032803705685,0.001957044094596807,0.038045781685245694,0.010629966647179174,0.12426692866754135,0.01846960298032866,0.08924507289485009,0.003841406535275668
0.2448621,0.04494943581824988,0.0019505108355145344,0.037810114644627454,0.010590674908541903,0.12314213823282188,0.01844663070262932,0.0886719417081798,0.0038524000087446554
0.2453276,0.04474734185144344,0.0019441889798879708,0.03757260352450868,0.010551494626486578,0.12201402290637403,0.018422858492655153,0.08809624298643268,0.0038631873970694456
0.2457931,0.04454378333847294,0.001938076715699534,0.03733330802126093,0.01051243569182224,0.12088282856197632,0.018398299672740297,0.08751810859055188,0.0038737670234859356
0.2462586,0.04433879269783631,0.001932172227305828,0.037092287863391846,0.01047350788260927,0.11974880022617587,0.018372967715479697,0.08693767004236658,0.0038841373108510517
0.2467241,0.04413240232352973,0.0019264736961040238,0.03684960279318663,0.010434720861036511,0.11861218201302456,0.01834687623695751,0.08635505848896284,0.003894296781210344
0.2471897,0.04392464457734675,0.0019209793011947817,0.03660531254851211,0.010396084170359083,0.117473217059756,0.01832003898996403,0.08577040466738538,0.0039042440553300416
0.2476552,0.04371555178129034,0.0019156872200414923,0.036359476844788755,0.010357607231898299,0.1163321474634126,0.018292469857204525,0.08518383886967798,0.003913977852193613
0.2481207,0.04350515621009858,0.001910595629125611,0.03611215535713611,0.010319299342105057,0.11518921421843058,0.018264182844503398,0.08459549090827105,0.003923496988462873
0.2485862,0.04329349008388469,0.0019057027045978553,0.03586340770269712,0.01028116966968801,0.11404465715519015,0.018235192074006982,0.08400549008172539,0.003932800377903676
0.2490517,0.043080585560892524,0.0019010066229250184,0.03561329342314665,0.010243227252807796,0.11289871487953727,0.018205511777388283,0.08341396514084193,0.003941887030776274
0.2495172,0.042866474730368524,0.0018965055615321397,0.03536187196738941,0.010205480996338528,0.11175162471328248,0.01817515628905702,0.08282104425514754,0.003950756053190386
0.2499828,0.04265118960555143,0.0018921976994397695,0.03510920267445255,0.010167939669197764,0.1106036226356816,0.018144140039378198,0.0822268549797675,0.003959406646425127
0.2504483,0.04243476211678116,0.0018880812178960471,0.03485534475657777,0.010130611901746111,0.1094549432259028,0.018112477547902496,0.08163152422269465,0.003967838106213912
0.2509138,0.042217224104728494,0.0018841543010033083,0.034600357282517945,0.010093506183257626,0.10830581960648367,0.0180801834166116,0.08103517821246525,0.003976049821994532
0.2513793,0.04199860731374741,0.0018804151363389305,0.034344299161042854,0.010056630859462136,0.1071564833877819,0.018047272323181644,0.0804379424662517,0.00398404127612461
0.2518448,0.04177894338535231,0.0018768619155701141,0.034087229124658426,0.010019994130160604,0.10600716461342272,0.018013759014267834,0.07983994175838113,0.0039918120430626316
0.2523103,0.04155826385182219,0.0018734928350623004,0.03382920571354377,0.009983604046914644,0.10485809170674608,0.017979658298813265,0.07924130008928881,0.003999361788514767
0.2527759,0.041336600129934224,0.0018703060964809217,0.033570287259709924,0.009947468510811247,0.10370949141825707,0.01794498504138498,0.0786421406549146,0.004006690268547707
0.2532414,0.041113983514829075,0.0018672999073862002,0.033310531871384025,0.00991159527030382,0.1025615887740821,0.01790975415554025,0.07804258581654977,0.0040137973286677444
0.2537069,0.04089044517401014,0.001864472481820717,0.03304999741762229,0.009875991919130564,0.10141460702543477,0.017873980597225964,0.07744275707114175,0.004020682902866392
0.2541724,0.04066601614147879,0.0018618220408895003,0.03278874151315502,0.00984066589431122,0.10026876759909469,0.01783767935821389,0.07684277502206319,0.004027347012632842
0.2546379,0.04044072731200734,0.0018593468133323982,0.03252682150346648,0.009805624474223144,0.09912429004890275,0.01780086545957456,0.07624275935035209,0.004033789765933665
0.2551034,0.04021460943555121,0.0018570450360885173,0.03226429445011222,0.009770874776757645,0.09798139200827652,0.01776355394519232,0.07564282878642938,0.004040011356160168
0.255569,0.03998769311180182,0.001854914954852526,0.03200121711627622,0.009736423757557486,0.09684028914374952,0.017725759875324064,0.07504310108230042,0.004046012061043885
0.2560345,0.039760008784881,0.0018529548246226273,0.031737645952570066,0.009702278208336296,0.09570119510953785,0.0176874983202041,0.07444369298424688,0.004051792241540717
0.2565,0.039531586738177776,0.001851162910239998,0.031473637083075816,0.009668444755280624,0.09456432150313773,0.017648784353697516,0.07384472020601543,0.004057352340684239
0.2569655,0.0393024570893281,0.001849537486919496,0.03120924629163452,0.009634929857535297,0.09342987782195732,0.017609633047004313,0.07324629740250986,0.004062692882408723
0.257431,0.03907264978533773,0.0018480768407714225,0.030944529008381842,0.00960173980577263,0.09229807142098577,0.017570059462416514,0.07264853814399334,0.004067814470342427
0.2578966,0.03884219459784853,0.001846779269314111,0.030679540296532203,0.009568880720846051,0.09116910747150227,0.017530078647130475,0.0720515548908074,0.004072717786571704
0.2583621,0.0386111211185482,0.0018456430819771162,0.03041433483941274,0.009536358552528539,0.09004318892082756,0.017489705627116502,0.07145545896861442,0.004077403590376562
0.2588276,0.03837945875472375,0.0018446666005947565,0.030148966927748155,0.009504179078336323,0.08892051645311987,0.01744895540104784,0.07086036054417044,0.004081872716938342
0.2592931,0.03814723672495885,0.001843848159889757,0.02988349044719749,0.009472347902438161,0.08780128845121658,0.01740784293429099,0.07026636860163483,0.00408612607602028
0.2597586,0.03791448405497508,0.0018431861079467296,0.029617958866143566,0.009440870454650465,0.08668570095952291,0.017366383152959193,0.06967359091942343,0.004090164650621804
0.2602241,0.0376812295736172,0.0018426788066752164,0.02935242522373589,0.009409751989518518,0.08557394764794758,0.0173245909380308,0.06908213404761165,0.004093989495607492
0.2606897,0.037447501908982404,0.0018423246322620075,0.02908694211818753,0.009378997585483951,0.08446621977688527,0.017282481119534118,0.06849210328589378,0.004097601736311689
0.2611552,0.03721332948469313,0.0018421219756124432,0.028821561695326528,0.009348612144138615,0.08336270616324477,0.017240068470800146,0.06790360266210471,0.004101002567119814
0.2616207,0.03697874051631313,0.0018420692427803995,0.028556335637402133,0.009318600389564925,0.08226359314752156,0.017197367702784617,0.06731673491131046,0.004104193250027402
0.2620862,0.03674376300790598,0.001842164855386647,0.028291315152146307,0.009288966867762781,0.0811690645619129,0.017154393458460513,0.06673160145547319,0.004107175113177938
0.2625517,0.03650842474873538,0.0018424072510252647,0.028026550962090772,0.00925971594616307,0.08007930169947321,0.017111160307282186,0.06614830238369668,0.00410994954938052
0.2630172,0.036272753310106334,0.0018427948836577852,0.027762093294140113,0.009230851813227841,0.07899448328430746,0.017067682739722055,0.06556693643305794,0.004112518014608425
0.2634828,0.036036776042346445,0.00184332622399474,0.027497991869401238,0.009202378478137152,0.07791478544279984,0.01702397516188079,0.06498760097002992,0.0041148820264796495
0.2639483,0.03580052007192618,0.001843999759864281,0.027234295893269575,0.009174299770562652,0.07684038167587463,0.01698005189017167,0.06441039197250033,0.004117043162720562
0.2644138,0.03556401229871713,0.0018448139965675482,0.026971054045772498,0.009146619340527955,0.07577144283228598,0.016935927146079804,0.06383540401239075,0.004119003059613779
0.2648793,0.03532727939338707,0.0018457674572204647,0.02670831447217052,0.009119340658355872,0.07470813708293295,0.016891615050996938,0.06326273023888006,0.0041207634104314375
0.2653448,0.03509034779493038,0.0018468586830816419,0.026446124773816766,0.00909246701470259,0.0736506298961959,0.016847129621132422,0.06269246236223508,0.004122325963855016
0.2658103,0.034853243708332725,0.0018480862338660718,0.026184531999275257,0.009066001520678874,0.07259908401429027,0.016802484762501218,0.062124690638251816,0.004123692522382848
0.2662759,0.034615993102368306,0.0018494486880442904,0.025923582635698526,0.009039947108058374,0.07155365943063276,0.016757694265989866,0.06155950385330943,0.0041248649407264505
0.2667414,0.03437862170752839,0.001850944643126692,0.025663322600465183,0.009014306529573057,0.0705145133682156,0.016712771802501577,0.06099698931003912,0.004125845124196752
0.2672069,0.034141155014079654,0.001852572715932675,0.02540379723307795,0.008989082359295759,0.06948180025898362,0.016667730918181814,0.060437232813609576,0.004126635027081282
0.2676724,0.033903618270250985,0.0018543315428443024,0.0251450512873226,0.008964276993109805,0.06845567172420881,0.016622585029725908,0.05988031865863033,0.004127236651013347
0.2681379,0.0336660364805471,0.0018562197800441817,0.024887128923688245,0.008939892649265547,0.067436276555857,0.01657734741977039,0.05932632961667377,0.004127652043334195
0.2686034,0.03342843440418727,0.0018582361037372901,0.02463007370204932,0.0089159313690236,0.06642376069894107,0.01653203123236971,0.058775346924415925,0.004127883295449131
0.269069,0.03319083655366733,0.0018603792103564977,0.024373928574609554,0.008892395017384517,0.06541826723485532,0.016486649468560013,0.058227450272396127,0.004127932541178544
0.2695345,0.032953267193442874,0.0018626478167515798,0.024118735879107945,0.008869285283904552,0.06441993636568526,0.016441214982011673,0.05768271779439501,0.00412780195510476
0.27,0.03271575033873131,0.0018650406603615464,0.023864537332286842,0.008846603683597125,0.06342890539948759,0.01639574047477201,0.05714122605742986,0.004127493750915665
0.2704655,0.032478309754430654,0.0018675564993701334,0.023611374023622057,0.008824351557919483,0.062445308736535046,0.01635023849309974,0.05660305005236611,0.004127010179745972
0.270931,0.03224096895415254,0.0018701941128443386,0.023359286409314818,0.008802530075844072,0.061469277856521,0.016304721423392576,0.056068263185143456,0.004126353528517034
0.2713966,0.03200375119936717,0.0018729523008558964,0.02310831430654531,0.00878114023501403,0.060500941306718806,0.016259201488209384,0.055536937268614944,0.004125526118276094
0.2718621,0.031766679498658114,0.0018758298845855932,0.022858496887987384,0.0087601828629822,0.059540424691090825,0.01621369074238838,0.05500914251499731,0.004124530302535838
0.2723276,0.03152977660708448,0.0018788257064103432,0.022609872676584007,0.008739658618533009,0.05858785066034236,0.01616820106926278,0.05448494752893084,0.004123368465615174
0.2727931,0.031293065025648534,0.0018819386299729426,0.02236247954058297,0.008719567993086505,0.05764333890291544,0.016122744176975488,0.05396441930114688,0.00412204302098211
0.2732586,0.03105656700086613,0.0018851675402344241,0.022116354688832184,0.008699911312183855,0.056707006136917266,0.016077331594894377,0.053447623202740956,0.0041205564095996424
0.2737241,0.030820304524437646,0.001888511343508926,0.021871534666333937,0.008680688737053523,0.05577896610297811,0.016031974670129876,0.05293462298004909,0.004118911098275551
0.2741897,0.030584299333016516,0.0018919689674809907,0.0216280553500572,0.008661900266257313,0.054859329558032785,0.015986684564156462,0.05242548075012453,0.004117109578016995
0.2746552,0.030348572908072458,0.0018955393612051924,0.021385951945007052,0.008643545737415406,0.053948204270019805,0.0159414722495397,0.05192025699681151,0.004115154362390758
0.2751207,0.0301131464758461,0.0018992214950879893,0.02114525898055011,0.008625624829009472,0.05304569501349179,0.015896348506770408,0.05141901056741277,0.00411304798588999
0.2755862,0.029878041007391696,0.0019030143608516831,0.020906010306994766,0.008608137062262978,0.052151903566130225,0.01585132392120744,0.050921798669946866,0.004110793002308255
0.2760517,0.02964327721870446,0.0019069169714803825,0.020668239092424875,0.0085910818030977,0.051266928706157656,0.01580640888013045,0.05042867687099137,0.004108391983121666
0.2765172,0.029408875570928646,0.0019109283611478652,0.020431977819785386,0.008574458264165532,0.050390866210639755,0.015761613569903844,0.049939699094107726,0.004105847515879866
0.2769828,0.02917485627064253,0.0019150475851272676,0.020197258284218315,0.008558265506954614,0.049523808854669775,0.015716947973253126,0.04945491761884363,0.004103162202606577
0.2774483,0.028941239270216086,0.0019192737196825386,0.019964111590647433,0.008542502443968817,0.048665846411427786,0.015672421866654546,0.04897438308030842,0.004100338658210434
0.2779138,0.028708044268236928,0.0019236058619416336,0.019732568151609852,0.00852716784097956,0.04781706565310658,0.01562804481783903,0.048498144469317106,0.004097379508906785
0.2783793,0.028475290710000083,0.0019280431297514587,0.019502657685332533,0.008512260319348937,0.04697755035269636,0.015583826183411158,0.048026249133098366,0.004094287390651106
0.2788448,0.028242997788056886,0.0019325846615145992,0.01927440921405168,0.008497778358423021,0.046147381286619805,0.015539775106583952,0.04755874277656194,0.004091064947584671
0.2793103,0.028011184442818506,0.00193722961600791,0.019047851062572733,0.008483720297994274,0.04532663623820897,0.01549590051503014,0.047095669464120554,0.004087714830493023
0.2797759,0.027779869363209562,0.0019419771721830798,0.018823010857068636,0.008470084340831836,0.044515390002015036,0.015452211118850485,0.04663707162206124,0.004084239695277855
0.2802414,0.027549070987367617,0.0019468265289493251,0.018599915524113796,0.008456868555278527,0.04371371438894165,0.01540871540865963,0.04618299004146066,0.004080642201442785
0.2807069,0.027318807503384508,0.0019517769049384184,0.018378591289951125,0.008444070877913252,0.04292167823219201,0.015365421653789792,0.04573346388163869,0.00407692501059355
0.2811724,0.027089096850085946,0.0019568275382523016,0.018159063679989453,0.008431689116277483,0.042139347394019706,0.015322337900612593,0.045288530674144345,0.004073090784953073
0.2816379,0.026859956717846096,0.00196197768619359,0.01794135751852846,0.00841972095166441,0.04136678477327268,0.015279471970979182,0.04484822632726774,0.004069142185891867
0.2821034,0.02663140454943429,0.0019672266249793117,0.017725496928708236,0.008408163941969313,0.04060405031371967,0.015236831460778678,0.0444125851310712,0.0040650818724741996
0.282569,0.02640345754089134,0.0019725736494382753,0.01751150533268043,0.00839701552459959,0.03985120101314788,0.01519442373861487,0.04398163976293271,0.004060912500020436
0.2830345,0.02617613264243342,0.0019780180726924885,0.017299405451997877,0.008386273019442851,0.03910829093322047,0.015152255944600998,0.043555421293594035,0.004056636718686
0.2835,0.02594944655938172,0.001983559225823094,0.01708921930821941,0.00837593363189137,0.038375371210082186,0.015110334989272316,0.04313395919370615,0.004052257172057343
0.2839655,0.025723415753116215,0.0019891964575213085,0.016880968223726513,0.008365994455921157,0.03765249006570136,0.015068667552615978,0.0427172813408641,0.004047776495765346
0.284431,0.025498056442052282,0.001994929133724871,0.016674672822748413,0.008356452477223837,0.03693969281993597,0.015027260083217787,0.04230541402712351,0.0040431973161165055
0.2848966,0.025273384602638643,0.002000756637240511,0.016470353032592155,0.008347304576389434,0.03623702190331142,0.014986118797525145,0.04189838196699074,0.0040385222487422864
0.2853621,0.02504941597037542,0.0020066783673529554,0.016268028085074195,0.00833854753213815,0.03554451687049737,0.014945249679225534,0.041496208305878385,0.004033753897266954
0.2858276,0.024826166040850764,0.002012693739420976,0.01606771651815017,0.008330178024599146,0.03486221441447053,0.014904658478739785,0.04109891462901779,0.004028894851994192
0.2862931,0.02460365007079452,0.002018802184460984,0.015869436177739504,0.008322192638634306,0.03419014838135039,0.01486435071282947,0.04070652097081993,0.004023947688612786
0.2867586,0.024381883079147466,0.0020250031487186616,0.0156732042197415,0.008314587867204891,0.03352834978589426,0.014824331664317762,0.040319045824676,0.004018914966921604
0.2872241,0.024160879848144724,0.002031296093229138,0.015479037112239706,0.008307360114778947,0.032876846827638063,0.014784606381923172,0.039936506153189215,0.004013799229574121
0.2876897,0.02394065492441223,0.0020376804933662047,0.015286950637891244,0.008300505700777212,0.032235664907669145,0.014745179680205561,0.039558917398829094,0.004008603000842705
0.2881552,0.02372122262007521,0.0020441558383810735,0.015096959896497834,0.008294020863055274,0.03160482664601714,0.014706056139623837,0.03918629349499977,0.00400332878540288
0.2886207,0.023502597013877937,0.002050721630931192,0.014909079307755235,0.008287901761419606,0.030984351899648828,0.014667240106704643,0.03881864687751361,0.003997979067137825
0.2890862,0.023284791952314247,0.0020573773865996065,0.014723322614177758,0.008282144481175067,0.030374257781052988,0.014628735694321313,0.038455988496461695,0.003992556307963331
0.2895517,0.023067821050768347,0.0020641226334053653,0.014539702884194617,0.008276745036701366,0.029774558677401048,0.014590546782082258,0.038098327828472396,0.003987062946673515
0.2900172,0.02285169769466551,0.0020709569113054388,0.014358232515414751,0.008271699375055962,0.029185266270269565,0.014552677016827985,0.03774567288934934,0.003981501397807595
0.2904828,0.02263643504063209,0.0020778797716886283,0.014178923238056848,0.008267003379600764,0.02860638955591048,0.014515129813235833,0.03739803024707982,0.003975874050538013
0.2909483,0.022422046017664145,0.002084890776861925,0.014001786118541274,0.00826265287365001,0.028037934866055363,0.014477908354531496,0.03705540503520471,0.003970183267580252
0.2914138,0.022208543328303857,0.002091989499529769,0.013826831563240716,0.008258643624136648,0.027479905889239813,0.014441015593306357,0.03671780096654075,0.003964431384124684
0.2918793,0.021995939449822643,0.0020991755222666505,0.013654069322386301,0.008254971345294525,0.026932303692634413,0.01440445425243958,0.03638522034724601,0.003958620706790794
0.2923448,0.021784246635409815,0.0021064484369834784,0.013483508494126025,0.008251631702353665,0.026395126744368794,0.014368226826123763,0.03605766409121913,0.003952753512604113
0.2928103,0.021573476915365437,0.0021138078443881485,0.013315157528732422,0.008248620315245878,0.025868370936335438,0.014332335580992946,0.03573513173482295,0.0039468320479962085
0.2932759,0.021363642098295957,0.0021212533534407337,0.013149024232956465,0.008245932762317974,0.02535202960746001,0.01429678255735168,0.03541762145192273,0.003940858527828028
0.2937414,0.021154753772311307,0.00212878458080373,0.01298511577452479,0.008243564584049732,0.02484609356742516,0.01426156957050379,0.035105130069229294,0.003934835134436887
0.2942069,0.02094682330622214,0.0021364011502878043,0.012823438686777424,0.008241511286773825,0.024350551120834837,0.014226698212179447,0.034797653081937066,0.003928764016707372
0.2946724,0.02073986185073605,0.0021441026922934996,0.01266399887344326,0.008239768346394763,0.02386538809180653,0.01419216985205909,0.03449518466964735,0.003922647289166392
0.2951379,0.020533880339651592,0.0021518888432493694,0.012506801613550571,0.008238331212103909,0.023390587848978756,0.014157985639392629,0.03419771771256674,0.003916487031102605
0.2956034,0.020328889491049194,0.0021597592450470103,0.012351851566469965,0.008237195310087604,0.02292613133092172,0.014124146504712299,0.03390524380797085,0.003910285285710443
0.296069,0.020124899808477918,0.0021677135444734628,0.012199152777087184,0.00823635604722533,0.022471997071939108,0.014090653161637415,0.03361775328692351,0.0039040440592589226
0.2965345,0.019921921582137393,0.002175751392641445,0.012048708681103245,0.008235808814774793,0.02202816122824944,0.01405750610876921,0.03333523523124122,0.0038977653202854237
0.297,0.019719964890054238,0.002183872444417871,0.011900522110459487,0.008235548992040802,0.021594597604535647,0.014024705631673845,0.03305767749069301,0.0038914509988146
0.2974655,0.01951903959925266,0.0021920763578511036,0.011754595298885043,0.008235571950024709,0.021171277680851835,0.013992251804951656,0.032785066700425705,0.0038851029856025693
0.297931,0.019319155366919024,0.0022003627935973827,0.011610929887564223,0.00823587305505116,0.020758170639876356,0.0139601444943906,0.03251738829860453,0.0038787231314065264
0.2983966,0.019120321641560585,0.002208731414346867,0.011469526930921294,0.008236447672368863,0.02035524339450051,0.013928383359201752,0.03225462654425915,0.0038723132462799045
0.2988621,0.018922547664158778,0.002217181884249725,0.011330386902520048,0.008237291169722018,0.019962460615742104,0.01389696785433467,0.03199676453532505,0.0038658750988932026
0.2993276,0.018725842469317838,0.0022257138683427027,0.01119350970107544,0.008238398920889008,0.01957978476097333,0.013865897232870324,0.03174378422687026,0.0038594104158805637
0.2997931,0.018530214886409695,0.0022343270319765724,0.011058894656574553,0.008239766309184982,0.019207176102452476,0.013835170548489218,0.03149566644949768,0.0038529208812121646
0.3002586,0.01833567354071624,0.0022430210402448686,0.010926540536504025,0.008241388730924892,0.01884459275614908,0.013804786658012378,0.03125239092791353,0.003846408135592456
0.3007241,0.018142226854570148,0.002251795557414304,0.01079644555218104,0.008243261598843511,0.018491990710852207,0.013774744224012734,0.031013936299652847,0.003839873775884271
0.3011897,0.017949883048495454,0.0022606502463572487,0.010668607365184898,0.008245380345468966,0.01814932385755174,0.013745041717494536,0.030780280133953383,0.0038333193545587773
0.3016552,0.017758650142348877,0.002269584767986665,0.010543023093886125,0.008247740426446258,0.017816544019082628,0.013715677420638311,0.030551398950769356,0.003826746379171256
0.3021207,0.01756853595646282,0.002278598780693867,0.01041968932007007,0.00825033732380726,0.017493600980021923,0.013686649429608922,0.030327268239916633,0.003820156311862653
0.3025862,0.017379548112790848,0.0022876919397894872,0.01029860209565189,0.008253166549183724,0.017180442516828452,0.013657955657424182,0.030107862480340954,0.0038135505688868376
0.3030517,0.017191694036056332,0.0022968638969480277,0.010179756949479831,0.008256223646959923,0.016877014428214814,0.013629593836881549,0.029893155159500674,0.0038069305201634948
0.3035172,0.017004980954904884,0.002306114299656378,0.010063148894223734,0.008259504197361704,0.016583260565741265,0.01360156152354035,0.029683118792855588,0.0038002974888565657
0.3039828,0.016819415903061102,0.0023154427906667023,0.009948772433345656,0.00826300381947888,0.016299122864620954,0.013573856098757086,0.02947772494345318,0.003793652750978138
0.3044483,0.01663500572049007,0.0023248490074541037,0.009836621568149519,0.008266718174218096,0.0160245413747258,0.013546474772771239,0.029276944241603743,0.003786997535017695
0.3049138,0.016451757054563906,0.0023343325816794934,0.009726689804906695,0.008270642967183448,0.015759454291782257,0.013519414587839043,0.029080746404635573,0.0037803330215966597
0.3053793,0.016269676361233585,0.0023438931386580895,0.009618970162054404,0.0082747739514822,0.015503797988746126,0.013492672421412694,0.028889100256721523,0.003773660343148181
0.3058448,0.01608876990620617,0.002353530296833974,0.0095134551774638,0.008279106930453037,0.01525750704734559,0.013466244989362367,0.028701973748768008,0.003766980583622173
0.3063103,0.01590904376612744,0.0023632436672611223,0.009410136915774612,0.008283637760314343,0.015020514289781763,0.013440128849238548,0.028519333978357656,0.0037602947782156312
0.3067759,0.015730503829769923,0.002373032853091316,0.009309006975793222,0.008288362352730078,0.014792750810576358,0.01341432040357214,0.028341147209736756,0.0037536039131282834
0.3072414,0.015553155799226089,0.002382897449069341,0.009210056497951041,0.008293276677290977,0.014574146008556419,0.013388815903209776,0.028167378893838607,0.0037469089253436166
0.3077069,0.015377005191106524,0.0023928370410358428,0.009113276171820043,0.00829837676390902,0.014364627618966631,0.013363611450681809,0.02799799368833404,0.0037402107024353333
0.3081724,0.01520205733774265,0.002402851205438242,0.009018656243682342,0.008303658705123293,0.01416412174570022,0.013338703003600322,0.027832955477700656,0.003733510082399248
0.3086379,0.015028317388393568,0.0024129395088500647,0.008926186524150649,0.00830911865831548,0.013972552893640026,0.013314086378084643,0.027672227393302568,0.003726807853510632
0.3091034,0.014855790310456458,0.002423101507499062,0.00883585639583639,0.008314752847833312,0.013789844001101767,0.013289757252211818,0.027515771833472917,0.0037201047542069978
0.309569,0.014684480890679833,0.0024333367468044606,0.00874765482106224,0.008320557567020274,0.01361591647237206,0.013265711169489538,0.02736355048359185,0.003713401472996294
0.3100345,0.01451439373637893,0.002443644760923682,0.008661570349615793,0.008326529180149873,0.013450690210334074,0.013241943542349005,0.027215524336152923,0.003706698648390486
0.3105,0.014345533276652429,0.002454025072308846,0.00857759112654095,0.008332664124262932,0.013294083649174067,0.013218449655655261,0.02707165371081105,0.0036999968688644995
0.3109655,0.014177903763599677,0.0024644771912733644,0.008495704899963607,0.008338958910906457,0.01314601378716249,0.013195224670232524,0.026931898274405303,0.0036932966728404856
0.311431,0.014011509273537587,0.0024750006155689185,0.008415899028948137,0.008345410127772953,0.013006396219503532,0.013172263626402248,0.026796217060949725,0.003686598548697361
0.3118966,0.013846353708216411,0.002485594829973097,0.008338160491381115,0.008352014440239313,0.012875145171247309,0.013149561447531877,0.026664568491585203,0.003679902934805584
0.3123621,0.01368244079603368,0.0024962593058879775,0.008262475891878715,0.008358768592804789,0.012752173530259144,0.01312711294359257,0.026536910394485413,0.003673210219587084
0.3128276,0.013519774093245507,0.0025069935009499034,0.008188831469714192,0.008365669410427766,0.01263739288024045,0.013104912814724482,0.0264132000247099,0.003666520741600288
0.3132931,0.013358356985174588,0.00251779685865071,0.008117213106761901,0.008372713799761334,0.012530713533795795,0.013082955654808406,0.026293394083997213,0.003659834789650152
0.3137586,0.013198192687414179,0.0025286688079706387,0.0080476063354543,0.008379898750287764,0.012432044565540718,0.013061235955042756,0.02617744874049123,0.003653152602923105
0.3142241,0.013039284247027277,0.0025396087630231833,0.00797999634674847,0.008387221335352173,0.012341293845244829,0.013039748107524835,0.02606531964839371,0.003646474371146792
0.3146897,0.012881634543740188,0.0025506161227121025,0.007914367998098698,0.008394678713095663,0.01225836807100457,0.013018486408835293,0.025956961967536305,0.003639800234774478
0.3151552,0.012725246291129545,0.002561690270400849,0.007850705821431733,0.008402268127288323,0.012183172802440027,0.012997445063624628,0.025852330382865243,0.00363313028519395
0.3156207,0.012570122037801815,0.002572830573594656,0.00778899403112137,0.008409986908062458,0.01211561249391004,0.012976618188200546,0.02575137912383224,0.0036264645649607247
0.3160862,0.012416264168564232,0.0025840363836355266,0.007729216531959086,0.008417832472546512,0.012055590527739931,0.012955999814114912,0.025654061983685354,0.0036198030680553387
0.3165517,0.012263674905586148,0.0025953070354103646,0.007671356927117505,0.008425802325400251,0.012003009247456113,0.01293558389174902,0.02556033233865377,0.003613145740164474
0.3170172,0.012112356309549712,0.0026066418470724927,0.007615398526103509,0.008433894059251913,0.011957769991021919,0.012915364293895962,0.02547014316702082,0.003606492478985627
0.3174828,0.01196231028078892,0.002618040119776775,0.007561324352697898,0.008442105355038218,0.011919773124069041,0.012895334819338754,0.02538344706807979,0.003599843134555028
0.3179483,0.011813538560416151,0.0026295011374285597,0.007509117152878474,0.008450433982248252,0.011888918073119014,0.012875489196422832,0.02530019628096734,0.0035931975095984604
0.3184138,0.011666042731435372,0.002641024166446637,0.007458759402723426,0.008458877799072324,0.011865103358789295,0.012855821086621429,0.025220342703369474,0.0035865553599046273
