Time,Rectus Femoris right,Rectus Femoris left,Hamstrings right,Hamstrings left,TibilaisÂ Anterior right,TibilaisÂ Anterior left,Gastrocnemius right,Gastrocnemius left
0.0,0.0010581366539028283,-0.003205622842941454,-0.0006552965572988709,0.003995496866290546,0.005168942449521044,-0.011158547084396583,0.0033097701983856205,-0.0006220468343154773
0.0004655,0.0011185721975057925,-0.002691303008736007,-0.0005689371421271972,0.004155503293549807,0.005270181609698235,-0.010857440115266235,0.003319195327989017,2.9668109073459575e-05
0.000931,0.0011786874005456907,-0.002175957155926166,-0.0004817037959463311,0.004315804186426974,0.005371792560587387,-0.01055603088185874,0.003328575719361587,0.0006785428572824723
0.0013966,0.001238473316979257,-0.0016596374490415434,-0.00039359884948415126,0.004476381821096327,0.005473759343607238,-0.010254350272927286,0.0033379097871315397,0.0013244713190803073
0.0018621,0.0012979210896826839,-0.0011423962072322103,-0.00030462478828053316,0.004637218404729412,0.00557606580140025,-0.009952429158365564,0.003347195961944697,0.001967348029540448
0.0023276,0.0013570219535427438,-0.0006242858913742189,-0.00021478425323379682,0.004798296079701973,0.005678695581019515,-0.009650298380574811,0.003356432691254826,0.0026070681867146218
0.0027931,0.0014157672385030186,-0.00010535909121387503,-0.00012408004112375568,0.004959596927788486,0.005781632137207697,-0.009347988745903606,0.0033656184401011113,0.003243527688087549
0.0032586,0.001474148372562613,0.0004143314874420898,-3.251510511125544e-05,0.005121102974340777,0.005884858735767614,-0.009045531016166543,0.003374751691870864,0.003876623166787698
0.0037241,0.0015321568847247377,0.0009347330354833687,5.990744478593012e-05,0.005282796192447324,0.005988358457024019,-0.008742955900247474,0.0033838309490458397,0.004506252027529093
0.0041897,0.0015897844078925636,0.001455792653192946,0.0001531843412409978,0.005444658507069952,0.006092114199376117,-0.00844029404579271,0.0033928547339308504,0.005132312482259531
0.0046552,0.0016470226817097628,0.0019774573628770545,0.00024731215918996846,0.0056066717991547456,0.006196108682940346,-0.008137576030999167,0.0034018215893635937,0.005754703585490739
0.0051207,0.0017038635553431804,0.002499674121421392,0.0003422873154276627,0.005768817909714105,0.006300324453282876,-0.007834832356502217,0.00341073007940481,0.006373325269286227
0.0055862,0.0017602989902051002,0.0030223898327668523,0.000438106068227975,0.005931078643876994,0.0064047438852412476,-0.0075320934373678,0.0034195787900079787,0.006988078377882801
0.0060517,0.0018163210626125751,0.0035455513602981195,0.0005347645169886343,0.006093435774904513,0.006509349186834533,-0.007229389595193191,0.0034283663296678156,0.007598864701922248
0.0065172,0.0018719219663813132,0.0040691055391385445,0.0006322586019006538,0.0062558710481681,0.006614122403261352,-0.006926751050320656,0.003437091330046852,0.008205587012270492
0.0069828,0.0019270940153516482,0.004592999188344826,0.0007305841036426942,0.006418366185087767,0.006719045420985031,-0.006624207914168089,0.0034457524465794074,0.008808149093402653
0.0074483,0.0019818296458441794,0.005117179122995133,0.0008297366431005865,0.006580902887027917,0.006824099971905122,-0.006321790181680458,0.003454348359052263,0.00940645577633373
0.0079138,0.002036121419042708,0.005641592166164525,0.0009297116811122902,0.006743462839148318,0.006929267637614455,-0.006019527723905615,0.0034628777721613427,0.01000041297107577
0.0083793,0.002089962023302198,0.006166185160781839,0.0010305045182385931,0.006906027714207856,0.007034529853740847,-0.005717450280697726,0.003471339416043695,0.010589927698603433
0.0088448,0.002143344276379582,0.006690904981362513,0.0011321102945598908,0.007068579176318796,0.007139867914372532,-0.005415587453551172,0.0034797320467840676,0.011174908122310591
0.0093103,0.002196261127585458,0.007215698545612171,0.00123452398949941,0.00723109888464936,0.0072452629765663535,-0.005113968698567617,0.003488054446895399,0.011755263578941378
0.0097759,0.0022487056598550228,0.007740512825896018,0.0013377404216732556,0.007393568497072547,0.007350696064937685,-0.004812623319558666,0.0034963054257726323,0.012330904608979712
0.0102414,0.002300671091737021,0.008265294860569409,0.0014417542487676629,0.007555969673759183,0.007456148076330989,-0.004511580461286408,0.003504483820119391,0.012901742986481975
0.0107069,0.0023521507792999496,0.008789991765165291,0.001546559967443845,0.007718284080713268,0.007561599784569897,-0.00421086910284397,0.0035125884943472204,0.013467691748338013
0.0111724,0.0024031382179551877,0.009314550743434513,0.0016521519132708133,0.007880493393247716,0.007667031845285605,-0.003910518051178078,0.0035206183409472397,0.014028665222945946
0.0116379,0.002453627044197024,0.009838919098235225,0.0017585242606865605,0.00804257929939861,0.007772424800822366,-0.003610555934755499,0.0035285722808341457,0.01458457905828636
0.0121034,0.0025036110372597385,0.010363044242267774,0.00186567102298801,0.008204523503276266,0.007877759085218747,-0.0033110111973751245,0.0035364492636625593,0.015135350249381655
0.012569,0.0025530841206919865,0.010886873708651677,0.001973586052350153,0.008366307728351561,0.007983015029263301,-0.003011912092127332,0.0035442482681157608,0.015680897165126256
0.0130345,0.0026020403638487913,0.01141035516134157,0.002082263039874837,0.008527913720676227,0.008088172865623243,-0.002713286675502122,0.003551968302166845,0.016221139574473725
0.0135,0.0026504739833014927,0.011933436405379381,0.0021916955156697075,0.008689323252036205,0.008193212734044652,-0.0024151628016473845,0.0035596084033123867,0.016755998671966994
0.0139655,0.0026983793441660276,0.012456065396980506,0.002301876848957844,0.008850518123037452,0.008298114686622692,-0.0021175681167784582,0.003567167638778702,0.01728539710259836
0.014431,0.002745750961349965,0.012978190253452131,0.0024128002482186554,0.009011480166123905,0.008402858693140265,-0.0018205300537398805,0.003574645105700835,0.01780925898598631
0.0148966,0.002792583500718753,0.013499759262942196,0.0025244587613606315,0.009172191248527596,0.008507424646473504,-0.0015240758267199466,0.0035820399312744195,0.01832750993985666
0.0153621,0.002838871780181679,0.014020720894017796,0.00263684527592656,0.009332633275151039,0.00861179236806243,-0.0012282324261184121,0.0035893512728806093,0.018840077102815878
0.0158276,0.0028846107706980936,0.014541023805072191,0.002749952519331811,0.00949278819138221,0.00871594161344507,-0.0009330266135674354,0.0035965783181843253,0.01934688915640466
0.0162931,0.002929795597204501,0.015060616853560067,0.002863773059136307,0.009652637985842602,0.008819852077853312,-0.0006384849171056891,0.0036037202852061533,0.019847876346420188
0.0167586,0.0029744215394631587,0.01557944910506129,0.0029782993033507913,0.009812164693069093,0.008923503401868602,-0.0003446336265054718,0.003610776422368303,0.020342970503495848
0.0172241,0.0030184840328328823,0.016097469842173855,0.0030935235007780284,0.009971350396130613,0.009026875177135688,-5.149878875256555e-05,0.003617746008515096,0.020832105062927726
0.0176897,0.003061978668962793,0.01661462857323716,0.003209437741389566,0.010130177229180798,0.00912994695213243,0.00024089379632149786,0.0036246283529084928,0.021315215083738008
0.0181552,0.0031049011964097736,0.017130875040887044,0.0033260339567386978,0.010288627379948094,0.009232698237993688,0.0005325185802552173,0.0036314227951992,0.021792237266966323
0.0186207,0.003147247521180432,0.017646159230444255,0.0034433039204102554,0.01044668309216483,0.009335108514387217,0.0008233502700215577,0.003638128705373915,0.02226310997318128
0.0190862,0.003189013707198373,0.01816043137813824,0.0035612392485078618,0.010604326667936858,0.009437157235439413,0.0011133638319418067,0.003644745483679256,0.022727773239205697
0.0195517,0.0032301959766976086,0.018673641979168355,0.0036798314001792475,0.010761540470055382,0.00953882383570869,0.0014025344954497598,0.003651272560522941,0.02318616879405013
0.0200172,0.00327079071054295,0.019185741795604686,0.003799071678180229,0.010918306924252559,0.009640087736204202,0.0016908377567072376,0.003657709396352769,0.023638240074050222
0.0204828,0.003310794448478244,0.019696681864130906,0.003918951229477926,0.011074608521402553,0.009740928350447507,0.0019782493820719943,0.0036640554815139787,0.024083932237203856
0.0209483,0.003350203889303344,0.020206413503631657,0.004039461045893757,0.011230427819669856,0.009841325090574773,0.002264745411419104,0.003670310336085571,0.024523192176704463
0.0214138,0.003389015890980748,0.020714888322627106,0.004160591964786767,0.011385747446606833,0.009941257373476977,0.00255030216131692,0.003676473509696214,0.024955968533666852
0.0218793,0.0034272274706728775,0.021222058226557712,0.004282334669777775,0.011540550101202663,0.010040704626975495,0.002834896228058727,0.0036825445813203853,0.02538221170904257
0.0223448,0.0034648358047110516,0.02172787542492238,0.004404679691514859,0.011694818555885857,0.010139646296030416,0.0031185044905512166,0.0036885231590554034,0.025801873874722485
0.0228103,0.003501838228497255,0.022232292438273578,0.004527617408480639,0.011848535658482626,0.010238061848978807,0.0034011041130609485,0.003694408879880049,0.026214908983826175
0.0232759,0.0035382322363398575,0.022735262105073033,0.004651138047841844,0.012001684334133253,0.010335930783800119,0.003682672547819954,0.0037002014093954934,0.0266212727801798
0.0237414,0.0035740154812245015,0.02323673758841162,0.004775231686341597,0.012154247587168597,0.010433232634405865,0.003963187537491678,0.0037059004415492514,0.02702092280698634
0.0242069,0.0036091857745214105,0.02373667238259708,0.004899888251234853,0.012306208502948779,0.010529946976950663,0.004242627117498473,0.0037115056983429355,0.027413818414694317
0.0246724,0.0036437410856303867,0.024235020319613138,0.00502509752126739,0.012457550249665982,0.010626053436161617,0.004520969618211978,0.0037170169295245685,0.027799920768072483
0.0251379,0.0036776795415648,0.024731735575453367,0.005150849127698727,0.01260825608011327,0.010721531691683035,0.0047981936670077946,0.0037224339122662086,0.028179192852499157
0.0256034,0.003710999426475881,0.025226772676333147,0.005277132555369342,0.012758309333421262,0.010816361484433348,0.005074278190186054,0.003727756450827634,0.02855159947947498
0.026069,0.003743699181118622,0.025720086504782788,0.005403937143812466,0.012907693436764477,0.01091052262297105,0.0053492024147595634,0.0037329843762068018,0.02891710729136831
0.0265345,0.003775777402260606,0.02621163230562488,0.005531252088410777,0.01305639190703915,0.011003994989866402,0.005622945870111364,0.0037381175457777663,0.029275684765402106
0.027,0.0038072328420351025,0.026701365691838584,0.0056590664415982084,0.013204388352514326,0.011096758548075581,0.005895488389523629,0.003743155842916721,0.02962730221689127
0.0274655,0.0038380644072397462,0.027189242650313594,0.00578736911410712,0.013351666474458054,0.011188793347313911,0.006166810111579955,0.0037480991766168027,0.029971931801739304
0.027931,0.003868271158582135,0.02767521954749643,0.005916148876261026,0.013498210068740458,0.011280079530424739,0.006436891481443227,0.003752947481092273,0.030309547518203132
0.0283966,0.003897852309873668,0.02815925313493158,0.006045394359313055,0.013644003027415424,0.011370597339740557,0.006705713252011309,0.003757700715372678,0.03064012520793509
0.0288621,0.003926807227172958,0.02864130055469989,0.0061750940568302895,0.013789029340282538,0.01146032712343283,0.006973256484952982,0.003762358862887552,0.030963642556311042
0.0293276,0.003955135427880133,0.029121319344756893,0.006305236326124087,0.013933273096430863,0.011549249341847072,0.007239502551626575,0.0037669219310422246,0.03128007909205359
0.0297931,0.003982836579783342,0.02959926744417338,0.006435809389726449,0.01407671848576609,0.011637344573819573,0.007504433133883877,0.0037713899507852526,0.03158941618615937
0.0302586,0.0040099105000587585,0.030075103198280682,0.006566801336912453,0.014219349800522509,0.011724593522972086,0.007768030224762063,0.003775762976168001,0.03189163705013931
0.0307241,0.00403635715422537,0.03054878536372272,0.006698200125268733,0.014361151436761223,0.011810977023980845,0.008030276129066446,0.0037800410838968465,0.03218672673358086
0.0311897,0.004062176655055839,0.03102027311341694,0.006829993582307951,0.01450210789585598,0.011896476048816138,0.008291153463846956,0.003784224372878478,0.03247467212104117
0.0316552,0.004087369261444708,0.03148952604142595,0.0069621694071291705,0.014642203785967894,0.011981071712948758,0.008550645158771254,0.003788312963758723,0.032755461928280216
0.0321207,0.004111935377235228,0.0319565041677417,0.007094715172123988,0.01478142382351032,0.01206474528151972,0.008808734456397344,0.0037923069984553384,0.033029086697842665
0.0325862,0.004135875550006058,0.03242116794298388,0.0072276183247282685,0.014919752834605126,0.012147478175469765,0.00906540491234852,0.003796206639685166,0.03329553879399734
0.0330517,0.004159190469819082,0.032883478253014325,0.00736086618921927,0.015057175756531599,0.012229251977625265,0.009320640395393489,0.0038000120704860256,0.033554812397042735
0.0335172,0.004181880967929581,0.03334339642346918,0.007494445968558026,0.015193677639169217,0.012310048438737372,0.00957442508743445,0.003803723493733753,0.0338069034969871
0.0339828,0.004203948015459937,0.03380088422421074,0.007628344746276831,0.015329243646435503,0.012389849483471278,0.00982674348340591,0.0038073411316547367,0.034051809886611356
0.0344483,0.00422539272203807,0.03425590387370087,0.007762549488411764,0.01546385905772018,0.012468637216342626,0.010077580391086978,0.0038108652253343637,0.03428953115392307
0.0349138,0.00424621633440174,0.03470841804329813,0.007897047045480285,0.015597509269316865,0.012546393927598152,0.01032692093082987,0.0038142960342217613,0.034520068674009335
0.0353793,0.004266420234969849,0.03515838986148033,0.008031824154503974,0.015730179795853515,0.012623102099037832,0.010574750535207402,0.003817633835631266,0.034743425600296564
0.0358448,0.004286005940381838,0.03560578291799468,0.008166867441076534,0.01586185627172293,0.012698744409775876,0.010821054948582267,0.0038208789242410576,0.034959606855224624
0.0363103,0.004304975100006305,0.03605056126793702,0.008302163421477196,0.015992524452514666,0.012773303741938179,0.011065820226600952,0.0038240316115894166,0.035168619120343005
0.0367759,0.004323329494419919,0.036492689435762136,0.008437698504829649,0.016122170216449877,0.012846763186294094,0.011309032735615211,0.00382709222556909,0.035370470825836414
0.0372414,0.004341071033857727,0.03693213241922692,0.008573458995306565,0.016250779565820613,0.012919106047820641,0.011550679152034048,0.0038300611099202657,0.035565172139487566
0.0377069,0.0043582017566359595,0.03736885569326857,0.008709431094379817,0.0163783386284352,0.012990315851197367,0.011790746461609228,0.0038329386237226423,0.035752734955085165
0.0381724,0.004374723827548409,0.03780282521382014,0.008845600903116367,0.016504833659071395,0.013060376346230213,0.01202922195865724,0.003835725140887101,0.03593317288028536
0.0386379,0.004390639536237448,0.038234007421565935,0.008981954424519885,0.01663025104093891,0.01312927151320274,0.012266093245220704,0.003838421049647462,0.03610650122393513
0.0391034,0.004405951295540764,0.03866236924563922,0.009118477565918008,0.016754577287152857,0.013196985568153099,0.01250134823017212,0.0038410267520528427,0.0362727369828661
0.039569,0.004420661639814837,0.03908787810726478,0.009255156141395233,0.016877799042219702,0.013263502968075321,0.012734975128262868,0.0038435426634611442,0.0364318988281672
0.0400345,0.004434773223236186,0.03951050192334853,0.009391975874271333,0.016999903083537292,0.01332880841604345,0.012966962459120272,0.0038459692120342334,0.03658400709094452
0.0405,0.004448288818081379,0.03993020911001632,0.009528922399625134,0.0171208763229105,0.01339288686625702,0.013197299046195538,0.0038483068382353914,0.036729083747576836
0.0409655,0.004461211312986798,0.04034696858610377,0.009665981266863407,0.01724070580808417,0.013455723529006388,0.0134259740156653,0.003850555994329618,0.036867152404475
0.041431,0.004473543711189135,0.04076074977659912,0.00980313794233458,0.017359378724294928,0.01351730387555645,0.013652976795289576,0.0038527171438873745,0.03699823828235356
0.0418966,0.004485289128747576,0.04117152261604058,0.009940377811986882,0.017476882395843482,0.013577613642947269,0.013878297113228962,0.0038547907612923238,0.03712236820002297
0.0423621,0.004496450792748641,0.04157925755186993,0.010077686184070487,0.01759320428768882,0.013636638838710234,0.014101924996823969,0.0038567773312536044,0.037239570557710815
0.0428276,0.004507032039494647,0.04198392554774379,0.010215048291883105,0.01770833200706564,0.013694365745498385,0.01432385077133944,0.003858677348323143,0.03734987531992013
0.0432931,0.004517036312676742,0.04238549808680397,0.010352449296558444,0.017822253305126236,0.013750780925629563,0.014544065058677004,0.0038604913164184992,0.037453313997833124
0.0437586,0.004526467161533486,0.04278394717490788,0.01048987428989688,0.017934956078607855,0.013805871225541099,0.014762558776058466,0.00386221974835173,0.03754991963126828
0.0442241,0.004535328238995965,0.04317924534381993,0.010627308297237657,0.01804642837152648,0.01385962378015475,0.014979323134682927,0.0038638631653647197,0.037639726770198806
0.0446897,0.00454362329982039,0.043571365654364196,0.010764736280371855,0.018156658376897783,0.013912026017150698,0.015194349638360395,0.003865422096671421,0.03772277145584038
0.0451552,0.004551356198709204,0.043960281699538944,0.010902143140495358,0.018265634438485855,0.013963065661149418,0.015407630082124535,0.003866897079007413,0.03779909120131603
0.0456207,0.004558530888421664,0.044345967607593,0.011039513721200952,0.018373345052580273,0.014012730737800239,0.015619156550827093,0.0038682886561871668,0.037868724971905944
0.0460862,0.0045651514178749126,0.044728398045064,0.01117683281150865,0.018479778869801955,0.014061009577775422,0.015828921417716482,0.0038695973786693925,0.0379317131648901
0.0465517,0.00457122193023651,0.04510754821977848,0.011314085148933258,0.018584924696938163,0.014107890820668476,0.016036917343002867,0.003870823803130807,0.037988097588991764
0.0470172,0.004576746661009408,0.04548339388381354,0.01145125542258817,0.01868877149880695,0.014153363418795304,0.016243137272412025,0.003871968492048654,0.038037921443429865
0.0474828,0.004581729936110333,0.04585591133641967,0.011588328276324295,0.0187913084001513,0.014197416640896915,0.016447574435730174,0.0038730320132922846,0.03808122929658862
0.0479483,0.004586176169942517,0.04622507742690407,0.01172528831190306,0.01889252468756308,0.014240040075742293,0.016650222345341893,0.0038740149397240857,0.03811806706431315
0.0484138,0.004590089863463707,0.046590869557473595,0.011862120092202303,0.018992409811436822,0.014281223635630188,0.016851074794763086,0.0038749178488100247,0.03814848198784003
0.0488793,0.004593475602250364,0.04695326568603626,0.011998808144453895,0.019090953387953143,0.014320957559788476,0.01705012585717091,0.003875741322240049,0.03817252261137236
0.0493448,0.004596338054558918,0.04731224432895983,0.012135336963511942,0.019188145201091498,0.014359232417669983,0.017247369883932464,0.0038764859455585666,0.03819023875930888
0.0498103,0.004598681969384966,0.047667784563785676,0.01227169101515047,0.019283975204671885,0.014396039112143775,0.017442801503133955,0.0038771523078052006,0.03820168151313726
0.0502759,0.004600512174521202,0.04801986603189581,0.01240785473938948,0.01937843352442483,0.014431368882581215,0.017636415618112036,0.0038777410011659823,0.038206903188001705
0.0507414,0.004601833574614915,0.048368468941130525,0.012543812553848288,0.019471510460089013,0.014465213307836386,0.017828207405988852,0.0038782526206351123,0.038205957308954944
0.0512069,0.004602651149225776,0.04871357406835385,0.012679548857125005,0.019563196487535704,0.014497564309120681,0.018018172316212302,0.0038786877636874024,0.03819889858690521
0.0516724,0.004602969950884678,0.04905516276196347,0.012815048032200913,0.019653482260919067,0.014528414152771578,0.018206306069102868,0.0038790470299614735,0.038185782894268674
0.0521379,0.004602795103154295,0.049393216944341706,0.012950294449868435,0.019742358614851265,0.014557755452915813,0.01839260465440827,0.003879331020953762,0.03816666724033866
0.0526034,0.004602131798692028,0.04972771911424365,0.013085272472181312,0.01982981656660121,0.01458558117402725,0.01857706432986712,0.003879540339723367,0.03814160974638326
0.053069,0.004600985297315949,0.050058652349118424,0.013219966455925485,0.01991584731831559,0.014611884633379906,0.018759681619782583,0.003879675590607725,0.03811066962048375
0.0535345,0.004599360924074336,0.05038600030735903,0.01335436075610907,0.02000044225926072,0.014636659503396546,0.01894045331360694,0.003879737378949107,0.038073907132126765
0.054,0.0045972640673193526,0.05070974723047607,0.013488439729469778,0.020083592968083597,0.014659899813893183,0.019119376464537808,0.0038797263108318967,0.03803138358656428
0.0544655,0.004594700176785389,0.05102987794519019,0.013622187737997974,0.020165291215090312,0.014681599954219724,0.01929644838812672,0.003879642992830601,0.03798316129895559
0.054931,0.0045916747616725805,0.051346377865437845,0.01375558915247354,0.02024552896454006,0.014701754675296951,0.01947166666090044,0.003879488031768522,0.037929303568306545
0.0553966,0.004588193388735981,0.05165923299428433,0.013888628356014628,0.020324298376952595,0.014720359091549786,0.019645029118995544,0.0038792620344869997,0.03786987465122104
0.0558621,0.004584261680380848,0.05196842992573796,0.014021289747636369,0.020401591811427065,0.014737408682736788,0.01981653385680636,0.003878965607625122,0.03780493973548021
0.0563276,0.004579885312764506,0.05227395584645862,0.014153557745817417,0.020477401827969966,0.014752899295675677,0.019986179225646442,0.003878599357409774,0.03773456491346448
0.0567931,0.00457507001390519,0.05257579853735374,0.01428541679207224,0.02055172118982983,0.014766827145864652,0.020153963832423547,0.003878163889455883,0.03765881715543352
0.0572586,0.0045698215617983005,0.052873946375054465,0.014416851354526892,0.020624542865836183,0.014779188818999162,0.020319886538327996,0.0038776598085767,0.03757776428267876
0.0577241,0.0045641457825404295,0.053168388333264434,0.014547845931495959,0.020695860032740054,0.014789981272383741,0.02048394645753418,0.003877087718603943,0.037491474940563346
0.0581897,0.004558048548461547,0.053459113983973267,0.014678385055058182,0.020765666077553317,0.014799201836238507,0.02064614295591494,0.0038764482222176317,0.03740001857146385
0.0586552,0.004551535776265724,0.05374611349852672,0.014808453294628304,0.02083395459988386,0.014806848214899818,0.02080647564976836,0.003875741920785449,0.037303465387628354
0.0591207,0.004544613425180758,0.05402937764854511,0.014938035260522588,0.020900719414263545,0.014812918487914582,0.020964944404556495,0.003874969414211469,0.03720188634396505
0.0595862,0.004537287495117076,0.05430889780668139,0.015067115607515582,0.020965954552465846,0.014817411111027677,0.021121549333655468,0.0038741313007941173,0.03709535311077544
0.0600517,0.004529564024836276,0.05458466594721028,0.015195679038385717,0.021029654265810035,0.01482032491706181,0.021276290797116314,0.003873228177093202,0.03698393804644599
0.0605172,0.004521449090129674,0.05485667464643982,0.015323710307447507,0.02109181302744882,0.014821659116689125,0.021429169400436078,0.0038722606378058582,0.03686771417011155
0.0609828,0.004512948802007211,0.05512491708293673,0.01545119422406814,0.021152425534636414,0.014821413299093776,0.021580185993338573,0.0038712292756512144,0.03674675513430407
0.0614483,0.0045040693048970576,0.05538938703755747,0.015578115656166267,0.02121148671097425,0.014819587432524548,0.021729341668564408,0.0038701346812635724,0.03662113519759921
0.0619138,0.0044948167748562655,0.055650078893276736,0.015704459533690804,0.0212689917086316,0.01481618186473661,0.021876637760669827,0.0038689774430938767,0.03649092919727386
0.0623793,0.004485197417792778,0.055906987634805914,0.01583021085207748,0.021324935910538686,0.014811197323321377,0.022022075844833903,0.0038677581473192213,0.036356212521986744
0.0628448,0.004475217467699153,0.05616010884799412,0.015955354675680905,0.021379314932549954,0.014804634915923421,0.022165657735673635,0.0038664773777601228,0.036217061084494295
0.0633103,0.004464883184898319,0.05640943871900517,0.01607987614117989,0.021432124625575328,0.014796496130343402,0.02230738548606618,0.0038651357158052857,0.036073551294413767
0.0637759,0.004454200854301698,0.056654974033264215,0.01620376046095378,0.02148336107767743,0.014786782834525877,0.02244726138597765,0.00386373374034356,0.03592576003104507
0.0642414,0.004443176783680073,0.05689671217416862,0.016326992926427638,0.021533020616132707,0.014775497276430866,0.022585287961297686,0.0038622720277027536,0.03577376461626267
0.0647069,0.004431817301947548,0.05713465112155811,0.016449558911384166,0.021581099809454402,0.014762642083788058,0.022721467972679005,0.003860751151594942,0.035617642787488586
0.0651724,0.004420128757458974,0.057368789449940165,0.01657144387524048,0.021627595469375288,0.014748220263732556,0.022855804414381137,0.003859171683067901,0.0354574726707573
0.0656379,0.0044081175163212215,0.05759912632646658,0.016692633366288023,0.021672504652788045,0.01473223520232107,0.022988300513117347,0.003857534190462274,0.035293332753883015
0.0661034,0.004395789960718649,0.05782566150865797,0.016813113024894348,0.02171582466364122,0.014714690663927462,0.023118959726903834,0.003855839239374062,0.03512530185973949
0.066569,0.00438315248725311,0.05804839534187244,0.01693286858666575,0.021757553054788718,0.014695590790516602,0.02324778574390995,0.0038540873926220416,0.034953459119662564
0.0670345,0.0043702115052988285,0.05826732875651501,0.017051885885570044,0.02179768762979069,0.014674940100795428,0.023374782481308257,0.003852279210219693,0.034777883946985076
0.0675,0.004356973435372438,0.058482463264983936,0.017170150857019072,0.021836226444663747,0.014652743489240104,0.02349995408412293,0.0038504152493512005,0.03459865601071398
0.0679655,0.004343444707518445,0.05869380095835074,0.01728764954091092,0.021873167809578153,0.014629006224998074,0.023623304924075217,0.0038484960643511167,0.03441585520935888
0.068431,0.0043296317597103775,0.05890134450277146,0.017404368084632034,0.021908510290499714,0.014603733950663854,0.023744839598424418,0.003846522206687258,0.03422956164492146
0.0688966,0.004315541036267828,0.05910509713562821,0.01752029274601979,0.021942252710773796,0.014576932680927294,0.023864562928803162,0.0038444942249464317,0.034039855597054566
0.0693621,0.004301178986289606,0.059305062661402085,0.01763540989628608,0.02197439415264902,0.01454860880109306,0.023982479960045766,0.003842412664822617,0.03384681749739974
0.0698276,0.00428655206210316,0.05950124544728071,0.0177497060229026,0.022004933958738013,0.014518769065469981,0.02409859595900858,0.0038402780691072363,0.03365052790411165
0.0702931,0.004271666717730466,0.05969365041850612,0.017863167732448528,0.022033871733412678,0.014487420595628976,0.024212916413381302,0.003838090977681215,0.03345106747657756
0.0707586,0.0042565294073704865,0.05988228305347026,0.017975781753421252,0.022061207344131355,0.014454570878528245,0.024325447030488435,0.00383585192750857,0.03324851695033975
0.0712241,0.00424114658389838,0.060067149378566505,0.01808753493901082,0.02208694092269541,0.01442022776450472,0.024436193736080112,0.0038335614526312954,0.03304295711222866
0.0716897,0.004225524697381548,0.06024825596280644,0.018198414269838856,0.022111072866432668,0.014384399465130943,0.024545162673111586,0.0038312200841653424,0.032834468775714255
0.0721552,0.00420967019361265,0.06042560991221085,0.018308406856662764,0.022133603839305273,0.014347094550936856,0.024652360200510638,0.0038288283502975144,0.03262313275648277
0.0726207,0.004193589512659645,0.060599218863984,0.018417499943046083,0.022154534772939386,0.014308321948996179,0.024757792891932265,0.003826386776283087,0.03240902984824603
0.0730862,0.004177289087432938,0.060769090980480014,0.01852568090799609,0.022173866867574242,0.014268090940377122,0.02486146753449997,0.003823895884443998,0.03219224079878994
0.0735517,0.004160775342269662,0.06093523494297002,0.01863293726856983,0.022191601592927886,0.014226411157457314,0.02496339112753301,0.003821356194167444,0.03197284628626899
0.0740172,0.004144054691535092,0.06109765994521866,0.018739256682449922,0.022207740688976754,0.014183292581102826,0.025063570881258906,0.003818768221904748,0.03175092689575283
0.0744828,0.004127133538241212,0.061256375686878466,0.018844626950491643,0.0222222861666461,0.014138745537711273,0.025162014215510495,0.0038161324811703504,0.03152656309603128
0.0749483,0.004110018272682392,0.061411392366709984,0.01894903601924275,0.022235240308408174,0.014092780696119207,0.025258728758406658,0.0038134494825408033,0.03129983521668347
0.0754138,0.004092715271088153,0.06156272067563565,0.01905247198343769,0.02224660566878488,0.014045409064374403,0.025353722345015883,0.0038107197336536623,0.031070823425416946
0.0758793,0.004075230894292972,0.06171037178963461,0.019154923088467595,0.022256385074751608,0.013996641986374096,0.025447003016001585,0.003807943739206201,0.030839607705682035
0.0763448,0.004057571486423066,0.06185435736248534,0.019256377732827297,0.022264581626039136,0.013946491138370744,0.025538579016248078,0.0038051220009539277,0.030606267834566703
0.0768103,0.0040397433736001015,0.061994689518362754,0.019356824470540605,0.022271198695330657,0.013894968525347334,0.025628458793466126,0.0038022550177089017,0.03037088336097692
0.0772759,0.0040217528626618,0.062131380844296036,0.019456252013564813,0.02227623992835157,0.013842086477264433,0.02571665099677683,0.003799343285337866,0.030133533584107176
0.0777414,0.004003606239899409,0.06226444438249321,0.01955464923417541,0.022279709243850213,0.013787857645181395,0.025803164475272717,0.003796387296760248,0.02989429753220564
0.0782069,0.00398530976981203,0.06239389362253825,0.019652005167331725,0.022281610833468024,0.013732294997254231,0.025888008276554794,0.003793387541946081,0.02965325394163821
0.0786724,0.00396686969387777,0.06251974249346609,0.019748309013024278,0.02228194916149815,0.01367541181461294,0.025971191645244085,0.0037903445079139056,0.029410481236255587
0.0791379,0.003948292229341724,0.06264200535572084,0.019843550138604393,0.0222807289645319,0.013617221687121182,0.026052724021466203,0.003787258678728719,0.029166057507067196
0.0796034,0.003929583568020779,0.06276069699300213,0.019937718081096577,0.02227795525099269,0.013557738509021458,0.026132615039307364,0.0037841305355000355,0.02892006049222581
0.080069,0.003910749875125226,0.06287583260400434,0.020030802549494024,0.022273633300557486,0.013496976474469057,0.026210874525240024,0.0037809605563801263,0.02867256755732645
0.0805345,0.0038917972880971796,0.06298742779405378,0.020122793427037537,0.022267768663465883,0.01343495007295804,0.026287512496516185,0.003777749216562511,0.028423655676023105
0.081,0.0038727319154658107,0.06309549856664864,0.02021368077347798,0.0222603671597173,0.01337167408464261,0.02636253915952631,0.0037744969882807567,0.02817340141096669
0.0814655,0.003853559835719355,0.06320006131490721,0.020303454827322258,0.02225143487815687,0.01330716357555724,0.026435964908121546,0.003771204340807663,0.02792188089506743
0.081931,0.0038342870961939005,0.06330113281293023,0.020392106008062644,0.022240978175451048,0.013241433892739053,0.026507800321896837,0.0037678717404548995,0.027669169813084826
0.0823966,0.003814919711978915,0.06339873020708381,0.02047962491838919,0.022229003674954027,0.013174500659256069,0.026578056164432366,0.0037644996505731784,0.027415343383548195
0.0828621,0.0037954636648394784,0.06349287100721002,0.02056600234638469,0.02221551826546634,0.013106379769145124,0.026646743381490506,0.003761088531553022,0.02716047634101058
0.0833276,0.0037759249021551596,0.06358357307777263,0.020651229267701698,0.02220052909988703,0.013037087382263376,0.026713873099165383,0.003757638840826149,0.026904642918638647
0.0837931,0.003756309335875465,0.06367085462894655,0.02073529684772067,0.022184043593760954,0.012966639919057308,0.02677945662198214,0.0037541510328675,0.02664791683114091
0.0842586,0.0037366228414917857,0.06375473420765988,0.02081819644368844,0.022166069423722644,0.012895054055253204,0.02684350543094297,0.0037506255591978907,0.02639037125803652
0.0847241,0.0037168712570257445,0.06383523068859825,0.020899919606835758,0.02214661452583803,0.012822346716473025,0.026906031181517527,0.0037470628683872265,0.026132078827266637
0.0851897,0.003697060382033821,0.06391236326518163,0.020980458084472704,0.022125687093845405,0.01274853507277957,0.02696704570157567,0.0037434634060581973,0.025873111599150393
0.0856552,0.00367719597662814,0.06398615144052408,0.021059803822060515,0.022103295577296844,0.012673636533154804,0.027026560989261133,0.003739827614890357,0.02561354105068717
0.0861207,0.0036572837605132412,0.06405661501838714,0.021137948965258255,0.022079448679601505,0.01259766873991509,0.02708458921080501,0.0037361559346244487,0.025353438060207085
0.0865862,0.003637329412038665,0.06412377409413761,0.021214885861942517,0.022054155355972067,0.012520649563067076,0.027141142698278463,0.0037324488020668164,0.02509287289237127
0.0870517,0.0036173385672671377,0.06418764904572082,0.021290607064198278,0.022027424811275724,0.01244259709460782,0.027196233947284112,0.003728706651093748,0.024831915183523495
0.0875172,0.003597316819058121,0.0642482605246605,0.021365105330278793,0.021999266497791135,0.01236352964277281,0.02724987561458612,0.00372492991265557,0.024570633927394496
0.0879828,0.0035772697161664748,0.06430562944709672,0.021438373626532146,0.02196969011287272,0.012283465726235449,0.027302080515679155,0.0037211190147803147,0.02430909746116024
0.0884483,0.003557202762355987,0.06435977698487277,0.021510405129292108,0.02193870559652375,0.012202424068261554,0.02735286162229657,0.0037172743825767485,0.02404737345185522
0.0889138,0.0035371214155275007,0.06441072455668145,0.021581193226730536,0.021906323128879725,0.012120423590822568,0.027402232059858363,0.0037133964382365745,0.023785528883141626
0.0893793,0.0035170310868613964,0.06445849381928118,0.02165073152066849,0.021872553127603507,0.01203748340867106,0.02745020510485931,0.0037094856010356173,0.02352363004243517
0.0898448,0.003496937139974194,0.06450310665879139,0.021719013828343098,0.021837406245193654,0.011953622823382165,0.027496794182197914,0.003705542287333832,0.023261742508388094
0.0903103,0.003476844890089046,0.0645445851820768,0.02178603418412695,0.021800893366207563,0.011868861317364504,0.027542012862447042,0.0037015669105740037,0.022999931138729644
0.0907759,0.0034567596032199195,0.06458295170822925,0.021851786841196683,0.0217630256044009,0.011783218547844126,0.027585874859067258,0.003697559881279031,0.02273826005846422
0.0912414,0.003436686495369269,0.06461822876015551,0.021916266273147272,0.02172381429978481,0.01169671434082488,0.02762839402556432,0.0036935216070477245,0.022476792648427193
0.0917069,0.003416630731739024,0.06465043905627903,0.021979467175548467,0.021683271015602697,0.01160936868502865,0.027669584352592484,0.003689452492549039,0.02221559153419811
0.0921724,0.0033965974259547384,0.06467960550236287,0.0220413844674398,0.021641407535228217,0.011521201725818817,0.02770945996500579,0.0036853529395147137,0.021954718575370995
0.0926379,0.003376591639302738,0.06470575118346084,0.02210201329276047,0.02159823585898615,0.01143223375911019,0.027748035118859593,0.0036812233467303033,0.021694234855181155
0.0931034,0.0033566183799801064,0.06472889935600316,0.022161349021710554,0.021553768200898066,0.01134248522526871,0.02778532419836507,0.003677064110024598,0.021434200670487773
0.093569,0.0033366826023573434,0.06474907344002324,0.02221938725203975,0.021508016985354594,0.011251976703004095,0.02782134171279947,0.003672875622257453,0.02117467552211144
0.0940345,0.0033167892062535265,0.06476629701153079,0.022276123810260003,0.02146099484371616,0.011160728903258548,0.027856102293374974,0.0036686582733060635,0.020915718105525623
0.0945,0.0032969430362238144,0.06478059379503724,0.02233155475277831,0.021412714610844177,0.011068762663094563,0.027889620690069103,0.0036644124500497047,0.020657386301901014
0.0949655,0.0032771488808591366,0.06479198765623846,0.02238567636694585,0.02136318932156453,0.010976098939584789,0.027921911768419617,0.0036601385363529597,0.020399737169501504
0.095431,0.00325741147209795,0.06480050259485973,0.02243848517201976,0.021312432207065343,0.010882758803706875,0.027952990506286628,0.003655836913047441,0.02014282693543043
0.0958966,0.0032377354845499417,0.06480616273766761,0.02248997792003376,0.021260456691230847,0.010788763434246148,0.02798287199058472,0.0036515079579119954,0.019886710987725695
0.0963621,0.0032181255348315953,0.06480899233165312,0.02254015159657419,0.021207276386913318,0.010694134111708905,0.028011571413987586,0.0036471520456513935,0.01963144386780221
0.0968276,0.0031985861809135496,0.06480901573739013,0.022589003421458146,0.021152905092144958,0.010598892212249071,0.028039104071607597,0.0036427695478735,0.01937707926323999
0.0972931,0.0031791219214796856,0.06480625742257264,0.022636530849310797,0.02109735678629162,0.010503059201610892,0.02806548535765261,0.0036383608330649523,0.0191236700009162
0.0977586,0.0031597371952979017,0.06480074195573371,0.022682731570039645,0.02104064562615034,0.010406656629090315,0.02809073076206205,0.003633926266565409,0.01887126804047935
0.0982241,0.0031404363806025516,0.06479249400014891,0.022727603509203966,0.020982785941992602,0.010309706121517598,0.028114855867124245,0.003629466210540477,0.018619924468163896
0.0986897,0.0031212237944885386,0.06478153830792607,0.022771144828278193,0.02092379223355541,0.010212229377263663,0.028137876344076787,0.0036249810239534666,0.01836968949094348
0.0991552,0.0031021036923170936,0.06476789971428282,0.022813353924808443,0.020863679165982196,0.01011424816027259,0.028159807949691557,0.0036204710625361586,0.01812061243102102
0.0996207,0.0030830802671333217,0.06475160313201321,0.022854229432461695,0.020802461565715604,0.010015784294122624,0.028180666522845874,0.0036159366787587746,0.01787274172065396
0.1000862,0.0030641576490956397,0.06473267354614394,0.022893770220967415,0.020740154416344258,0.009916859656117962,0.028200467981081005,0.003611378221799349,0.017626124897312852
0.1005517,0.003045339904917298,0.06471113600878008,0.02293197539595161,0.020676772854405584,0.00981749617141356,0.02821922831714902,0.0036067960375127106,0.01738080859917138
0.1010172,0.003026631037320241,0.06468701563414027,0.02296884429866343,0.020612332165146692,0.009717715807175098,0.028236963595548864,0.003602190468399287,0.01713683856092603
0.1014828,0.003008034984501609,0.06466033759378062,0.023004376505594497,0.020546847778245305,0.009617540566776188,0.028253689949052425,0.0035975618535739593,0.01689425960994339
0.1019483,0.002989555619613222,0.06463112711200622,0.023038571827991253,0.020480335263492622,0.009516992484034857,0.028269423575221306,0.003592910528735184,0.016653115662733236
0.1024138,0.0029711967502544273,0.06459940946146854,0.023071430311260643,0.020412810326439965,0.009416093617491215,0.02828418073291483,0.0035882368261345855,0.016413449721745483
0.1028793,0.0029529621179786724,0.06456520995894693,0.023102952234269485,0.02034428880401093,0.009314866044728174,0.028297977738789972,0.0035835410745471944,0.016175303872489125
0.1033448,0.002934855397814177,0.06452855396131177,0.02313313810853792,0.020274786660080733,0.009213331856737023,0.02831083096379402,0.003578823599242489,0.01593871928097128
0.1038103,0.0029168801977990607,0.06448946686166628,0.023161988677327307,0.020204319981024482,0.009111513152329534,0.0283227568296509,0.0035740847219563675,0.015703736191454327
0.1042759,0.0028990400585312613,0.06444797408566394,0.02318950491462299,0.02013290497123603,0.009009432032598257,0.028333771805342568,0.003569324760864162,0.015470393924529011
0.1047414,0.0028813384527335527,0.06440410108799809,0.023215688024012464,0.020060557948618978,0.008907110595426546,0.028343892403587003,0.0035645440305547794,0.015238730875501344
0.1052069,0.002863778784833947,0.06435787334905964,0.023240539437459684,0.019987295340051444,0.008804570930049816,0.028353135177314977,0.0035597428420060624,0.015008784513090973
0.1056724,0.0028463643905617406,0.06430931637175898,0.02326406081397671,0.019913133676826008,0.008701835111669436,0.028361516716147655,0.0035549215025614265,0.014780591378438691
0.1061379,0.002829098536559455,0.06425845567850791,0.023286254038194287,0.019838089590066325,0.008598925196120587,0.028369053642877503,0.0035500803159078326,0.014554187084420557
0.1066034,0.0028119844200109032,0.06420531680835782,0.023307121218833698,0.01976217980612196,0.008495863214595372,0.028375762609954853,0.0035452195820551272,0.014329606315266141
0.107069,0.0027950251682855964,0.06414992531429066,0.0233266646870826,0.019685421141943018,0.008392671168422388,0.028381660295982554,0.0035403395973167737,0.014106882826478264
0.1075345,0.0027782238385996843,0.0640923067606602,0.023344886994878144,0.019607830500436452,0.008289371023903949,0.02838676340222097,0.0035354406542919647,0.013886049445051448
0.108,0.002761583417693636,0.06403248672078157,0.02336179091310066,0.0195294248658059,0.008185984707212065,0.028391088649105427,0.0035305230418491065,0.0136671380699863
0.1084655,0.002745106821526845,0.0639704907746675,0.02337737942968147,0.019450221298877197,0.00808253409934429,0.028394652772778143,0.0035255870451106285,0.01345017967309684
0.108931,0.002728796894989359,0.06390634450690998,0.023391655747628252,0.0193702369324118,0.00797904103114044,0.028397472521636588,0.0035206329454390895,0.013235204300107743
0.1093966,0.002712656411630914,0.06384007350470622,0.023404623282971392,0.019289488966410445,0.007875527278361143,0.028399564652900028,0.003515661020424545,0.013022241072038308
0.1098621,0.0026966880734074637,0.06377170335602755,0.023416285662634574,0.019207994663409552,0.007772014556829152,0.02840094592919593,0.003510671543873155,0.012811318186869881
0.1103276,0.0026808945104453787,0.06370125964792998,0.02342664672223283,0.019125771343772847,0.007668524517634244,0.028401633115167548,0.00350566478579704,0.01260246292149337
0.1107931,0.0026652782808234987,0.06362876796500548,0.023435710503801062,0.019042836380980796,0.007565078742402509,0.028401642974104087,0.003500641012405422,0.01239570163393332
0.1112586,0.0026498418703732028,0.06355425388797305,0.023443481253456102,0.01895920719692029,0.007461698738630762,0.02840099226459435,0.0034956004860971055,0.012191059765845013
0.1117241,0.0026345876924966606,0.063477742992408,0.023449963418995287,0.018874901257176963,0.007358405935086727,0.028399697737204722,0.003490543465454379,0.011988561845280885
0.1121897,0.0026195180880033914,0.06339926084760802,0.02345516164743459,0.0187899360663324,0.0072552216772755985,0.02839777613118228,0.003485470205238431,0.011788231489722481
0.1126552,0.002604635324965272,0.06331883301559398,0.02345908078248967,0.018704329163268425,0.007152167222973528,0.028395244171183557,0.003480380956386412,0.011590091409374108
0.1131207,0.0025899415985900873,0.06323648505024344,0.023461725862003426,0.018618098116480464,0.007049263737828477,0.028392118564029623,0.003475275966010284,0.011394163410714272
0.1135862,0.0025754390311137254,0.06315224249655406,0.023463102115324305,0.01853126051940195,0.0069465322910289,0.028388415995487953,0.003470155477397626,0.01120046840030091
0.1140517,0.0025611296717110914,0.06306613089003386,0.023463214960639692,0.01844383398574161,0.006843993851040571,0.028384153127081688,0.003465019730014563,0.011009026388826353
0.1145172,0.0025470154964258285,0.06297817575621499,0.023462070002269027,0.018355836144835515,0.006741669281411873,0.028379346592926596,0.003459868959510962,0.010819856495417942
0.1149828,0.00253309840811892,0.06288840261028689,0.023459673027921298,0.018267284637015595,0.006639579336647788,0.02837401299659612,0.0034547033977280596,0.010632976952180207
0.1154483,0.002519380236436247,0.06279683695684464,0.023456030005921436,0.018178197108996347,0.0065377446581527995,0.02836816890801458,0.00344952327270864,0.010448405108974386
0.1159138,0.0025058627377951685,0.0627035042897477,0.02345114708241009,0.018088591209281604,0.006436185770242868,0.028361830860378565,0.003444328808709912,0.01026615743843109
0.1163793,0.0024925475953901646,0.06260843009208401,0.023445030578521257,0.01799848458359314,0.006334923076226618,0.028355015347106237,0.0034391202262192134,0.010086249541191819
0.1168448,0.002479436419217579,0.06251163983623412,0.023437686987542065,0.017907894870323095,0.006233976854555814,0.028347738818814427,0.003433897741972679,0.009908696151375029
0.1173103,0.0024665307461194702,0.06241315898402989,0.02342912297205906,0.01781683969601222,0.006133367255045182,0.028340017680323282,0.003428661568976997,0.009733511142262377
0.1177759,0.0024538320398465765,0.0623130129870021,0.02341934536109499,0.017725336670856053,0.006033114295161565,0.028331868287688276,0.0034234119165343756,0.009560707532200792
0.1182414,0.002441341691140374,0.06221122728671133,0.02340836114724016,0.01763340338424106,0.005933237856382374,0.02832330694525958,0.003418148990270836,0.009390297490715925
0.1187069,0.0024290610178342143,0.062107827315156725,0.023396177483782064,0.01754105740031289,0.005833757680623251,0.028314349902768637,0.0034128729921679103,0.009222292344832557
0.1191724,0.0024169912649734996,0.0620028384952571,0.023382801681836936,0.017448316253578587,0.005734693366734827,0.028305013352441937,0.003407584120597831,0.009056702585597367
0.1196379,0.002405133604954862,0.061896286241398875,0.023368241207486665,0.01735519744454476,0.005636064367068382,0.028295313426141708,0.0034022825703622626,0.008893537874799538
0.1201034,0.002393489137684305,0.06178819596004549,0.02335250367892425,0.017261718435393376,0.005537889984110219,0.028285266192533232,0.003396968532734627,0.008732807051884488
0.120569,0.0023820588907542753,0.06167859305040277,0.02333559686361085,0.017167896645696814,0.0054401893671845525,0.028274887654278137,0.003391642195506086,0.008574518141056078
0.1210345,0.00237084381963965,0.06156750290513552,0.023317528675447327,0.017073749448173754,0.005342981509224622,0.028264193745253074,0.003386303743035231,0.008418678358562566
0.1215,0.00235984480791261,0.06145495091113015,0.02329830717196298,0.01697929416448732,0.005246285243611769,0.028253200327792705,0.0033809533563015698,0.008265294120161642
0.1219655,0.002349062667476371,0.06134096245029838,0.023277940551524032,0.01688454806108688,0.005150119241082179,0.028241923189955834,0.003375591212962911,0.008114371048759898
0.122431,0.0023384981388177403,0.06122556290041672,0.02325643715056427,0.016789528345094742,0.005054502006701006,0.02823037804281339,0.003370217487416764,0.007965913982222083
0.1228966,0.002328151891278437,0.06110877763599602,0.023233805440840156,0.016694252160238957,0.004959451876903543,0.028218580517756626,0.003364832350865905,0.007819926981345617
0.1233621,0.0023180245233451126,0.06099063202917496,0.023210054026712452,0.016598736582833337,0.004864987016603133,0.028206546163823988,0.0033594359713882867,0.007676413337995774
0.1238276,0.0023081165629579804,0.0608711514506305,0.023185191642456433,0.016502998617805638,0.004771125416365454,0.02819429044504483,0.0033540285140114825,0.007535375583397107
0.1242931,0.0022984284678379393,0.060750361270498245,0.02315922714960249,0.016407055194774825,0.004677884889648821,0.028181828737798148,0.003348610140791859,0.007396815496576687
0.1247586,0.0022889606258320798,0.06062828685929492,0.023132169534308824,0.016310923164178245,0.004585283070110136,0.028169176328184366,0.0033431810108986914,0.007260734112954776
0.1252241,0.0022797133552774304,0.060504953588834745,0.023104027904767743,0.016214619293449497,0.004493337408976058,0.028156348409408193,0.003337741280703401,0.007127131733078653
0.1256897,0.0022706869053827996,0.06038038683313123,0.023074811488646964,0.01611816026324766,0.004402065172478972,0.028143360079170454,0.0033322911038740906,0.006996007931495281
0.1261552,0.002261881456628545,0.060254611969275694,0.02304452963056708,0.01602156266373856,0.004311483439357325,0.028130226337066994,0.0033268306314755175,0.006867361565758544
0.1266207,0.0022532971211840927,0.06012765437828378,0.023013191789616177,0.015924842990928775,0.004221609098419866,0.02811696208199285,0.003321360012074653,0.006741190785566747
0.1270862,0.0022449339433430133,0.05999953944590094,0.0229808075369024,0.01582801764305298,0.004132458846173354,0.028103582109549986,0.0033158793918519392,0.006617493042026031
0.1275517,0.002236791899975451,0.05987029256335761,0.022947386553145065,0.015731102917015315,0.004044049184513282,0.028090101109457036,0.003310388914718341,0.0064962650970353366
0.1280172,0.0022288709009976758,0.05973993912806496,0.022912938626304787,0.01563411500488535,0.003956396418477168,0.02807653366295954,0.003304888722438282,0.0063775030327884825
0.1284828,0.00222117078985853,0.05960850454424145,0.0228774736492528,0.015537069990449143,0.0038695166540599134,0.028062894240239354,0.0032993789547585274,0.0062612022613889136
0.1289483,0.0022136913440425274,0.05947601422346059,0.022841001617479564,0.01543998384581594,0.003783425796090756,0.028049197197822093,0.0032938597495430835,0.0061473575345726466
0.1294138,0.0022064322755893572,0.059342493585110165,0.022803532626842482,0.015342872428080847,0.0036981395461713053,0.028035456775981855,0.0032883312429141456,0.006035962953534931
0.1298793,0.002199393231629529,0.05920796805675314,0.02276507687135249,0.015245751476043932,0.003613673400674146,0.028021687096143146,0.0032827935693991186,0.005927011978856079
0.1303448,0.002192573794935891,0.059072463074380785,0.022725644640999094,0.01514863660698609,0.003530042648801479,0.028007902158280484,0.0032772468620837296,0.005820497440521921
0.1308103,0.0021859734844907486,0.05893600408254872,0.0226852463196134,0.015051543313502107,0.0034472623707032636,0.027994115838316954,0.003271691252771223,0.005716411548034345
0.1312759,0.002179591756068289,0.05879861653438644,0.022643892382768423,0.014954486960391492,0.0033653474356543016,0.027980341885523386,0.003266126872147616,0.00561474590060732
0.1317414,0.002173428002832036,0.05866032589147147,0.022601593395715984,0.014857482781607714,0.003284312500289681,0.0279665939199201,0.0032605538499529815,0.005515491497443946
0.1322069,0.002167481555947026,0.058521157623559104,0.02255836001135938,0.014760545877266641,0.0032041720068979786,0.027952885429683293,0.0032549723151586983,0.005418638748090192
0.1326724,0.0021617516852064206,0.05838113720815904,0.02251420296826082,0.014663691210715046,0.0031249401817716065,0.027939229768558314,0.003249382396150606,0.005324177482861122
0.1331379,0.0021562375996722694,0.058240290129950134,0.022469133088682494,0.014566933605660075,0.003046631033613673,0.02792564015328207,0.0032437842209179844,0.005232096963335646
0.1336034,0.00215093844833013,0.05809864188002446,0.02242316127666005,0.014470287743360542,0.002969258352000711,0.02791212966101727,0.003238177917248294,0.005142385892916003
0.134069,0.0021458533207572494,0.057956217954952025,0.022376298516107024,0.014373768159880855,0.0028928357059006247,0.027898711226801303,0.0032325636129276075,0.005055032427448314
0.1345345,0.002140981247804002,0.05781304385565737,0.02232855586894873,0.014277389243408418,0.0028173764422452187,0.027885397641012867,0.0032269414359466704,0.004970024185900628
0.135,0.0021363212022882886,0.05766914508609968,0.022279944473283932,0.014181165231635331,0.0027428936845566598,0.027872201546859543,0.0032213115147125305,0.0048873482610949145
0.1354655,0.002131872099702578,0.05752454715174813,0.022230475541572568,0.01408511020920531,0.002669400331627244,0.027859135437889565,0.003215673978265687,0.0048069912304895225
0.135931,0.0021276327989332953,0.05737927555784495,0.022180160358847657,0.013989238105226613,0.0025969090562518414,0.027846211655531125,0.003210028956502704,0.004728939167008637
0.1363966,0.0021236021029922554,0.05723335580744892,0.022129010280949612,0.01389356269085191,0.002525432304012422,0.027833442386662452,0.0032043765804042387,0.004653177649915307
0.1368621,0.002119778759759848,0.0570868133992529,0.022077036732781007,0.013798097576925933,0.0024549822921140652,0.027820839661215888,0.003198716982268418,0.004579691775724681
0.1373276,0.002116161462739683,0.05693967382516945,0.022024251206579974,0.013702856211701597,0.002385571008271852,0.027808415349819055,0.0031930502959495017,0.0045084661691540935
0.1377931,0.002112748851824398,0.056791962567678725,0.02197066526021043,0.013607851878625324,0.0023172102096480573,0.02779618116147607,0.003187376657101743,0.004439484994106721
0.1382586,0.002109539514072351,0.05664370509693392,0.021916290515467216,0.013513097694192162,0.002249911421839059,0.027784148641291778,0.0031816962034283388,0.004372731964685527
0.1387241,0.0021065319844949058,0.05649492686762041,0.021861138656394413,0.013418606605871247,0.002183685937911382,0.027772329168242047,0.0031760090749353514,0.004308190356234234
0.1391897,0.002103724746854023,0.05634565331556683,0.021805221427615065,0.013324391390102133,0.002118544817486307,0.027760733952993194,0.003170315414190457,0.004245843016402057
0.1396552,0.0021011162344698716,0.05619590985410905,0.021748550632670397,0.013230464650362445,0.0020544988858724827,0.02774937403577394,0.0031646153665863715,0.004185672376228921
0.1401207,0.002098704831038161,0.05604572187021029,0.021691138132366856,0.013136838815307248,0.0019915587332459913,0.02773826028430332,0.0031589090806087698,0.004127660461247858
0.1405862,0.0020964888714568985,0.055895114720343295,0.021632995843129155,0.013043526136980501,0.0019297347138773047,0.027727403391777965,0.0031531967081085055,0.004071788902601269
0.1410517,0.002094466642662264,0.05574411372614196,0.02157413573535761,0.01295053868909881,0.0018690369454045837,0.02771681387492214,0.0031474784045779033,0.004018038948167731
0.1415172,0.0020926363844732915,0.05559274416983118,0.021514569831788077,0.012857888365407667,0.0018094753081527607,0.027706502072103827,0.003141754329430886,0.003966391473696003
0.1419828,0.0020909962904450477,0.055441031289443714,0.02145431020585287,0.01276558687811024,0.0017510594444978306,0.027696478141520122,0.003136024646286651,0.003916826993942929
0.1424483,0.0020895445087299844,0.05528900027383291,0.021393368980040982,0.012673645756368717,0.001693798758275771,0.02768675205945543,0.00313028952325662,0.0038693256738119015
0.1429138,0.0020882791429471604,0.055136676257490295,0.021331758324256107,0.012582076344878224,0.0016377024142354927,0.027677333618615994,0.0031245491332343354,0.0038238673394885734
0.1433793,0.002087198253059017,0.054984084315176464,0.021269490454170936,0.01249088980251329,0.0015827793375352219,0.02766823242654467,0.0031188036541879884,0.003780431489570456
0.1438448,0.002086299856255397,0.05483124945637401,0.02120657762957617,0.012400097101046786,0.0015290382132817114,0.027659457904119958,0.0031130532694552404,0.0037389973061870783
0.1443103,0.0020855819278444874,0.05467819661957073,0.02114303215272283,0.012309709023941356,0.00147648748611168,0.027651019284143416,0.0031072981680400156,0.0036995436661073746
0.1447759,0.00208504240215035,0.05452495066638148,0.021078866366656308,0.012219736165213359,0.0014251353598148905,0.027642925610019537,0.0031015385449109354,0.003662049151831015
0.1452414,0.002084679173416699,0.05437153637551681,0.021014092653540577,0.012130188928369348,0.001374989796998284,0.027635185734532206,0.003095774601301075,0.0036264920626604435
0.1457069,0.0020844900967165736,0.05421797843660727,0.020948723432970787,0.012041077525415157,0.0013260585187906014,0.027627808318721726,0.0030900065450087132,0.003592850425750416
0.1461724,0.002084472988867557,0.05406430144389222,0.020882771160272456,0.011952411975937695,0.001278349004586921,0.027620801830866338,0.003084234590698739,0.0035611020071318663
0.1466379,0.002084625629352166,0.05391052988978248,0.02081624832478522,0.01186420210625959,0.0012318684918325592,0.027614174545572103,0.0030784589602043636,0.003531224322706945
0.1471034,0.002084945761243064,0.05375668815830627,0.020749167448129092,0.01177645754866684,0.0011866239758457843,0.027607934542974857,0.003072679882828774,0.003503194649212106
0.147569,0.002085431092132734,0.05360280051844771,0.020681541082451214,0.01168918774070961,0.0011426222096788106,0.027602089708057685,0.0030668975956463325,0.0034769900351461023
0.1480345,0.0020860792950672894,0.05344889111738712,0.020613381808650983,0.011602401924576337,0.0010998697040165643,0.027596647730087298,0.003061112343802918,0.003452587311659803
0.1485,0.0020868880094841095,0.05329498397365201,0.020544702234581803,0.011516109146541253,0.0010583727271127191,0.02759161610217232,0.003055324380814981,0.0034299631034047763
0.1489655,0.0020878548421530492,0.053141102970187315,0.02047551499322782,0.011430318256485428,0.0010181373047625107,0.027587002120946252,0.003049533968866868,0.0034090938393376386
0.149431,0.0020889773681210017,0.05298727184735331,0.020405832740854505,0.011345037907491345,0.0009791692203118352,0.027582812886377775,0.003043741379105942,0.0033899557634772324
0.1498966,0.0020902531316596474,0.05283351419585946,0.020335668155132235,0.011260276555510955,0.0009414740147021366,0.027579055301710623,0.0030379468919350325,0.003372524945611834
0.1503621,0.0020916796472162627,0.05267985344964283,0.020265033933232444,0.011176042459107133,0.0009050569865505809,0.0275757360735352,0.0030321507973017103,0.003356777291953657
0.1508276,0.0020932544003674845,0.052526312878699216,0.020193942789896283,0.011092343679268346,0.0008699231922650125,0.02757286171199375,0.003026353394983875,0.0033426885557380154
0.1512931,0.002094974848775956,0.05237291558187593,0.020122407455475957,0.011009188079296276,0.0008360774461931905,0.02757043853112075,0.0030205549948711333,0.0033302343477645347
0.1517586,0.0020968384231497663,0.05221968447963485,0.020050440673949246,0.01092658332476609,0.0008035243208057986,0.027568472649320074,0.0030147559172414413,0.00331939014687782
0.1522241,0.0020988425282046064,0.05206664230679494,0.019978055200907747,0.01084453688355896,0.0007722681469127196,0.027566969989980206,0.0030089564930325095,0.0033101313103849807
0.1526897,0.0021009845436285386,0.051913811605263024,0.019905263801519437,0.010763056025966427,0.0007423130139120696,0.02756593628222872,0.0030031570641075064,0.00330243308440739
0.1531552,0.002103261825049264,0.05176121471676182,0.019832079248466025,0.010682147824866182,0.0007136627700714838,0.027565377061826993,0.0029973579835146113,0.0032962706141640434
0.1536207,0.002105671705003763,0.05160887377556416,0.019758514319855598,0.010601819155968898,0.00068632102284115,0.027565297672206047,0.0029915596157400097,0.003291618954183898
0.1540862,0.002108211493910171,0.05145681070124176,0.019684581797111033,0.010522076698135747,0.000660291139198085,0.02756570326564398,0.0029857623369539243,0.0032884530784445627
0.1545517,0.0021108784810417356,0.051305047191436984,0.019610294462834597,0.010442926933766195,0.0006355762460211516,0.027566598804585535,0.0029799665352492712,0.0032867478904347585
0.1550172,0.0021136699355027012,0.05115360471466542,0.019535665098649294,0.01036437614925568,0.0006121792304963101,0.02756798906310388,0.002974172610872554,0.0032864782331380187
0.1554828,0.0021165831072059486,0.051002504503156895,0.01946070648301739,0.010286430435522758,0.000590102740551601,0.02756987862850464,0.0029683809764465955,0.0032876188989351502
0.1559483,0.002119615227852215,0.05085176754574213,0.01938543138903661,0.010209095688605155,0.0005693491853213624,0.02757227190307184,0.002962592057184718,0.003290144639423026
0.1564138,0.0021227635119107197,0.050701414580792276,0.01930985258221426,0.0101323776103242,0.0005499207356392067,0.02757517310595535,0.0029568062910959834,0.0032940301751473336
0.1568793,0.0021260251576010157,0.0505514660892182,0.019233982818219652,0.010056281709016929,0.0005318193245592998,0.027578586275199234,0.0029510241291811033,0.003299250205246934
0.1573448,0.0021293973478759046,0.05040194228753664,0.019157834840615107,0.009980813300335133,0.000515046647905521,0.027582515269910034,0.0029452460356186247,0.0033057794170074945
0.1578103,0.0021328772514052573,0.05025286312100996,0.019081421378565916,0.009905977508110566,0.0004996041648481069,0.027586963772563984,0.0029394724879410047,0.003313592495322078
0.1582759,0.0021364620235605845,0.050104248256866366,0.01900475514452987,0.009831779265285397,0.00048549309850740805,0.027591935291451757,0.002933703977200205,0.0033226641320563332
0.1587414,0.002140148807400217,0.04995611707760706,0.018927848831927017,0.009758223314906962,0.00047271443658441375,0.02759743316325927,0.00292794100812246,0.0033329690353159497
0.1592069,0.002143934734654936,0.04980848867440685,0.01885071511279049,0.009685314211185772,0.0004612689320177155,0.027603460555782805,0.0029221840992518983,0.0033444819386140106
0.1596724,0.0021478169267138943,0.0496613818406142,0.018773366635399205,0.009613056320615694,0.000451157103666599,0.027610020470776514,0.002916433783082716,0.00335717760993591
0.1601379,0.0021517924956106636,0.04951481506535662,0.018695816021893193,0.009541453823155127,0.00044237923701996845,0.027617115746930012,0.002910690606179604,0.003371030860699507
0.1606034,0.0021558585450092136,0.049368806527256774,0.01861807586587226,0.009470510713468053,0.000434935384930825,0.027624749062973797,0.002904955129286126,0.0033860165546082174
0.161069,0.002160012171189634,0.04922337408826466,0.018540158729978624,0.009400230802223691,0.0004288253683760408,0.02763292294090979,0.002899227927420727,0.0034021096163947624
0.1615345,0.002164250464033389,0.049078535287610615,0.018462077143463984,0.009330617717453523,0.0004240487772411894,0.02764163974936418,0.0028935095899600585,0.003419285040453327
0.162,0.0021685705080078943,0.04893430733588364,0.018383843599741618,0.009261674905964351,0.0004206049711302132,0.027650901707059538,0.0028878007207093115,0.0034375178993579208
0.1624655,0.0021729693831501894,0.04879070710923926,0.018305470553924136,0.009193405634805994,0.00041849308019972206,0.027660710886403032,0.002882101937959251,0.0034567833522647757
0.162931,0.002177444166049472,0.04864775114374105,0.018226970420347637,0.009125812992792161,0.0004177120060177277,0.027671069217187514,0.0028764138745296488,0.003477056653196647
0.1633966,0.002181991930828255,0.04850545562983963,0.018148355570083124,0.009058899892073001,0.00041826042244662645,0.027681978490401927,0.002870737177798814,0.003498313159206916
0.1638621,0.0021866097501218812,0.048363836406993224,0.018069638328436097,0.008992669069757748,0.0004201367765502482,0.02769344036214761,0.0028650725097188884,0.0035205283384214065
0.1643276,0.0021912946960561262,0.048222908958433466,0.017990830972435312,0.008927123089585898,0.00042333928952479526,0.027705456357656782,0.002859420546816593,0.003543677777955843
0.1647931,0.0021960438412226006,0.04808268840608024,0.01791194572831174,0.00886226434364524,0.00042786595765349734,0.027718027875409442,0.0028537819801790773,0.003567737191706926
0.1652586,0.002200854259651652,0.04794318950560883,0.017832994768968817,0.0087980950541351,0.00043371455328481117,0.02773115619134479,0.0028481575154245408,0.0035926824280150425
0.1657241,0.0022057230277824397,0.04780442664167278,0.017753990211445234,0.008734617275173117,0.0004408826258339948,0.027744842463163118,0.0028425478726572975,0.0036184894771967243
0.1661897,0.0022106472254298463,0.04766641382328547,0.017674944114371503,0.008671832894643869,0.0004493675028078893,0.027759087734714073,0.0028369537864069917,0.0036451344789451136
0.1666552,0.0022156239367478693,0.04752916467936339,0.01759586847542177,0.008609743636087583,0.00045916629085275334,0.02777389294046711,0.002831376005551741,0.003672593729596798
0.1671207,0.0022206502511891235,0.047392692454434206,0.017516775228762323,0.008548351060627214,0.0004702758768250066,0.027789258910059834,0.0028258152932250616,0.003700843689263526
0.1675862,0.0022257232644600695,0.04725701000451253,0.017437676242498507,0.008487656568932054,0.00048269292888475623,0.027805186372920038,0.002820272426706496,0.003729860988827411
0.1680517,0.0022308400794715626,0.047122129793146145,0.017358583316121723,0.008427661403216123,0.0004964138976120015,0.027821675962956965,0.0028147481972959397,0.0037596224367983017
0.1685172,0.0022359978072843205,0.04698806388763514,0.017279508177958428,0.00836836664926949,0.0005114350171454338,0.027838728223317302,0.0028092434101716747,0.00379010502603211
0.1689828,0.002241193568048878,0.046854823955426415,0.01720046248262301,0.008309773238520732,0.0005277523063437794,0.027856343611201245,0.0028037588842321766,0.003821285940308961
0.1694483,0.0022464244919395884,0.046722421260685404,0.017121457808476598,0.00825188195012876,0.0005453615699696569,0.027874522502733826,0.0027982954519217866,0.0038531425607701963
0.1699138,0.0022516877200822187,0.04659086666104677,0.017042505655093784,0.00819469341310223,0.0005642583998959521,0.027893265197886756,0.002792853959040397,0.0038856524722133603
0.1703793,0.0022569804054746708,0.046460170604545215,0.016963617440739397,0.008138208108444895,0.0005844381763347217,0.027912571925445776,0.002787435264537318,0.003918793469244405
0.1708448,0.0022622997139003604,0.04633034312672745,0.016884804499857298,0.008082426371325165,0.0006058960690886558,0.027932442848018667,0.002782040240289535,0.003952543562286364
0.1713103,0.002267642824833785,0.04620139384794579,0.016806078080573272,0.008027348393268338,0.0006286270388251222,0.027952878067079034,0.0027766697708646293,0.00398688098344377
0.1717759,0.002273006932337817,0.04607333197083375,0.016727449342214002,0.007972974224369838,0.0006526258383728302,0.02797387762804091,0.0027713247532686713,0.004021784192222068
0.1722414,0.0022783892459522594,0.04594616627796334,0.016648929352844007,0.007919303775527915,0.0006778870140411492,0.027995441525359304,0.002766006096679471,0.004057231881101309
0.1727069,0.002283786991573206,0.04581990512968357,0.016570529086822456,0.007866336820694288,0.0007044049069621412,0.028017569707651513,0.0027607147221655843,0.004093202980963395
0.1731724,0.0022891974123227295,0.04569455646213932,0.01649225942238162,0.007814072999141199,0.0007321736544553787,0.028040262082833934,0.002755451562391502,0.004129676666372201
0.1736379,0.002294617769408429,0.04557012778546948,0.01641413113922867,0.007762511817743493,0.0007611871914156292,0.028063518523268976,0.0027502175613094526,0.004166632360705946
0.1741034,0.002300045342972353,0.045446626182183064,0.016336154916172397,0.007711652653274326,0.0007914392517235011,0.02808733887091639,0.002745013673838258,0.004204049741141319
0.174569,0.0023054774329288284,0.045324058305711824,0.016258341328776522,0.007661494754713127,0.0008229233696791436,0.028111722942483312,0.00273984086552966,0.004241908743488986
0.1750345,0.0023109113597907286,0.04520243037913795,0.016180700847040954,0.0076120372455644745,0.0008556328814590888,0.02813667053456708,0.002734700112222541,0.004280189566880264
0.1755,0.0023163444654837394,0.04508174819409525,0.016103243833112475,0.0075632791261865,0.0008895609265963274,0.028162181428784818,0.0027295923996854656,0.004318872678304872
0.1759655,0.002321774114148226,0.04496201710984221,0.01602598053902616,0.007515219276127386,0.0009247004494837072,0.02818825539688337,0.0027245187232479754,0.004357938816999702
0.176431,0.002327197692928327,0.04484324205250548,0.015948921104478847,0.007467856456468566,0.0009610442009007539,0.028214892205823225,0.0027194800874210763,0.004397368998688658
0.1768966,0.0023326126127479595,0.04472542751449225,0.015872075554635993,0.0074211893121731995,0.000998584739564012,0.02824209162282977,0.0027144775055073845,0.00443714451967359
0.1773621,0.0023380163090734552,0.044608577554070744,0.015795453797973105,0.007375216374438541,0.0010373144337010142,0.02826985342040488,0.0027095119992013974,0.004477246960776374
0.1778276,0.0023434062426625902,0.044492695795118505,0.015719065624153008,0.007329936063050862,0.0010772254626479876,0.02829817738129193,0.002704584598180376,0.004517658191132212
0.1782931,0.002348779900299801,0.044377785427038734,0.015642920701940018,0.007285346688741594,0.0011183098184714105,0.02832706330338692,0.0026996963396863057,0.0045583603718341885
0.1787586,0.0023541347955174157,0.044263849204844705,0.015567028577152102,0.007241446455543434,0.0011605593076135336,0.028356511004588428,0.00269484826809939,0.004599335959429116
0.1792241,0.002359468469302747,0.04415088944941266,0.015491398670651947,0.007198233463145227,0.001203965552561991,0.028386520327578935,0.0026900414345035106,0.0046405677092646895
0.1796897,0.0023647784907908885,0.044038908047903086,0.01541604027637789,0.0071557057092445624,0.0012485199935436282,0.028417091144529914,0.0026852768962440867,0.004682038678687918
0.1801552,0.00237006245794307,0.04392790645435037,0.015340962559415533,0.007113861091897217,0.0012942138902426795,0.02844822336172294,0.002680555716478747,0.004723732230094853
0.1806207,0.0023753179982104067,0.043817885690420555,0.015266174554110876,0.007072697411862765,0.0013410383235434324,0.028479916924079054,0.002675878963721205,0.004765632033831581
0.1810862,0.0023805427691828934,0.043708846346337045,0.015191685162225695,0.007032212374945777,0.0013889841972975325,0.02851217181958844,0.00267124771137873,0.004807722070946507
0.1815517,0.0023857344592234653,0.04360078858197446,0.015117503151135827,0.006992403594332156,0.0014380422401160807,0.028544988083632632,0.0026666630372835817,0.004849986635793969
0.1820172,0.0023908907880869626,0.043493712128120865,0.015043637152072957,0.0069532685929201725,0.0014882030071866905,0.02857836580319141,0.0026621260232187684,0.004892410338489233
0.1824828,0.002396009507523817,0.04338761628790912,0.014970095658410437,0.006914804805645707,0.001539456882115679,0.028612305120926714,0.002657637754438493,0.00493497810721491
0.1829483,0.002401088401868281,0.04328249993841821,0.014896887023993579,0.00687700958180121,0.0015917940787955568,0.02864680623913611,0.002653199319183625,0.004977675190378865
0.1834138,0.002406125288611003,0.04317836153244552,0.014824019461514794,0.006839880187347802,0.0016452046432979912,0.028681869423568554,0.002648811808192561,0.005020487158623644
0.1838793,0.002411118018955764,0.04307519910045113,0.014751501040933849,0.006803413807219945,0.0016996784557924145,0.028717495007095466,0.0026444763142078123,0.005063399906687488
0.1843448,0.0024160644783601734,0.04297301025267549,0.014679339687943431,0.006767607547622058,0.001755205232490446,0.028753683393230724,0.0026401939314786463,0.005106399655117072
0.1848103,0.002420962587060125,0.04287179218143125,0.014607543182480136,0.00673245843831644,0.0018117745276162852,0.028790435059493604,0.0026359657552601184,0.005149472951832168
0.1852759,0.0024258103005777975,0.04277154166357028,0.014536119157280918,0.006697963434901883,0.001869375735403228,0.02882775056060898,0.0026317928813088093,0.005192606673542559
0.1857414,0.0024306056102129884,0.04267225506312671,0.014465075096484953,0.006664119421082378,0.001927998092116449,0.028865630531539344,0.002627676405375619,0.00523578802701766
0.1862069,0.0024353465435175458,0.04257392833413671,0.014394418334280814,0.006630923210925298,0.001987630678102184,0.02890407569034348,0.002623617422695963,0.005279004550209423
0.1866724,0.002440031164752671,0.04247655702363518,0.014324156053598738,0.006598371551108493,0.0020482624198634625,0.02894308684085701,0.0026196170274777305,0.005322244113229178
0.1871379,0.002444657575328861,0.042380136274829845,0.014254295284847734,0.006566461123155706,0.002109882092162527,0.02898266487519056,0.0026156763123873503,0.005365494919179128
0.1876034,0.0024492239142282564,0.04228466083045262,0.01418484290469723,0.006535188545659756,0.0021724783201500847,0.02902281077604221,0.0026117963680342988,0.005408745504839257
0.188069,0.0024537283584091783,0.04219012503628832,0.014115805634902823,0.0065045503764929085,0.0022360395815215236,0.029063525618821397,0.002607978282454378,0.005451984741210526
0.1885345,0.0024581691231926437,0.04209652284488049,0.014047190041175765,0.006474543115003899,0.002300554208700223,0.029104810573582496,0.002604223140592068,0.005495201833915304
0.189,0.002462544462630657,0.0420038478194139,0.013979002532095655,0.006445163204201038,0.0023660103910480724,0.029146666906766656,0.0026005320237822583,0.0055383863234561605
0.1894655,0.0024668526698561058,0.041912093137773304,0.013911249358065859,0.006416407032920793,0.0024323961771033097,0.02918909598275116,0.0025969060092316436,0.005581528085334319
0.189931,0.002471092077414085,0.041821251596777874,0.013843936610311152,0.006388270937981209,0.0024996994768457913,0.029232099265206087,0.0025933461695000614,0.005624617330029203
0.1903966,0.0024752610575744876,0.04173131561659088,0.013777070219917148,0.006360751206319497,0.002567908063989801,0.029275678318258717,0.002589853571982045,0.005667644602840648
0.1908621,0.002479358022625695,0.041642277245304074,0.013710655956911037,0.006333844077113027,0.002637009578304497,0.029319834807466427,0.0025864292783888626,0.005710600783595404
0.1913276,0.002483381425149192,0.04155412816369645,0.01364469942938325,0.006307545743883006,0.0027069915279620913,0.029364570500599443,0.00258307434423132,0.005753477086219578
0.1917931,0.00248732975827494,0.04146685969016672,0.013579206082649722,0.006281852356580048,0.0027778412919138504,0.02940988726823534,0.002579789818303603,0.005796265058178617
0.1922586,0.002491201555917346,0.041380462785838894,0.013514181198454496,0.006256760023650831,0.0028495461222939754,0.02945578708416784,0.0025765767421684345,0.005838956579786422
0.1927241,0.002494995392991684,0.04129492805984007,0.013449629894212523,0.006232264814085067,0.002922093146851429,0.029502272025633255,0.0025734361496438114,0.005881543863385159
0.1931897,0.002498709885610865,0.04121024577474932,0.013385557122292634,0.00620836275944201,0.0029954693714097534,0.029549344273358542,0.0025703690662915914,0.0059240194523972525
0.1936552,0.002502343691262465,0.04112640585221638,0.013321967669340767,0.006185049855855829,0.003069661682354922,0.029597006111435308,0.002567376508908176,0.005966376220251039
0.1941207,0.0025058955089659707,0.04104339787874851,0.013258866155643633,0.006162322066019143,0.0031446568491512584,0.0296452599270246,0.0025644594850175277,0.006008607369181533
0.1945862,0.002509364079410235,0.04096121111166364,0.013196257034533022,0.006140175321144155,0.0032204415268854533,0.029694108209897485,0.0025616189923667394,0.006050706428907748
0.1950517,0.0025127481850711893,0.04087983448520774,0.013134144591831017,0.006118605522900771,0.00329700225883872,0.029743553551817084,0.0025588560184243566,0.006092667255188009
0.1955172,0.0025160466503098907,0.04079925661683412,0.013072532945336331,0.006097608545331217,0.0033743254790871064,0.029793598645767843,0.002556171539881631,0.006134484028254657
0.1959828,0.002519258341451027,0.04071946581364257,0.013011426044351976,0.006077180236740669,0.003452397515130014,0.029844246285038074,0.002553566522156876,0.006176151251129572
0.1964483,0.0025223821668420203,0.04064045007897594,0.012950827669254383,0.006057316421563516,0.0035312045905469564,0.029895499362161758,0.0025510419189030773,0.00621766374782188
0.1969138,0.0025254170768928778,0.04056219711917153,0.012890741431104148,0.006038012902204925,0.003610732827682613,0.02994736086772544,0.0025485986715189195,0.0062590166614092
0.1973793,0.0025283620640969553,0.04048469435046481,0.012831170771298576,0.006019265460857461,0.0036909682503602115,0.029999833889046083,0.0025462377086633917,0.006300205452003769
0.1978448,0.0025312161630327884,0.04040792890604227,0.012772118961266283,0.0060010698612925515,0.003771896786623269,0.030052921608725615,0.0025439599457741414,0.006341225894604774
0.1983103,0.0025339784503471616,0.04033188764324027,0.012713589102204142,0.005983421850626627,0.0038535042715057044,0.03010662730308775,0.002541766284589757,0.006382074076838195
0.1987759,0.0025366480447195834,0.04025655715088653,0.012655584124856994,0.005966317161061796,0.00393577644983032,0.030160954340502578,0.002539657612676169,0.006422746396585453
0.1992414,0.002539224106808326,0.04018192375678065,0.012598106789340572,0.005949751511600897,0.0040186989790356314,0.030215906179604124,0.0025376348029573803,0.0064632395595020905
0.1997069,0.0025417058391781805,0.04010797353531003,0.012541159685008189,0.00593372060973677,0.0041022574320310244,0.030271486367405936,0.0025356987132507517,0.006503550576427731
0.2001724,0.002544092486210063,0.04003469231519744,0.012484745230361798,0.005918220153115575,0.004186437300080208,0.030327698537319512,0.002533850185807075,0.006543676760688458
0.2006379,0.0025463833339925955,0.03996206568737649,0.012428865673008055,0.005903245831173938,0.004271223995712951,0.03038454640708016,0.0025320900468556594,0.006583615725292802
0.2011034,0.002548577710195769,0.03989007901299089,0.012373523089660013,0.005888793326749702,0.004356602855665068,0.030442033776584537,0.0025304191061546735,0.006623365380022502
0.201569,0.002550674983926806,0.03981871743151364,0.012318719386185109,0.005874858317666004,0.004442559143846687,0.030500164525643997,0.0025288381565469692,0.00666292392841925
0.2020345,0.0025526745655683374,0.03974796586898202,0.012264456297699995,0.005861436478288439,0.004529078054338759,0.030558942611657543,0.0025273479735216054,0.006702289864668638
0.2025,0.002554575906599044,0.03967780904634427,0.012210735388712746,0.005848523481054994,0.0046161447144178165,0.030618372067207966,0.002525949314781281,0.006741461970382628
0.2029655,0.002556378499396934,0.03960823148791385,0.012157558053312877,0.005836114997978477,0.00470374418760895,0.03067845699758461,0.0025246429198158772,0.006780439311281806
0.203431,0.002558081877025478,0.039539217529927,0.0121049255154095,0.005824206702121132,0.004791861476766955,0.030739201578235814,0.002523429509482297,0.006819221233778791
0.2038966,0.0025596856130028524,0.039470751329199166,0.012052838829017845,0.005812794269041136,0.00488048152718559,0.030800610052154138,0.0025223097855907807,0.006857807361464198
0.2043621,0.002561189321054594,0.03940281687187584,0.012001298878594274,0.005801873378210642,0.0049695892297348665,0.030862686727197216,0.0025212844304978964,0.006896197591496625
0.2048276,0.0025625926548499775,0.03933539798227287,0.01195030637941983,0.005791439714405021,0.00505916942402625,0.03092543597334709,0.0025203541067063875,0.0069343920908982405
0.2052931,0.002563895307722438,0.039268478331801394,0.011899861878032322,0.005781488969062914,0.005149206901605657,0.03098886221991095,0.002519519456472091,0.006972391292757605
0.2057586,0.002565097012374375,0.03920204144797224,0.011849965752706838,0.005772016841616698,0.005239686409174062,0.031052969952666088,0.0025187811014181507,0.007010195892341477
0.2062241,0.002566197540566641,0.03913607072347421,0.011800618213984702,0.0057630190407928815,0.005330592651835536,0.031117763710951967,0.0025181396421567553,0.007047806843117444
0.2066897,0.002567196702793021,0.039070549425320726,0.011751819305250774,0.005754491285881954,0.005421910296372494,0.031183248084712137,0.0025175956579186437,0.00708522535268926
0.2071552,0.0025680943479399867,0.03900546070405876,0.011703568903359038,0.005746429307977152,0.005513623974547891,0.03124942771148871,0.00251714970619061,0.007122452878646812
0.2076207,0.0025688903629319942,0.038940787603034065,0.011655866719306433,0.005738828851181585,0.005605718286434101,0.0313163072733719,0.0025168023223612395,0.007159491124332662
0.2080862,0.0025695846723625903,0.03887651306770625,0.011608712298954804,0.005731685673783118,0.005698177803768132,0.03138389149390692,0.0025165540193750925,0.0071963420345271525
0.2085517,0.00257017723811158,0.038812619955007344,0.011562105023800878,0.005724995549396404,0.005790987073332845,0.031452185134960384,0.0025164052873955485,0.0072330077910541446
0.2090172,0.0025706680589485022,0.03874909104273699,0.011516044111794127,0.005718754268071451,0.005884130620363866,0.03152119299354829,0.0025163565934765175,0.007269490808309505
0.2094828,0.0025710571701226515,0.038685909038987554,0.011470528618202361,0.005712957637368102,0.005977592951981919,0.03159091989862735,0.0025164083812432183,0.007305793728714521
0.2099483,0.0025713446429398573,0.038623056591592,0.011425557436524885,0.0057076014833958464,0.006071358560650413,0.03166137070785137,0.0025165610705822094,0.0073419194180964435
0.2104138,0.0025715305843262396,0.038560516297587034,0.011381129299453063,0.005702681651818391,0.006165411927658237,0.031732550304294074,0.0025168150573408477,0.007377870960998426
0.2108793,0.0025716151363791317,0.038498270712684,0.011337242779878102,0.005698194008822519,0.006259737526627812,0.03180446359313954,0.002517170713036353,0.0074136516559210755
0.2113448,0.0025715984759053625,0.03843630236073955,0.011293896291945923,0.005694134442050801,0.006354319827048479,0.031877115498341234,0.0025176283845746426,0.007449265010497898
0.2118103,0.0025714808139471012,0.03837459374321784,0.011251088092158997,0.005690498861497826,0.006449143297835297,0.03195051095925036,0.002518188393979103,0.007484714736606896
0.2122759,0.00257126239529548,0.03831312734863621,0.01120881628052495,0.005687283200369688,0.006544192410913287,0.03202465492721438,0.0025188510381294747,0.007520004745420592
0.2127414,0.002570943497992239,0.03825188566198573,0.01116707880175174,0.00568448341590651,0.006639451644827115,0.032099552362146413,0.0025196165885110213,0.0075551391423967565
0.2132069,0.0025705244328196823,0.038190851174118155,0.01112587344648911,0.00568209549016779,0.006734905488376178,0.032175208229066554,0.0025204852909741626,0.007590122222212221
0.2136724,0.0025700055427792315,0.03813000639109095,0.011085197852616073,0.005680115430780403,0.006830538444274971,0.032251627494615916,0.002521457365504765,0.007624958463642177
0.2141379,0.0025693872025589247,0.038069333843462165,0.011045049506574135,0.005678539271649072,0.006926335032838577,0.032328815123544366,0.0025225330060052943,0.00765965252438744
0.2146034,0.002568669817990212,0.03800881609552728,0.011005425744746038,0.005677363073629059,0.0070222797956931106,0.032406776075172866,0.0025237123800870283,0.007694209235852243
0.215069,0.002567853825494428,0.03794843575449069,0.010966323754879926,0.005676582925160843,0.0071183572995108585,0.03248551529983116,0.0025249956288735153,0.007728633597875083
0.2155345,0.002566939691519344,0.037888175479564634,0.010927740577558784,0.005676194942866537,0.007214552139769814,0.03256503773527144,0.0025263828668154664,0.007762930773415191
0.216,0.0025659279119661965,0.03782801799098901,0.010889673107715183,0.005676195272107811,0.007310848944537276,0.032645348303058576,0.002527874181517236,0.007797106083197162
0.2164655,0.002564819011607603,0.03776794607896553,0.010852118096191236,0.0056765800875051365,0.00740723237827711,0.03272645190493745,0.00252946963357505,0.007831165000316305
0.216931,0.002563613543496752,0.0377079426124999,0.010815072151343766,0.005677345593418259,0.00750368714568026,0.03280835341917818,0.002531169256427112,0.00786511314480722
0.2173966,0.0025623120883682634,0.03764799054814577,0.01077853174069462,0.005678488024387914,0.007600197995518065,0.032891057696900004,0.002532973056215707,0.00789895627817809
0.2178621,0.0025609152540311034,0.037588072938644586,0.010742493192626058,0.005680003645538878,0.007696749724517898,0.03297456955837468,0.002534881011661403,0.00793270029791316
0.2183276,0.0025594236747539354,0.037528172941455586,0.010706952698121087,0.005681888752944592,0.0077933271812606056,0.03305889378931031,0.002536893073949432,0.007966351231945832
0.2187931,0.0025578380106433102,0.03746827382717136,0.010671906312548593,0.0056841396739536676,0.00788991527009921,0.03314403513711679,0.0025390091666283084,0.007999915233104784
0.2192586,0.0025561589470151124,0.037408358987815304,0.010637349957493086,0.0056867527674786715,0.007986498955098278,0.03322999830715425,0.002541229185520725,0.008033398573535471
0.2197241,0.0025543871937596923,0.037348411945018214,0.01060327942262877,0.0056897244242476415,0.008083063263993362,0.033316787958965845,0.002543552998646759,0.008066807639099399
0.2201897,0.0025525234847011483,0.037288416358072535,0.01056969036763767,0.005693051067018885,0.008179593292169829,0.03340440870249682,0.002545980446159387,0.008100148923753436
0.2206552,0.0025505685769512494,0.03722835603186324,0.01053657832417144,0.005696729150759651,0.008276074206660412,0.03349286509430148,0.00254851134029229,0.008133429023911478
0.2211207,0.002548523250258519,0.037168214924674786,0.010503938697856511,0.005700755162789249,0.008372491250160733,0.033582161633740074,0.0025511454653199287,0.00816665463279064
0.2215862,0.0025463883063530186,0.03710797715587392,0.010471766770342133,0.005705125622887251,0.008468829745062046,0.03367230275916767,0.002553882577529831,0.00819983253474422
0.2220517,0.0025441645682873952,0.03704762701346816,0.010440057701390794,0.005709837083367339,0.008565075097500348,0.03376329284411704,0.002556722405207019,0.008232969599583606
0.2225172,0.002541852879774751,0.03698714896154002,0.010408806531010527,0.005714886129117439,0.008661212801421016,0.0338551361934779,0.0025596646486304984,0.008266072776891302
0.2229828,0.0025394541045239177,0.036926527647557245,0.010378008181628436,0.005720269377606735,0.008757228442658006,0.03394783703967489,0.002562708980081714,0.008299149090327246
0.2234483,0.0025369691255727003,0.036865747909559085,0.010347657460304782,0.005725983478860238,0.00885310770302666,0.034041399538846724,0.002565855043864858,0.008332205631930573
0.2239138,0.0025343988446196574,0.03680479478321908,0.010317749060986925,0.0057320251154016335,0.008948836364429046,0.03413582776702902,0.002569102456338942,0.008365249556418958
0.2243793,0.0025317441813549743,0.03674365350878432,0.010288277566802376,0.005738391002165133,0.009044400312970732,0.03423112571634342,0.002572450805961542,0.008398288075487674
0.2248448,0.0025290060727909715,0.03668230953789146,0.010259237452390265,0.005745077886377129,0.009139785543087814,0.034327297291196004,0.0025758996533441427,0.008431328452110455
0.2253103,0.0025261854725927776,0.03662074854025925,0.010230623086270499,0.005752082547408387,0.00923497816168292,0.034424346304488145,0.0025794485313190294,0.008464377994844225
0.2257759,0.0025232833504096786,0.03655895641025749,0.01020242873324998,0.005759401796597557,0.009329964392268889,0.03452227647384348,0.0025830969450176887,0.008497444052139678
0.2262414,0.0025203006912076437,0.03649691927335199,0.010174648556865253,0.005767032477046773,0.00942473057911872,0.034621091417854584,0.002586844371960699,0.008530534006659743
0.2267069,0.002517238494603504,0.03643462349242521,0.010147276621860992,0.005774971463390089,0.009519263191420315,0.03472079465235291,0.002590690262159096,0.008563655269607876
0.2271724,0.002514097774201255,0.036372055673971934,0.010120306896703683,0.005783215661535494,0.009613548827434497,0.03482138958670543,0.002594634038227213,0.008596815275068123
0.2276379,0.0025108795569309178,0.036309202674169073,0.010093733256129916,0.005791762008381227,0.009707574218654693,0.034922879520141066,0.002598675095506976,0.008630021474358943
0.2281034,0.0025075848823903927,0.03624605160481875,0.01006754948372858,0.00580060747150707,0.009801326233966711,0.035025267638109786,0.0026028128022036585,0.008663281330402688
0.228569,0.002504214802190711,0.03618258983916336,0.010041749274556203,0.0058097490488412725,0.0098947918838069,0.03512855700867694,0.0026070464995330456,0.008696602312112663
0.2290345,0.0025007703793050833,0.03611880501757109,0.010016326237784676,0.005819183768303767,0.009987958324317037,0.035232750578955356,0.0026113755018799725,0.008729991888799603
0.2295,0.002497252687422133,0.0360546850530903,0.009991273899380477,0.005828908687426363,0.01008081286149424,0.03533785117157753,0.002615799096968161,0.008763457524599368
0.2299655,0.002493662810303677,0.035990218136870665,0.009966585704814505,0.005838920892950648,0.010173342955334156,0.03544386148121019,0.0026203165460412753,0.008797006672923572
0.230431,0.00249000184114742,0.03592539274344886,0.009942255021801603,0.005849217500404382,0.010265536223965685,0.0355507840711134,0.0026249270840550953,0.008830646770934836
0.2308966,0.0024862708819549145,0.035860197635896394,0.009918275143068775,0.005859795653657222,0.010357380447775415,0.0356586213697464,0.0026296299198807086,0.008864385234048276
0.2313621,0.0024824710429051295,0.03579462187082695,0.00989463928915113,0.005870652524456658,0.010448863573519884,0.03576737566742185,0.0026344242365186174,0.008898229450460789
0.2318276,0.0024786034417339617,0.035728654803260984,0.009871340611214538,0.005881785311945052,0.010539973718423717,0.03587704911301039,0.0026393091913236746,0.008932186775709627
0.2322931,0.0024746692031200105,0.0356622860913455,0.009848372193903976,0.005893191242158655,0.010630699174261639,0.03598764371069696,0.002644283916240796,0.008966264527261781
0.2327586,0.0024706694580769175,0.035595505700927225,0.009825727058216573,0.005904867567509469,0.010721028411422213,0.03609916131679037,0.0026493475180514145,0.009000469979135567
0.2332241,0.002466605343352556,0.03552830390997794,0.009803398164398286,0.005916811566250772,0.010810950082951168,0.03621160363658731,0.0026544990786306847,0.009034810356555857
0.2336897,0.0024624780008353467,0.035460671312870985,0.009781378414863172,0.005929020541927098,0.01090045302857207,0.03632497222129209,0.002659737655215446,0.00906929283064438
0.2341552,0.00245828857696796,0.0353925988245081,0.009759660657134203,0.0059414918228094605,0.010989526278682016,0.03643926846499291,0.002665062280682987,0.009103924513146526
0.2346207,0.002454038222168658,0.03532407768429593,0.009738237686804556,0.005954222761316524,0.011078159058320066,0.03655449360169559,0.00267047196384065,0.00913871245119619
0.2350862,0.002449728090260528,0.03525509945997182,0.009717102250518271,0.005967210733422508,0.011166340791105994,0.03667064870241544,0.0026759656897263257,0.009173663622120194
0.2355517,0.002445359337908834,0.03518565605127836,0.009696247048969188,0.005980453138052577,0.01125406110314699,0.03678773467232778,0.0026815424199198796,0.009208784928283968
0.2360172,0.0024409331240667033,0.035115739693486275,0.009675664739917047,0.005993947396466498,0.011341309826909894,0.03690575224797769,0.0026872010928655284,0.009244083191980198
0.2364828,0.002436450609429349,0.035045342960765405,0.009655347941219588,0.006007690951631329,0.011428077005056495,0.03702470199454935,0.0026929406242051897,0.009279565150362209
0.2369483,0.002431912955897002,0.03497445876940309,0.009635289233879546,0.006021681267583941,0.011514352894239502,0.03714458430319512,0.002698759907122801,0.009315237450423904
0.2374138,0.002427321326046705,0.034903080380869284,0.009615481165105364,0.006035915828784114,0.011600127968856731,0.037265399388424145,0.002704657812699602,0.009351106644028166
0.2378793,0.002422676882613111,0.034831201404727494,0.009595916251384517,0.006050392139458972,0.01168539292476105,0.03738714728555027,0.0027106331902803428,0.009387179182985757
0.2383448,0.0024179807879783975,0.03475881580139031,0.009576586981568233,0.006065107722939504,0.011770138682923583,0.037509827848198646,0.0027166848678503927,0.009423461414186884
0.2388103,0.0024132342036713894,0.034685917884718274,0.009557485819966417,0.006080060120989889,0.011854356393047619,0.037633440745870196,0.002722811652423686,0.009459959574787716
0.2392759,0.002408438289875971,0.0346125023244607,0.00953860520945155,0.006095246893130357,0.011938037437130575,0.03775798546156312,0.0027290123304414397,0.009496679787454292
0.2397414,0.0024035942049488437,0.03453856414853695,0.009519937574570259,0.006110665615954302,0.012021173432971372,0.03788346128945027,0.0027352856681815475,0.009533628055666212
0.2402069,0.0023987031049466706,0.0344640987451567,0.009501475324661222,0.006126313882440333,0.012103756237620373,0.03800986733261112,0.0027416304121785457,0.009570810259082574
0.2406724,0.0023937661431626314,0.03438910186477758,0.009483210856978062,0.006142189301259948,0.012185777950769085,0.03813720250081675,0.0027480452896540258,0.0096082321489726
0.2411379,0.0023887844696724126,0.034313569621898535,0.009465136559815852,0.00615828949608144,0.01226723091807665,0.03826546550836608,0.002754529008957356,0.009645899343713418
0.2416034,0.0023837592308896417,0.03423749849668732,0.009447244815639943,0.00617461210487068,0.01234810773443015,0.038394654871971315,0.002761080260016565,0.009683817324357446
0.242069,0.002378691569130778,0.0341608853364405,0.009429528004215865,0.006191154779189327,0.012428401247135701,0.03852476890869056,0.0027676977147992176,0.009721991430271757
0.2425345,0.002373582622189475,0.03408372735687435,0.009411978505739155,0.006207915183491024,0.012508104559037295,0.038655805733905146,0.002774380027783092,0.009760426854851774
0.243,0.002368433522920429,0.03400602214324538,0.009394588703964049,0.006224890994416137,0.012587211031560321,0.03878776325933962,0.0027811258364364615,0.009799128641311577
0.2434655,0.002363245398832734,0.0339277676512997,0.00937735098933006,0.00624207990008557,0.012665714287676723,0.038920639191121924,0.0027879337617077544,0.009838101678553028
0.243931,0.002358019371692764,0.033848962208050754,0.009360257762085506,0.0062594795993942045,0.012743608214788637,0.039054431027881385,0.0027948024085243644,0.009877350697115877
0.2443966,0.002352756557136612,0.033769604512385275,0.009343301435406993,0.006277087801304569,0.012820886967527452,0.03918913605888234,0.0028017303663003643,0.009916880265210995
0.2448621,0.0023474580642921395,0.033689693635497724,0.009326474438513876,0.006294902224141282,0.012897544970465103,0.03932475136219063,0.002808716209452885,0.00995669478483878
0.2453276,0.0023421249954106767,0.033609229021153424,0.009309769219776628,0.0063129205948868556,0.01297357692073443,0.03946127380287035,0.0028157584979269265,0.009996798487994759
0.2457931,0.0023367584455084318,0.03352821048578044,0.009293178249817992,0.006331140648479453,0.013048977790555385,0.039598700031208106,0.0028228557777283635,0.010037195432964365
0.2462586,0.0023313595020176647,0.03344663821839026,0.009276694024605712,0.0063495601271131435,0.013123742829663824,0.039737026480961696,0.0028300065814649143,0.010077889500708726
0.2467241,0.0023259292444476705,0.03336451278032698,0.009260309068535573,0.006368176779541245,0.013197867567639576,0.03987624936763059,0.0028372094288948314,0.010118884391343312
0.2471897,0.002320468744055607,0.03328183510484465,0.009244015937503399,0.006386988360383277,0.013271347816130357,0.04001636468674541,0.00284446282748307,0.010160183620711182
0.2476552,0.002314979063527181,0.033198606496512004,0.009227807221964618,0.006405992629436085,0.013344179670968126,0.04015736821217412,0.002851765272964677,0.010201790517052516
0.2481207,0.0023094612566671967,0.03311482863044399,0.009211675549979878,0.00642518735098961,0.013416359514174324,0.04029925549444258,0.0028591152499151374,0.010243708217772063
0.2485862,0.0023039163680999637,0.03303050355135904,0.009195613590245197,0.006444570293147825,0.013487884015850337,0.04044202185906764,0.0028665112323273765,0.010285939666306101
0.2490517,0.0022983454329795596,0.032945633672461394,0.009179614055105019,0.006464139227155321,0.013558750135949468,0.04058566240490049,0.0028739516841951324,0.010328487609090456
0.2495172,0.0022927494767099516,0.03286022177414777,0.009163669703546533,0.006483891926730056,0.01362895512592654,0.04073017200247894,0.0028814350601023796,0.010371354592631091
0.2499828,0.0022871295146750046,0.03277427100253794,0.00914777334417354,0.006503826167402729,0.013698496530261239,0.040875545292387246,0.0028889598058184913,0.010414542960678775
0.2504483,0.002281486551978393,0.03268778486782895,0.00913191783815814,0.006523939725863274,0.013767372187851283,0.0410217766836233,0.002896524358898811,0.010458054851509309
0.2509138,0.0022758215831934527,0.03260076724247286,0.009116096102168451,0.006544230379314884,0.01383558023327158,0.0411688603519736,0.0029041271492903074,0.010501892195310726
0.2513793,0.0022701355921230008,0.032513222359178404,0.00910030111127053,0.006564695904835952,0.013903119097895666,0.04131679023839706,0.002911766599941976,0.01054605671167883
0.2518448,0.0022644295515691273,0.0324251548087376,0.009084525901802634,0.0065853340787503075,0.013969987510875918,0.04146556004741917,0.00291944112741965,0.010590549907222368
0.2523103,0.002258704423112962,0.03233656953767905,0.009068763574219941,0.00660614267600603,0.014036184499979154,0.04161516324553821,0.0029271491425248574,0.010635373073279102
0.2527759,0.0022529611569044043,0.032247471845750775,0.00905300729590785,0.006627119469563166,0.014101709392274364,0.04176559305964559,0.0029348890509173636,0.010680527283743963
0.2532414,0.002247200691461792,0.03215786738323618,0.009037250303961982,0.006648262229790606,0.014166561814669246,0.041916842475463005,0.00294265925374103,0.01072601339301049
0.2537069,0.002241423953481466,0.032067762148106915,0.009021485907933077,0.0066695687238724054,0.01423074169429216,0.04206890423599985,0.0029504581482525825,0.010771832034026665
0.2541724,0.0022356318576571914,0.031977162483016804,0.009005707492534985,0.006691036715223789,0.014294249258716203,0.04222177084003501,0.0029582841284528836,0.01081798361646625
0.2546379,0.002229825306509381,0.031886075072140765,0.008989908520314017,0.006712663962917098,0.014357085036022038,0.04237543454062779,0.0029661355857202878,0.010864468325016656
0.2551034,0.002224005190224061,0.03179450693786262,0.008974082534277988,0.006734448221117859,0.014419249854696213,0.04252988734366265,0.002974010909445641,0.01091128611778437
0.255569,0.0022181723865015157,0.031702465437315384,0.008958223160483338,0.006756387238531176,0.014480744843361898,0.04268512100643259,0.0029819084876684726,0.01095843672481876
0.2560345,0.0022123277604145504,0.031609958258777764,0.00894232411057879,0.006778478757858598,0.014541571430339286,0.04284112703626563,0.002989826707713908,0.011005919646755203
0.2565,0.002206472164276315,0.031516993417930524,0.008926379184304042,0.006800720515265609,0.014601731343033447,0.04299789668919866,0.0029977639568298134,0.011053734153578198
0.2569655,0.002200606437517646,0.03142357925397671,0.008910382271942028,0.006823110239859915,0.01466122660714804,0.043155420968702694,0.0030057186228236742,0.011101879283505214
0.257431,0.0021947314065739014,0.03132972442562995,0.008894327356723273,0.006845645653180739,0.014720059545723821,0.043313690624463524,0.0030136890946986837,0.011150353841991825
0.2578966,0.002188847884781263,0.031235437906975267,0.008878208517180906,0.006868324468699336,0.014778232778001367,0.04347269615122142,0.003021673763288507,0.011199156400858687
0.2583621,0.0021829566722825224,0.03114072898320685,0.008862019929454876,0.006891144391330974,0.014835749218107661,0.04363242778767373,0.003029671021890177,0.01124828529754082
0.2588276,0.0021770585559423568,0.031045607246247435,0.008845755869544053,0.006914103116958599,0.014892612073566394,0.04379287551544404,0.0030376792668945613,0.011297738634459584
0.2592931,0.0021711543092721003,0.03095008259025348,0.008829410715504941,0.006937198331968399,0.014948824843632106,0.04395402905812136,0.0030456968984138477,0.0113475142785177
0.2597586,0.0021652446923640287,0.030854165207010325,0.008812978949595842,0.006960427712797452,0.015004391317448544,0.04411587788037281,0.0030537223209054867,0.011397609860717627
0.2602241,0.002159330451835152,0.03075786558122122,0.00879645516036529,0.006983788925493593,0.015059315572031976,0.044278411187132806,0.0030617539437920297,0.011448022775903482
0.2606897,0.002153412320780498,0.030661194485693665,0.008779834044683636,0.007007279625287727,0.015113601970080505,0.04444161792287165,0.0030697901820763047,0.011498750182626657
0.2611552,0.002147491018735868,0.030564162976426543,0.008763110409716631,0.007030897456178747,0.01516725515761075,0.04460548677094595,0.0030778294569513433,0.01154978900313515
0.2616207,0.0021415672516500255,0.030466782387601237,0.008746279174839873,0.007054640050531276,0.015220280061423515,0.044770006153033164,0.0030858701964044844,0.011601135923486548
0.2620862,0.0021356417118662736,0.03036906432647972,0.008729335373492948,0.007078505028686471,0.015272681886400217,0.04493516422865207,0.003093910835815086,0.011652787393784498
0.2625517,0.0021297150781133672,0.030271020668212623,0.008712274154972244,0.007102489998586109,0.015324466112631928,0.045100948894770725,0.003101949818545304,0.011704739628538446
0.2630172,0.0021237880155056963,0.030172663550560138,0.00869509078616133,0.007126592555410166,0.015375638492382947,0.04526734778550327,0.003109985596523422,0.01175698860714629
0.2634828,0.0021178611755526618,0.030074005368528372,0.008677780653197955,0.007150810281228104,0.015426205046890741,0.045434348271896435,0.0031180166308192717,0.01180953007449958
0.2639483,0.0021119351961771645,0.029975058768923788,0.008660339263076734,0.007175140744664029,0.01547617206300415,0.04560193746180628,0.003126041392211312,0.01186235954171081
0.2644138,0.00210601070174311,0.02987583664482799,0.008642762245186644,0.007199581500575894,0.015525546089661701,0.0457701021998656,0.0031340583617449286,0.011915472286962226
0.2648793,0.002100088303091821,0.02977635212999505,0.008625045352782622,0.007224130089748859,0.015574333934211867,0.04593882906754197,0.003142066031281555,0.011968863356475597
0.2653448,0.002094168597587237,0.029676618593173453,0.008607184464390618,0.007248784038602902,0.015622542658577038,0.04610810438328619,0.0031500629040381776,0.012022527565602244
0.2658103,0.002088252169169761,0.02957664963235458,0.008589175585145615,0.007273540858914729,0.015670179575262923,0.04627791420277038,0.0031580474951167937,0.012076459500032626
0.2662759,0.00208233958841861,0.02947645906894971,0.008571014848062207,0.007298398047553942,0.01571725224321504,0.04644824431921494,0.0031660183320233507,0.012130653517124734
0.2667414,0.002076431412622498,0.029376060941897684,0.008552698515237413,0.007323353086233452,0.015763768463523984,0.04661908026380312,0.003173973955175704,0.012185103747350582
0.2672069,0.002070528185858486,0.029275469501705075,0.008534222978985411,0.0073484034412740215,0.015809736274981237,0.04679040730618175,0.0031819129184001097,0.012239804095859987
0.2676724,0.0020646304390788193,0.029174699204420777,0.008515584762903906,0.007373546563382826,0.015855163949487296,0.046962210455046366,0.0031898337894157693,0.012294748244160823
0.2681379,0.002058738690205572,0.029073764705546876,0.008496780522871802,0.007398779887445882,0.015900059987314044,0.04713447445880859,0.0031977351503069407,0.012349929651914863
0.2686034,0.00205285344423293,0.028972680853887482,0.008477807047977862,0.007424100832334127,0.015944433112223322,0.047307183806343425,0.003205615597982152,0.012405341558848197
0.269069,0.0020469751933369354,0.028871462685337294,0.00845866126138,0.007449506800722929,0.01598829226644375,0.04748032272781367,0.003213473744620058,0.012460976986775214
0.2695345,0.002041104416992523,0.028770125416611652,0.008439340221094846,0.007474995178924708,0.01603164660550798,0.047653875195568414,0.0032213082181014995,0.012516828741735021
0.27,0.002035241582097676,0.02866868443891998,0.008419841120717161,0.007500563336734407,0.016074505492952633,0.04782782492511221,0.003229117662427331,0.012572889416239094
0.2704655,0.0020293871431045244,0.028567155311584772,0.008400161290068705,0.007526208627287413,0.016116878494883344,0.048002155376141234,0.0032369007381215834,0.012629151391628934
0.270931,0.0020235415421572026,0.02846555375560817,0.008380298195776055,0.0075519283869295685,0.016158775374407353,0.048176849753642295,0.003244656122619514,0.012685606840542442
0.2713966,0.0020177052092362887,0.028363895647188192,0.008360249441776928,0.0075777199350987945,0.016200206085936197,0.04835189100905049,0.0032523825106400873,0.012742247729487675
0.2718621,0.002011878562309624,0.028262197011186447,0.0083400127697545,0.007603580574217831,0.01624118076936115,0.048527261841461,0.003260078614542452,0.012799065821522635
0.2723276,0.002006062007489315,0.02816047401454926,0.008319586059499355,0.007629507589597563,0.01628170974410419,0.04870294469889055,0.003267743164665984,0.012856052679039635
0.2727931,0.0020002559391947153,0.028058742959683854,0.00829896732919858,0.0076554982493503634,0.016321803503047568,0.04887892177958369,0.003275374909653511,0.012913199666652792
0.2732586,0.001994460740321186,0.027957020277791293,0.008278154735651787,0.007681549804312906,0.016361472706345276,0.04905517503335917,0.0032829726167573777,0.012970497954187001
0.2737241,0.0019886767824144115,0.027855322522157888,0.008257146574413772,0.007707659487977985,0.0164007281751205,0.04923168616299172,0.003290535072128078,0.013027938519766712
0.2741897,0.001982904425850058,0.027753666361406748,0.00823594127986374,0.007733824516434896,0.016439580885053713,0.04940843662562473,0.0032980610810852203,0.013085512153002729
0.2746552,0.00197714402001855,0.027652068572711165,0.008214537425201087,0.007760042088318052,0.0164780419598668,0.049585407634209364,0.0033055494683706097,0.013143209458275127
0.2751207,0.001971395903514749,0.027550546034971878,0.00819293372236787,0.007786309384763467,0.016516122664709056,0.049762580158965834,0.003312999078383269,0.013201020858110299
0.2755862,0.001965660404332329,0.027449115721960373,0.008171129021898206,0.007812623569372817,0.016553834399451104,0.04993993492886281,0.00332040877539622,0.013258936596650088
0.2760517,0.001959937840062647,0.027347794695430652,0.00814912231269509,0.007838981788184736,0.016591188691893,0.05011745243311066,0.0033277774437548676,0.013316946743210857
0.2765172,0.0019542285180979392,0.027246600098201984,0.008126912721735217,0.007865381169653018,0.016628197190892823,0.050295112922664385,0.0033351039880569005,0.013375041195930361
0.2769828,0.0019485327358386634,0.027145549147215103,0.008104499513702606,0.00789181882463148,0.016664871659422018,0.050472896411732394,0.003342387333313659,0.013433209685500281
0.2774483,0.0019428507809048402,0.027044659126564237,0.008081882090551993,0.00791829184636534,0.016701223967553733,0.05065078267928764,0.0033496264250930056,0.013491441778982332
0.2779138,0.001937182931351239,0.02694394738050718,0.008059059991003108,0.007944797310489119,0.016737266085390237,0.05082875127057938,0.0033568202296438148,0.01354972688370591
0.2783793,0.0019315294558862664,0.02684343130645549,0.00803603288996702,0.007971332275031206,0.01677301007593562,0.051006781498645334,0.0033639677340022533,0.013608054251245397
0.2788448,0.001925890614094435,0.02674312834794692,0.008012800597905888,0.00799789378042534,0.016808468087919762,0.051184852445826115,0.0033710679460801033,0.013666412981475197
0.2793103,0.0019202666566622705,0.0266430559876022,0.007989363060127461,0.008024478849529287,0.01684365234857973,0.0513629429652855,0.0033781198947354257,0.013724792026700688
0.2797759,0.001914657825607524,0.026543231740068594,0.00796572035601577,0.008051084487650994,0.01687857515640462,0.051541031682541316,0.0033851226298259,0.013783180195863276
0.2802414,0.0019090643545115425,0.026443673144952745,0.007941872698199421,0.008077707682582529,0.01691324887384989,0.05171909699701251,0.0033920752222452236,0.013841566158817691
0.2807069,0.0019034864687546417,0.026344397759745657,0.00791782043165893,0.008104345404642053,0.016947685920027256,0.05189711708358933,0.003398976763942979,0.0138999384506797
0.2811724,0.0018979243857543224,0.026245423152742826,0.007893564032774478,0.0081309946067241,0.01698189876337603,0.05207506989423395,0.003405826367928405,0.013958285476242449
0.2816379,0.001892378315206179,0.026146766895962518,0.007869104108315482,0.008157652224358351,0.017015899914321748,0.05225293315962017,0.003412623168258512,0.014016595514459697
0.2821034,0.0018868484593273405,0.02604844655806545,0.007844441394373312,0.008184315175777064,0.017049701917927748,0.05243068439082091,0.003419366320010991,0.014074856722994302
0.282569,0.0018813350131023012,0.02595047969727891,0.007819576755238557,0.008210980361991272,0.017083317346545324,0.05260830088105264,0.003426054999242345,0.014133057142830347
0.2830345,0.0018758381645310135,0.025852883854328393,0.0077945111822242405,0.008237644666875784,0.01711675879246791,0.0527857597074856,0.00343268840293167,0.014191184702947428
0.2835,0.0018703580948791216,0.025755676545379847,0.007769245792436476,0.008264304957262996,0.01715003886059465,0.05296303773312867,0.0034392657489104744,0.014249227225055752
0.2839655,0.001864894978930231,0.02565887525499548,0.007743781827494163,0.008290958083045457,0.017183170161108544,0.05314011160879746,0.003445786275778942,0.014307172428390667
0.284431,0.001859448985240115,0.025562497429106185,0.007718120652199363,0.008317600877287131,0.01721616530217432,0.05331695777517378,0.0034522492428090126,0.014365007934565344
0.2848966,0.0018540202763927688,0.02546656046800358,0.007692263753160084,0.008344230156343276,0.017249036882660933,0.05349355246496461,0.0034586539298346757,0.014422721272480324
0.2853621,0.0018486090092582111,0.025371081719355006,0.007666212737367282,0.008370842719988829,0.017281797484893564,0.053669871705168,0.0034649996371298674,0.014480299883288588
0.2858276,0.0018432153352519426,0.02527607847124515,0.0076399693307279155,0.008397435351555247,0.017314459667439695,0.053845891319453235,0.003471285685274366,0.014537731125414729
0.2862931,0.0018378394005959555,0.025181567945248333,0.007613535376555952,0.008424004818075724,0.01734703595793393,0.05402158693066213,0.0034775114150080878,0.014595002279626726
0.2867586,0.0018324813465811938,0.025087567289535664,0.007586912834023286,0.008450547870438738,0.01737953884594597,0.054196933963437915,0.0034836761870741884,0.014652100554158715
0.2872241,0.0018271413098313357,0.02499409357202144,0.0075601037765725245,0.008477061243549864,0.017411980775896015,0.054371907646987745,0.003489779382051378,0.014709013089883042
0.2876897,0.0018218194225677715,0.024901163773553076,0.007533110390293616,0.008503541656501799,0.017444374140021954,0.05454648301798446,0.003495820400175826,0.014765726965529745
0.2881552,0.001816515812875633,0.024808794781149057,0.007505934972266314,0.008529985812752572,0.017476731271402375,0.05472063492361293,0.0035017986611530424,0.014822229202951601
0.2886207,0.0018112306049707133,0.024717003381289064,0.007478579928870426,0.008556390400311953,0.017509064437039507,0.054894338024765676,0.0035077136039601098,0.014878506772432755
0.2890862,0.001805963919467104,0.024625806253260555,0.007451047774065719,0.008582752091936046,0.01754138583100605,0.05506756679939234,0.003513564686638612,0.014934546598038887
0.2895517,0.0018007158736453599,0.024535219962565934,0.007423341127643376,0.00860906754533012,0.01757370756765977,0.055240295546007324,0.0035193513860786426,0.01499033556300692
0.2900172,0.0017954865817209893,0.0244452609543944,0.0073954627134507605,0.00863533340335965,0.017606041674929598,0.05541249838735904,0.003525073197794259,0.015045860515172097
0.2904828,0.0017902761551130612,0.024355945547162423,0.007367415357591272,0.00866154629426957,0.017638400087676878,0.05558414927426458,0.003530729635690771,0.015101108272430294
0.2909483,0.0017850847027127096,0.024267289926126732,0.007339201986600985,0.008687702831911661,0.01767079464113536,0.055755221989612525,0.003536320231824251,0.015156065628233411
0.2914138,0.0017799123311513202,0.02417931013707361,0.007310825625603763,0.008713799615979984,0.017703237064433372,0.055925690152536484,0.0035418445361536646,0.015210719357115678
0.2918793,0.0017747591450681898,0.0240920220800881,0.007282289396446467,0.008739833232254215,0.0177357389742015,0.056095527222761676,0.0035473021162860273,0.01526505622024876
0.2923448,0.0017696252473774435,0.024005441503406652,0.007253596515815856,0.008765800252850755,0.01776831186826904,0.05626470650512626,0.0035526925572149765,0.015319062971023575
0.2928103,0.0017645107395340225,0.023919583997356674,0.007224750293338763,0.00879169723648146,0.017800967119452362,0.056433201154278766,0.0035580154610531495,0.015372726360656768
0.2932759,0.0017594157217985524,0.02383446498838635,0.007195754129667048,0.008817520728719943,0.017833715969438342,0.05660098417955258,0.003563270446758749,0.015426033143819748
0.2937414,0.001754340293500909,0.023750099733187955,0.007166611514548838,0.0088432672622754,0.017866569522765774,0.056768028450018146,0.0035684571498566737,0.01547897008428822
0.2942069,0.0017492845533022996,0.023666503312917843,0.007137326024887462,0.008868933357274119,0.017899538740907717,0.056934306699712764,0.0035735752221545914,0.015531523960609986
0.2946724,0.0017442485994556753,0.02358369062751615,0.007107901322789477,0.008894515521548857,0.017932634436457578,0.05709979153304788,0.0035786243314543274,0.015583681571788757
0.2951379,0.0017392325300642775,0.023501676390129015,0.007078341153603116,0.008920010250936437,0.017965867267421602,0.05726445543039291,0.0035836041612589604,0.015635429742981707
0.2956034,0.0017342364433381207,0.02342047512163604,0.007048649343948407,0.008945414029584061,0.017999247731620347,0.05742827075383482,0.0035885144104760005,0.0156867553312084
0.296069,0.0017292604378482004,0.02334010114528557,0.0070188297997401915,0.008970723330264878,0.018032786161201554,0.05759120975311182,0.003593354793117046,0.015737645231068798
0.2965345,0.0017243046127782173,0.023260568581440072,0.0069888865042052085,0.0089959346147035,0.018066492717266767,0.0577532445717195,0.003598125037994301,0.015788086380467903
0.297,0.0017193690681736068,0.023181891342433824,0.006958823515894369,0.009021044333912123,0.018100377384613925,0.05791434725318734,0.003602824888414361,0.01583806576634468
0.2974655,0.0017144539051876496,0.023104083127544882,0.006928644966691331,0.009046048928537932,0.018134449966598114,0.05807448974752333,0.003607454101869648,0.015887570430402696
0.297931,0.0017095592263244488,0.023027157418083092,0.0068983550598183995,0.009070944829222508,0.018168720080112548,0.05823364391782388,0.0036120124497278907,0.015936587474839982
0.2983966,0.001704685135678566,0.022951127472595874,0.006867958067840798,0.009095728456973831,0.018203197150691852,0.05839178154704593,0.003616499716920039,0.015985104068075504
0.2988621,0.0016998317391711188,0.022876006322193207,0.006837458330670283,0.009120396223551519,0.018237890407739574,0.05854887434493803,0.003620915701626977,0.016033107450469593
0.2993276,0.0016949991447821697,0.0228018067659932,0.006806860253569049,0.009144944531865809,0.0182728088798819,0.05870489395512705,0.003625260214965383,0.01608058494003561
0.2997931,0.0016901874627792586,0.022728541366689545,0.006776168305154855,0.009169369776390877,0.018307961390449472,0.05885981196235698,0.003629533080673053,0.016127523938140043
0.3002586,0.001685396805941948,0.022656222446242026,0.006745387015408292,0.009193668343592998,0.018343356553089146,0.0590135998998766,0.003633734134793986,0.016173911935188152
0.3007241,0.0016806272897822673,0.022584862081691207,0.006714520973683055,0.009217836612374101,0.018379002767507494,0.05916622925697299,0.003637863225363498,0.016219736516292244
0.3011897,0.0016758790327609492,0.022514472101098307,0.006683574826720112,0.009241870954531215,0.018414908215347733,0.05931767148664759,0.0036419202120936216,0.016264985366919563
0.3016552,0.0016711521564993703,0.022445064079611353,0.006652553276666586,0.009265767735232291,0.018451080856201684,0.05946789801343144,0.0036459049660590164,0.016309646278516797
0.3021207,0.001666446785987113,0.022376649335658364,0.0066214610791001235,0.009289523313508827,0.018487528423758327,0.05961688024133641,0.0036498173693836388,0.016353707154108204
0.3025862,0.0016617630497850911,0.02230923892726828,0.006590303041059489,0.00931313404276566,0.01852425842209038,0.059764589561939384,0.0036536573149284096,0.016397156013864263
0.3030517,0.0016571010802241793,0.022242843648520152,0.006559084019082063,0.009336596271308178,0.018561278122080315,0.059910997362596224,0.0036574247059801158,0.016439981000637864
0.3035172,0.0016524610135993216,0.02217747402612105,0.0065278089172488745,0.009359906342887244,0.018598594557987035,0.06005607503478306,0.0036611194559418034,0.016482170385464793
0.3039828,0.0016478429903590763,0.02211314031611292,0.006496482685237736,0.009383060597261978,0.018636214524154357,0.06019979398256186,0.0036647414880249226,0.01652371257302539
0.3044483,0.0016432471552905773,0.022049852500708515,0.006465110316385019,0.009406055370780595,0.018674144571862335,0.060342125631167504,0.0036682907349434835,0.016564596107064025
0.3049138,0.001638673657699877,0.021987620285256387,0.006433696845756541,0.009428886996979424,0.018712391006322295,0.06048304143571329,0.0036717671386105057,0.016604809675762992
0.3053793,0.001634122651587637,0.021926453095334877,0.006402247348227959,0.009451551807200234,0.01875095988381638,0.06062251289001216,0.0036751706498370324,0.01664434211706734
0.3058448,0.0016295942958201187,0.02186636007397507,0.006370766936575064,0.009474046131226056,0.018789857008982308,0.060760511535510826,0.0036785012280339795,0.016683182423957017
0.3063103,0.0016250887542954239,0.021807350079012564,0.00633926075957427,0.009496366297935582,0.018829087932244002,0.06089700897033414,0.00368175884091708,0.016721319749662605
0.3067759,0.0016206061961049237,0.021749431680568133,0.006307734000113575,0.009518508635976359,0.018868657947388612,0.061031976858436796,0.003684943464215165,0.016758743412820885
0.3072414,0.0016161467956898059,0.021692613158657247,0.006276191873314186,0.009540469474456907,0.01890857208929054,0.06116538693885957,0.003688055081381998,0.016795442902566248
0.3077069,0.0016117107329926608,0.02163690250092843,0.006244639624663005,0.009562245143657982,0.018948835131782808,0.06129721103508667,0.0036910936833118636,0.016831407883553893
0.3081724,0.0016072981936040283,0.021582307400530538,0.00621308252815608,0.009583831975763162,0.01898945158567614,0.06142742106450046,0.0036940592680590797,0.01686662820091073
0.3086379,0.0016029093689038131,0.021528835254108973,0.006181525884453157,0.009605226305608991,0.019030425696925927,0.06155598904792976,0.0036969518405615834,0.01690109388510983
0.3091034,0.001598544456197482,0.021476493159930922,0.006149975019043415,0.00962642447145485,0.019071761444947103,0.06168288711928712,0.0036997714123687196,0.016934795156764194
0.309569,0.0015942036588469512,0.02142528791613983,0.006118435280422472,0.009647422815772773,0.01911346254107678,0.0618080875352903,0.0037025180013733503,0.016967722431335763
0.3100345,0.0015898871863960708,0.021375226019139368,0.0060869120382807266,0.009668217686057348,0.01915553242718435,0.06193156268526266,0.0037051916315483874,0.016999866323755677
0.3105,0.001585595254690612,0.021326313662107292,0.006055410681703091,0.009688805435655827,0.019197974274428663,0.06205328510100697,0.0037077923326878618,0.017031217652951798
0.3109655,0.0015813280859926465,0.021278556733639594,0.006023936617380182,0.009709182424618547,0.019240790982161648,0.06217322746674685,0.003710320140152638,0.017061767446279723
0.311431,0.0015770859090892086,0.021231960816525296,0.005992495267831025,0.009729345020569668,0.019283985176977735,0.06229136262912986,0.0037127750946208847,0.017091506943853575
0.3118966,0.0015728689593951205,0.021186531186652095,0.005961092069637329,0.009749289599598265,0.01932755921190845,0.06240766360728611,0.0037151572418434205,0.017120427602772995
0.3123621,0.0015686774790498504,0.02114227281204295,0.0059297324716894,0.009769012547169685,0.0193715151657615,0.0625221036029357,0.003717466632404025,0.017148521101242997
0.3128276,0.0015645117170082757,0.02109919035202351,0.005898421933443718,0.009788510259057085,0.019415854842604028,0.06263465601053808,0.003719703321484805,0.017175779342583318
0.3132931,0.0015603719291252022,0.021057288156520092,0.00586716592319225,0.009807779142292947,0.019460579771389628,0.06274529442747602,0.00372186736863668,0.017202194459124243
0.3137586,0.0015562583782334973,0.021016570265487845,0.005835969916343539,0.009826815616140383,0.019505691205728898,0.06285399266426626,0.0037239588375550226,0.017227758815985997
