Time,Rectus Femoris right,Rectus Femoris left,Hamstrings right,Hamstrings left,TibilaisÂ Anterior right,TibilaisÂ Anterior left,Gastrocnemius right,Gastrocnemius left
0.0,-0.0027534134759011892,-0.009235974903702284,-0.000394058010977364,-0.0005230097944215729,0.010897649578045166,0.027064248057724147,-0.009638796066835984,-0.008725524984087237
0.0004655,-0.0026332827238997104,-0.009000806035503427,0.00016876259841896614,-0.000462199091165513,0.011310349576039403,0.028357971610378306,-0.0092092646856648,-0.00857136878225806
0.000931,-0.00251290447989757,-0.008766331993040208,0.0007319092097876574,-0.00040169899743713834,0.0117222407322488,0.029640720777961115,-0.008779706303043047,-0.008417367557006363
0.0013966,-0.0023922807658675214,-0.008532585458320223,0.0012953096214646678,-0.0003415185807213253,0.012133268593446555,0.030912197309839108,-0.008350155652269074,-0.008263537143181437
0.0018621,-0.0022714133627956138,-0.008299598910419013,0.0018588915160964081,-0.00028166681260412534,0.012543379022205002,0.032172104852974365,-0.007920647061420935,-0.008109893252087113
0.0023276,-0.0021503038056160254,-0.008067404614530886,0.0024225824814900565,-0.00022215256513419008,0.012952518217060697,0.033420149071417916,-0.007491214439377701,-0.007956451466176353
0.0027931,-0.002028953378215662,-0.007836034611135669,0.002986310031484595,-0.00016298460721476498,0.013360632732558735,0.03465603776612214,-0.007061891262099933,-0.0078032272338213636
0.0032586,-0.0019073631085123367,-0.007605520705290567,0.0035500016268294305,-0.00010417160102865538,0.013767669499160577,0.0358794809950251,-0.006632710559182352,-0.007650235864162458
0.0037241,-0.0017855337636102702,-0.007375894456056113,0.0041135846960578945,-4.572209849853044e-05,0.014173575842999834,0.03709019119336016,-0.006203704900691412,-0.007497492522038811
0.0041897,-0.0016634658450365664,-0.007147187166064916,0.00467698665634342,1.235546221510136e-05,0.014578299505470767,0.03828788329414453,-0.0057749063843002026,-0.007345012223004179
0.0046552,-0.0015411595840622225,-0.006919429871241636,0.005240134934326697,7.005276017594244e-05,0.014981788662634764,0.0394722748488012,-0.0053463466227328975,-0.007192809828430552
0.0051207,-0.0014186149371111095,-0.006692653330682107,0.005802956986902667,0.00012736159509171586,0.015383991944430407,0.04064308614786927,-0.004918056731530717,-0.007040900040702605
0.0055862,-0.0012958315812602503,-0.00646688801669901,0.006365380321956668,0.00018427389068951288,0.015784858453673348,0.04180004034175851,-0.0044900673171511755,-0.006889297398505741
0.0060517,-0.00117280890983458,-0.006242164105040802,0.006927332519039543,0.0002407816980445076,0.01618433778483272,0.04294286356150481,-0.004062408465412175,-0.006738016272210426
0.0065172,-0.0010495460280992295,-0.006018511465289995,0.007488741249971827,0.0002968771988599243,0.016582380042571437,0.0440712850394844,-0.003635109730292199,-0.006587070859355349
0.0069828,-0.0009260417490522098,-0.005795959651446159,0.008049534299367559,0.00035255270869620535,0.016978935860038277,0.04518503723004538,-0.003208200123097473,-0.0064364751802318985
0.0074483,-0.0008022945893202124,-0.005574537892698505,0.0086096395850685,0.00040780068014739163,0.017373956416900246,0.046283855930016465,-0.0027817081020063317,-0.006286243073572248
0.0079138,-0.0006783027651600653,-0.005354275084392306,0.009168985178479892,0.00046261370596279295,0.01776739345710423,0.047367480399053266,-0.002355661562000394,-0.006136388192343148
0.0083793,-0.0005540641885682171,-0.005135199779193012,0.009727499324799235,0.0005169845221120949,0.018159199306357385,0.04843565347978405,-0.0019300878251914584,-0.005986923999647326
0.0088448,-0.00042957646350047106,-0.004917340178451474,0.010285110463129798,0.0005709060107921216,0.018549326889315994,0.04948812171771711,-0.0015050136315524815,-0.0058378637647341185
0.0093103,-0.000304836882204044,-0.0047007241237733925,0.01084174724647076,0.0006243712033735532,0.018937729746472693,0.0505246354808732,-0.0010804651300605455,-0.005689220559120838
0.0097759,-0.00017984242166389474,-0.004485379088795799,0.011397338561576022,0.0006773732832859903,0.019324362050732066,0.05154494907910651,-0.0006564678702592757,-0.00554100725282618
0.0102414,-5.4589740165147274e-05,-0.004271332171173147,0.011951813548673843,0.0007299055888398487,0.019709178623664607,0.05254882088307874,-0.00023304679424767576,-0.005393236510716894
0.0107069,7.092482602668323e-05,-0.00405861008477539,0.01250510162103947,0.0007819616159836877,0.020092134951429013,0.05353601344285088,0.00018977377089811925,-0.0052459207889688055
0.0111724,0.00019670526586606057,-0.0038472391521002557,0.013057132484413087,0.0008335350209956839,0.020473187200352724,0.054506293606057736,0.0006119701202641478,-0.00509907233164317
0.0116379,0.000322755896606891,-0.003637245296901728,0.013607836156255436,0.000884619623108094,0.02085229223216056,0.05545943263563015,0.0010335191777934762,-0.004952703167379201
0.0121034,0.0004490813667596562,-0.0034286540370365433,0.014157142984833513,0.0009352094070636886,0.021229407618841355,0.056395206327030246,0.0014543985025317358,-0.00480682510620349
0.012569,0.0005756866589248514,-0.0032214904775302727,0.014704983668128915,0.0009852985256032715,0.021604491657142653,0.05731339512496441,0.0018745862944191814,-0.004661449736456966
0.0130345,0.0007025770925014,-0.0030157793038642993,0.01525128927256159,0.0010348813018835259,0.021977503382683797,0.058213784239538706,0.002294061399625784,-0.004516588421839946
0.0135,0.0008297583262687513,-0.002811544775484682,0.01579599125152203,0.0010839522318245344,0.022348402583678203,0.05909616376182104,0.002712803315426465,-0.004372252298575771
0.0139655,0.0009572363608413996,-0.002608810719533542,0.01633902146370537,0.0011325059863863992,0.022717149814255995,0.05996032877877416,0.0031307921946141905,-0.004228452272693481
0.014431,0.001085017540994616,-0.00240760052480317,0.016880312191241316,0.0011805374137744446,0.023083706407378557,0.06080607948752362,0.003548008849449347,-0.004085199017429866
0.0148966,0.0012131085578602435,-0.002207937135912646,0.017419796157614208,0.0012280415415725405,0.023448034487336705,0.06163322130892446,0.003964434755144648,-0.003942502970751175
0.0153621,0.0013415164509914897,-0.0020098430477064385,0.017957406545367895,0.001275013578804121,0.023810096981824385,0.06244156500039127,0.004380052052885544,-0.0038003743329946935
0.0158276,0.00147024861029573,-0.0018133402998742098,0.01849307701359031,0.0013214489179205092,0.024169857633579896,0.0632309267679559,0.004794843552386715,-0.003658823064630294
0.0162931,0.0015993127778344235,-0.0016184504717909269,0.019026741715172636,0.0013673431367161937,0.02452728101158687,0.06400112837751808,0.005208792733985679,-0.0035178588841420226
0.0167586,0.0017287170494893346,-0.0014251946775762816,0.019558335313838198,0.0014126920001707344,0.02488233252182745,0.06475199726525464,0.0056218837502749145,-0.003377491266029692
0.0172241,0.0018584698764943293,-0.0012335935613723582,0.02008779300093618,0.0014574914622170268,0.025234978417580815,0.06548336664715379,0.006034101427274371,-0.0032377294389304223
0.0176897,0.0019885800668321086,-0.0010436672928384454,0.02061505051199548,0.0015017376674357132,0.025585185809260558,0.06619507562764129,0.006445431265146616,-0.003098582383860011
0.0181552,0.0021190567864953175,-0.0008554355628618605,0.021140044143034054,0.0015454269526756009,0.025932922673785202,0.06688696930726626,0.006855859438457247,-0.002960058832573987
0.0186207,0.002249909560611566,-0.0006689175794836042,0.021662710766619284,0.0015885558486000012,0.0262781578634768,0.06755889888941526,0.007265372795983397,-0.0028221672660481544
0.0190862,0.0023811482744319767,-0.0004841320640376322,0.0221829878476748,0.0016311210811589417,0.026620861114483137,0.06821072178602382,0.007673958860073321,-0.0026849159130783963
0.0195517,0.002512783174182974,-0.0003010972475024776,0.022700813459029374,0.0016731195729872304,0.02696100305471958,0.06884230172225525,0.008081605825560109,-0.0025483127489994753
0.0200172,0.002644824867781119,-0.00011983086706391989,0.02321612629670363,0.0017145484447283561,0.027298555211327243,0.069453508840117,0.008488302558232701,-0.0024123654945225233
0.0204828,0.00277728432541089,5.964983711264352e-05,0.023728865694930296,0.0017554050162842296,0.027633490017644414,0.07004421980098544,0.008894038592867443,-0.0022770816146908753
0.0209483,0.0029101728799653774,0.0002373281249015005,0.024238971640903825,0.0017956868079907699,0.027965780819688604,0.07061431788701031,0.009298804130823417,-0.0021424683179538575
0.0214138,0.0030435022273499327,0.0004131877590290033,0.024746384789255307,0.0018353915417193682,0.0282954018821465,0.07116369310136993,0.0097025900372049,-0.002008532555358104
0.0218793,0.0031772844266488654,0.000587213007680444,0.025251046476248654,0.0018745171419042822,0.028622328393869283,0.0716922422673484,0.010105387837594371,-0.0018752810198559226
0.0223448,0.003311531900155325,0.0007593886469028689,0.02575289873369432,0.0019130617364960388,0.028946536472870706,0.07219986912620571,0.010507189714359665,-0.001742720145730163
0.0228103,0.0034462574332645157,0.0009296999628053025,0.026251884302577255,0.001951023657840943,0.029268003170825146,0.07268648443381137,0.01090798850253893,-0.0016108561081349488
0.0232759,0.0035814741742304303,0.0010981327535578903,0.026747946646396008,0.001988401443486801,0.029586706477063032,0.07315200605601153,0.011307777685307238,-0.0014796948227515487
0.0237414,0.0037171956337862903,0.0012646733311915087,0.027241029964210413,0.002025193836914967,0.029902625322060797,0.0735963590626997,0.011706551389028971,-0.001349241945558582
0.0242069,0.003853435684628872,0.0014293085231994289,0.02773107920339534,0.0020613997881988233,0.030215739580422653,0.07401947582056055,0.012104304377900213,-0.001219502872715691
0.0246724,0.0039902085607668916,0.001592025673942648,0.028218040072098226,0.0020970184545888062,0.0305260300733514,0.07442129608445641,0.012501032048185876,-0.0010904827405597624
0.0251379,0.0041275288567336164,0.0017528126458605114,0.02870185905139805,0.0021320492010240936,0.030833478570605786,0.07480176708742631,0.012896730422056841,-0.0009621864257127217
0.0256034,0.004265411526663866,0.001911657820488251,0.02918248340716384,0.002166491600571079,0.031138067791942215,0.07516084362926731,0.01329139614103313,-0.0008346185452998968
0.026069,0.004403871883235592,0.002068550099283053,0.029659861201610915,0.0022003454347887526,0.031439781408039165,0.07549848816366851,0.013685026459040095,-0.0007077834572779094
0.0265345,0.004542925596476243,0.0022234789042602705,0.030133941304553328,0.0022336106940211166,0.03173860404090358,0.07581467088386808,0.014077619235085331,-0.0005816852608710279
0.027,0.004682588692434184,0.0023764341784413756,0.03060467340435102,0.002266287577616757,0.03203452126375943,0.07610936980680452,0.014469172925564563,-0.00045632779711489424
0.0274655,0.004822877551715442,0.0025274063861152637,0.031072008018550208,0.0022983764940757005,0.032327519600419484,0.07638257085573337,0.014859686576205212,-0.00033171464950651036
0.027931,0.004963808907886129,0.002676386512914533,0.03153589650421538,0.0023298780611236826,0.03261758652414235,0.07663426794128123,0.01524915981365667,-0.00020784914475934752
0.0283966,0.005105399845740909,0.002823366065708395,0.03199629106795107,0.002360793105713962,0.03290471045597698,0.07686446304090971,0.015637592836736835,-8.473435366242635e-05
0.0288621,0.00524766779943788,0.0029683370723138985,0.0324531447756115,0.002391122663956818,0.0331888807625976,0.07707316627676189,0.016024986407344975,3.762690795779621e-05
0.0293276,0.0053906305505002855,0.0031112920810271887,0.032906411561696006,0.002420867980976892,0.033470087753631805,0.0772603959918644,0.01641134184105139,0.00015923207817390234
0.0297931,0.005534306225685459,0.0032522241599765222,0.0333560462384282,0.002450030510698548,0.03374832267848499,0.07742617882465924,0.01679666099737471,0.00028007884779352685
0.0302586,0.005678713294721422,0.0033911268962987903,0.03380200450451693,0.002478611915559483,0.03402357772266453,0.07757054978183868,0.0171809462697578,0.00040016515909609254
0.0307241,0.005823870567911554,0.003527994395141294,0.034244242953597064,0.002506614066152836,0.0342958460036077,0.07769355230945757,0.017564200575253455,0.0005194892044714652
0.0311897,0.005969797193607766,0.003662821278490525,0.03468271908234823,0.0025340390407980885,0.03456512156601787,0.07779523836229704,0.017946427343930836,0.0006380494249617433
0.0316552,0.006116512655552584,0.003795602683829727,0.03511739129828955,0.0025608891250410823,0.034831399376713895,0.07787566847145357,0.018327630508013674,0.0007558445087074178
0.0321207,0.006264036770090555,0.003926334262626992,0.03554821892724811,0.0025871668110835125,0.03509467531899838,0.07793491181012664,0.01870781449076108,0.0008728733892991511
0.0325862,0.006412389683249356,0.0040550121786556564,0.03597516222049905,0.002612874797142286,0.03535494618655077,0.07797304625757828,0.019086984195101762,0.000989135244036441
0.0330517,0.006561591867690959,0.004181633106148721,0.03639818236157447,0.002638015986739183,0.03561220967685202,0.07799015846123689,0.01946514499203221,0.0011046294920944344
0.0335172,0.006711664119533192,0.004306194227789032,0.03681724147273848,0.002662593487921285,0.03586646438414756,0.07798634389691785,0.01984230270878937,0.001219355792600176
0.0339828,0.00686262755504197,0.004428693232536957,0.037232302621125216,0.0026866106124126578,0.03611770979195574,0.0779617069271332,0.02021846361680817,0.0013333140426195743
0.0344483,0.007014503607194529,0.004549128313297314,0.037643329824536595,0.002710070874697794,0.036365946265128665,0.07791636085746262,0.020593634419474136,0.0014465043750563852
0.0349138,0.007167314022113936,0.004667498164427336,0.03805028805689618,0.0027329779910373183,0.03661117504147261,0.07785042799095816,0.020967822239681234,0.00155892715646451
0.0353793,0.007321080855375191,0.004783801979087479,0.03845314325335533,0.002755335878416466,0.03685339822293518,0.07776403968055547,0.021341034607205003,0.001670582984774907
0.0358448,0.0074758264681832306,0.004898039446436916,0.03885186231504788,0.0027771486534268436,0.03709261876636654,0.07765733637946495,0.021713279445900954,0.0017814726869384097
0.0363103,0.007631573523423135,0.005010210748675624,0.03924641311348915,0.002798420631081996,0.03732884047386238,0.07753046768951648,0.02208456506073813,0.0018915973164857452
0.0367759,0.007788344981582865,0.005120316557935062,0.0396367644946154,0.0028191563235673185,0.03756206798269619,0.07738359240743209,0.022454900124677636,0.002000958151006035
0.0372414,0.007946164096548806,0.00522835803301954,0.04002288628245957,0.0028393604389248947,0.0377923067548488,0.0772168785690018,0.022824293665405844,0.0021095566895450828
0.0377069,0.008105054411274374,0.005334336816000571,0.04040474928245939,0.0028590378796738754,0.03801956306614294,0.07703050349113791,0.023192755051931958,0.002217394649924746
0.0381724,0.00826503975332191,0.005438255028666607,0.04078232528439391,0.0028781937413670587,0.03824384399499095,0.07682465381178408,0.023560293981059476,0.002324473965984714
0.0386379,0.008426144230277972,0.005540115268830687,0.04115558706494437,0.0028968333110843763,0.038465157410763555,0.07659952552765607,0.023926920463741154,0.002430796784748004
0.0391034,0.008588392225042148,0.0056399206064986,0.0415245083898753,0.002914962065864013,0.03868351196178792,0.07635532402979141,0.02429264481132708,0.0025363654635115066
0.039569,0.0087518083909894,0.005737674579900182,0.041889064015832006,0.0029325856710718866,0.03889891706298344,0.07609226413688584,0.024657477621715624,0.002641182566862918
0.0400345,0.0089164176470059,0.005833381191386375,0.042249229691750684,0.0029497099787102066,0.03911138288314383,0.07581057012639456,0.02502142976541702,0.002745250863625401
0.0405,0.009082245172398256,0.005927044903194682,0.04260498215987793,0.0029663410256658366,0.03932092033187431,0.07551047576337648,0.025384512371539512,0.002848573323731349
0.0409655,0.009249316401675962,0.006018670633085661,0.04295629915639688,0.0029824850318991582,0.03952754104619303,0.07519222432705998,0.025746736813707982,0.002951153115026633
0.041431,0.009417657019206794,0.006108263749853182,0.04330315941165765,0.0029981483985741355,0.039731257376805613,0.07485606863510784,0.02610811469592493,0.0030529936000067382
0.0418966,0.00958729295374488,0.0061958300687112115,0.0436455426500103,0.003013337706130278,0.03993208237406187,0.07450227106555968,0.026468657838383633,0.0031540983324862284
0.0423621,0.009758250372831097,0.006281375846560034,0.04398342958923868,0.0030280597122972226,0.04013002977360361,0.07413110357642899,0.026828378263243143,0.0032544710542029786
0.0428276,0.00993055567706534,0.006364907777134916,0.044316801939594294,0.0030423213500526273,0.0403251139817124,0.07374284772293208,0.027187288180374795,0.00335411569135867
0.0432931,0.010104235494250283,0.00644643298604034,0.044645642402428985,0.0030561297255241007,0.04051735006036636,0.07333779467232547,0.027545399973089683,0.0034530363510970777
0.0437586,0.010279316673406112,0.006525959025673067,0.044969934668426324,0.003069492115835874,0.040706753712014807,0.07291624521632885,0.027902726183856547,0.0035512373179217194
0.0442241,0.010455826278655793,0.006603493870037325,0.04528966341543151,0.003082415966900916,0.04089334126407997,0.07247850978111023,0.02825927950001927,0.0036487230500544766
0.0446897,0.010633791582980393,0.006679045909455509,0.04560481430588014,0.003094908891159197,0.04107712965319478,0.07202490843481088,0.028615072739523077,0.003745498175736867
0.0451552,0.010813240061844117,0.006752623945177794,0.045915373983826516,0.0031069786652627805,0.041258136409185645,0.07155577089258787,0.028970118836658378,0.003841567489475673
0.0456207,0.010994199386688676,0.006824237183894035,0.04622133007157234,0.0031186332277084276,0.04143637963880915,0.07107143651915261,0.029324430827831073,0.003936935948234666
0.0460862,0.011176697418296837,0.006893895232151297,0.04652267116589699,0.003129880676418387,0.04161187800925123,0.07057225432878489,0.02967802183736807,0.004031608667574225
0.0465517,0.011360762200025035,0.0069616080906803775,0.04681938683389048,0.0031407292662700547,0.04178465073139727,0.07005858298280253,0.030030905063366673,0.004125590917740641
0.0470172,0.011546421950904929,0.007027386148634627,0.047111467608390155,0.0031511874065751873,0.04195471754288115,0.0695307907844677,0.03038309376359647,0.004218888119706969
0.0474828,0.011733705058613911,0.007091240177744372,0.04739890498302207,0.0031612636585093726,0.04212209869092131,0.0689892556713119,0.03073460124146241,0.004311505841167283
0.0479483,0.011922640072314543,0.0071531813263902245,0.047681691406847984,0.0031709667324924897,0.04228681491495119,0.06843436520486275,0.031085440832037684,0.00440344979248622
0.0484138,0.012113255695362998,0.0072132211135985036,0.04795982027861884,0.003180305485520914,0.04244888742905165,0.06786651655775647,0.031435625888175125,0.0044947258226057
0.0488793,0.012305580777886608,0.007271371422961972,0.04823328594063609,0.00318928891845226,0.042608337904192495,0.06728611649822094,0.03178516976670593,0.004585339914910699
0.0493448,0.01249964430923077,0.007327644496489063,0.04850208367222214,0.0031979261732434793,0.042765188450289975,0.06669358137191535,0.03213408581473457,0.004675298183055962
0.0498103,0.012695475410275414,0.007382052928384695,0.048766209682801244,0.00320622653014316,0.04291946159808739,0.06608933708111225,0.03248238735603874,0.004764606866755522
0.0502759,0.012893103325621318,0.007434609658765735,0.04902566110459215,0.003214199404838939,0.04307118028086535,0.06547381906120922,0.0328300876775833,0.004853272327536893
0.0507414,0.01309255741564654,0.007485327967314132,0.04928043598491409,0.003221854345560942,0.0432203678159882,0.06484747225455718,0.033177200016157087,0.004941301044461812
0.0512069,0.01329386714843319,0.007534221466870678,0.04953053327810735,0.003229201030142224,0.04336704788629292,0.06421075108159284,0.03352373754514131,0.005028699609815371
0.0516724,0.013497062091564874,0.007581304096972264,0.04977595283707015,0.0032362492630372158,0.04351124452132692,0.0635641194092624,0.033869713361418294,0.005115474724765397
0.0521379,0.013702171903795163,0.007626590117335527,0.05001669540441334,0.0032430089722992107,0.04365298207844167,0.06290805051672388,0.03421514047242873,0.005201633194993882
0.0526034,0.013909226326587597,0.007670094101289639,0.050252762603234746,0.0032494902065179397,0.04379228522374956,0.062243027058314776,0.034560031783385986,0.005287181926302238
0.053069,0.01411825517552789,0.00771183092916103,0.05048415692751481,0.0032557031317183146,0.04392917891295265,0.061569541023771886,0.03490440008465528,0.005372127920192123
0.0535345,0.014329288331609152,0.007751815781612797,0.05071088173213614,0.0032616580282214362,0.04406368837205275,0.060888093695689274,0.035248258039305765,0.005456478269423531
0.054,0.014542355732391161,0.00779006413294154,0.05093294122253013,0.003267365287468991,0.04419583907795301,0.060199195604201,0.03559161817084301,0.005540240153551823
0.0544655,0.014757487363034763,0.00782659174433434,0.05115034044395486,0.003272835408812182,0.04432565673896163,0.05950336647887501,0.035934492851129325,0.005623420834445316
0.054931,0.014974713247212565,0.007861414657088634,0.051363085270410044,0.0032780789962663618,0.04445316727520863,0.058801135197805346,0.03627689428849893,0.005706027651785082
0.0553966,0.015194063437897205,0.007894549185797699,0.051571182393195684,0.00328310675523253,0.044578396798986654,0.058093039733890336,0.03661883451607486,0.005788068018548511
0.0558621,0.015415568008028605,0.007926011911504468,0.05177463930912231,0.0032879294891868575,0.044701371595027545,0.05737962709828542,0.036960325380294146,0.005869549416478206
0.0563276,0.015639257041061828,0.007955819674826396,0.05197346430838167,0.0032925580963393546,0.04482211810072684,0.05666145328102012,0.03730137852964758,0.00595047939153775
0.0567931,0.01586516062139737,0.007983989569054049,0.052167666462087384,0.0032970035662628194,0.044940662886329176,0.05593908318877004,0.037642005403640266,0.00603086554935585
0.0572586,0.01609330882469581,0.008010538933226053,0.05235725560949536,0.0033012769764931417,0.045057032635088395,0.05521309057977565,0.037982217221979024,0.006110715550660304
0.0577241,0.01632373170807896,0.008035485345183,0.05254224234491459,0.0033053894891020403,0.04517125412341683,0.054484057995901114,0.03832202497399251,0.0061900371067032485
0.0581897,0.016556459300219862,0.008058846614602875,0.05272263800431914,0.0033093523472432973,0.04528335420103883,0.053752576691827855,0.03866143940829029,0.00626883797467908
0.0586552,0.01679152159132391,0.008080640776020484,0.05289845465167266,0.003313176871673539,0.045393359771164106,0.05301924656137846,0.03900047102266716,0.006347125953136437
0.0591207,0.017028948523003833,0.008100886081833328,0.05306970506497703,0.003316874457248608,0.045501297770696565,0.052284676060967934,0.03933913005425908,0.006424908877385624
0.0595862,0.017268769978051206,0.008119600995296287,0.053236402722056916,0.0033204565693965675,0.04560719515049444,0.051549482130180506,0.03967742646995758,0.00650219461490281
0.0600517,0.017511015770107382,0.00813680418350742,0.053398561786092175,0.0033239347405683625,0.045711078855697314,0.05081429010947091,0.0400153699570894,0.006578991060732332
0.0605172,0.017755715633236885,0.008152514510387138,0.053556197090909675,0.003327320566667151,0.04581297580613553,0.05007973365499019,0.04035296991436841,0.00665530613288842
0.0609828,0.018002899211406246,0.008166751029652936,0.05370932412604606,0.003330625703457314,0.04591291287683714,0.04934645465053628,0.04069023544312651,0.006731147767757646
0.0614483,0.018252596047871352,0.00817953297779179,0.053857959021592926,0.003333861862954132,0.04601091687864726,0.048615103116630455,0.041027175338830275,0.0068065239155033815
0.0619138,0.01850483557447636,0.008190879767032328,0.0540021185328357,0.0033370408097951358,0.04610701453897466,0.04788633711672057,0.04136379808288963,0.006881442535473515
0.0623793,0.018759647100867,0.008200810978318821,0.05414182002469767,0.0033401743575941214,0.046201232482679655,0.0471608226605124,0.04170011183476479,0.00695591159161269
0.0628448,0.019017059803621176,0.008209346354289037,0.05427708145600092,0.003343274365278831,0.046293597213117196,0.04643923360442978,0.04203612442437704,0.007029939047880275
0.0633103,0.019277102715299584,0.008216505792257953,0.05440792136355599,0.003346352733413316,0.04638413509334874,0.045722251549204514,0.04237184334482905,0.007103532863675331
0.0637759,0.01953980471341918,0.008222309337209355,0.054534358846092236,0.0033494214005059908,0.046472872327536136,0.04501056573459682,0.04270727574543976,0.007176700989269756
0.0642414,0.019805194509352298,0.008226777174797294,0.05465641354804103,0.0033524923393044065,0.04655983494253058,0.04430487293124735,0.0430424284250991,0.0072494513612508665
0.0647069,0.020073300637154366,0.008229929624359405,0.054774105643183975,0.0033555775530777865,0.04664504876966953,0.04360587732966223,0.043377307825947155,0.007321791897974618
0.0651724,0.02034415144232321,0.008231787131944019,0.05488745581817852,0.003358689071888371,0.0467285394267943,0.042914290426333324,0.04371192002738241,0.007393730495030673
0.0656379,0.020617775070493064,0.00823237026335301,0.0549964852559736,0.0033618389488526386,0.046810332300500745,0.04223083090699645,0.04404627074040349,0.007465275020720545
0.0661034,0.020894199456066468,0.008231699697202362,0.0551012156191282,0.003365039256393473,0.046890452528635246,0.041556224527031484,0.044380365302288546,0.007536433311550024
0.066569,0.021173452310787325,0.008229796218002459,0.05520166903304612,0.003368302082484369,0.04696892498304805,0.04089120398900953,0.04471420867161645,0.007607213167737194
0.0670345,0.021455561112258485,0.008226680709260194,0.05529786806914063,0.0033716395268867734,0.04704577425261573,0.04023650881739314,0.04504780542363365,0.007677622348737386
0.0675,0.021740553092407244,0.008222374146605036,0.05538983572794293,0.0033750636973817016,0.04712102462654419,0.039592885230397404,0.04538115974597069,0.007747668568786604
0.0679655,0.02202845522590235,0.008216897590941246,0.05547759542216832,0.0033785867059967774,0.04719470007796337,0.03896108600902044,0.04571427543471216,0.007817359492465066
0.068431,0.022319294218526135,0.008210272181628455,0.05556117095975411,0.003382220665229906,0.04726682424782496,0.03834187036325386,0.04604715589082377,0.007886702730282642
0.0688966,0.02261309649550545,0.008202519129692871,0.055640586526883105,0.0033859776842707938,0.047337420429113604,0.03773600379548436,0.0463798041169403,0.00795570583428805
0.0693621,0.022909888189805157,0.008193659711071322,0.05571586667100623,0.003389869865221566,0.04740651155138244,0.03714425796109949,0.04671222271451778,0.00802437629370382
0.0698276,0.023209695130387786,0.008183715259890364,0.055787036283877836,0.003393909299317738,0.047474120165623114,0.03656741052631115,0.04704441388135306,0.00809272153058912
0.0702931,0.02351254283044297,0.008172707161782651,0.05585412058461716,0.0033981080631508087,0.04754026842948061,0.03600624502321176,0.04737637940947363,0.008160748895532652
0.0707586,0.02381845647559018,0.008160656847242704,0.05591714510280933,0.003402478214893729,0.04760497809282273,0.03546155070207871,0.047708120683400204,0.008228465663377857
0.0712241,0.024127460912058377,0.008147585785024147,0.05597613566165937,0.0034070317905304922,0.04766827048367421,0.034934122380943206,0.04803963867878434,0.008295879028982826
0.0716897,0.02443958063484604,0.008133515475580475,0.05603111836121258,0.003411780800091045,0.047730166494524946,0.03442476029244005,0.048370933961423064,0.008362996103017278
0.0721552,0.024754839775865376,0.008118467444551285,0.05608211956165447,0.0034167372238927177,0.04779068656902193,0.03393426992795497,0.04870200668665241,0.00842982390779899
0.0726207,0.025073262092074364,0.008102463236295907,0.05612916586670293,0.0034219130087893243,0.04784985068905416,0.033463461879086304,0.0490328565991213,0.008496369373172054
0.0730862,0.025394870953600476,0.008085524407476303,0.05617228410710516,0.0034273200644290764,0.04790767836223937,0.03301315167643759,0.049363483032947346,0.008562639332429367
0.0735517,0.025719689331859988,0.008067672520691068,0.056211501324251276,0.00343297025952243,0.04796418860982152,0.032584159625758016,0.04969388491225525,0.008628640518281657
0.0740172,0.026047739787676723,0.00804892913816231,0.05624684475391622,0.0034388754181209832,0.04801939995498715,0.03217731064144753,0.050024060752098747,0.008694379558875372
0.0744828,0.026379044459404144,0.008029315815477176,0.05627834181014115,0.0034450473159085065,0.04807333041160877,0.031793434077444414,0.050354008659766046,0.008759862973861735
0.0749483,0.026713625051054648,0.008008854095385775,0.05630602006926536,0.0034514976765051826,0.048125997473422805,0.031433363555513565,0.05068372633646872,0.008825097170519235
0.0754138,0.02705150282043974,0.007987565501657183,0.05632990725411933,0.0034582381677861047,0.048177418103649575,0.031097936790954853,0.051013211079413374,0.008890088439931778
0.0758793,0.027392698567324826,0.007965471532995243,0.05635003121838954,0.0034652803982150484,0.048227608725062376,0.030787995415752042,0.051342459784255404,0.00895484295322469
0.0763448,0.027737232621602204,0.007942593657015815,0.05636641993116538,0.003472635913194515,0.048276585210512625,0.030504384799184027,0.05167146894793365,0.009019366757860732
0.0768103,0.02808512483148572,0.007918953304287074,0.05637910146167823,0.0034803161914330367,0.04832436287391769,0.030247953865921627,0.05200023467188464,0.009083665773998243
0.0772759,0.028436394551730474,0.007894571862434465,0.05638810396424246,0.0034883326413307114,0.04837095646171788,0.03001955491163465,0.052328752665634796,0.009147745790913412
0.0777414,0.028791060631881072,0.007869470670311827,0.05639345566340791,0.003496696597383923,0.04841638014480839,0.029820043416135502,0.05265701825076927,0.009211612463488675
0.0782069,0.02914914140455197,0.007843671012240167,0.05639518483933346,0.003505419316610209,0.048460647510951915,0.029650277854087196,0.05298502636527533,0.009275271308769172
0.0786724,0.029510654673743572,0.007817194112315514,0.05639331981339096,0.0035145119749942218,0.048503771557677135,0.0295111195033051,0.05331277156825846,0.009338727702589065
0.0791379,0.029875617703197833,0.007790061128787217,0.05638788893400898,0.0035239856639557123,0.048545764685667805,0.029403432250683235,0.05364024804502883,0.009401986876269516
0.0796034,0.03024404720479723,0.007762293148508036,0.05637892056276538,0.0035338513868404652,0.048586638692646816,0.029328082395777187,0.053967449612555646,0.009465053913389995
0.080069,0.030615959327010854,0.007733911181457292,0.05636644306073792,0.003544120055435081,0.04862640476775915,0.029285938452077158,0.054294369725286874,0.009527933746634592
0.0805345,0.030991369643391557,0.007704936155338343,0.05635048477512123,0.003554802486506483,0.04866507348645737,0.0292778709460054,0.05462100148133122,0.009590631154714908
0.081,0.03137029314112801,0.0076753889102515365,0.05633107402611854,0.0035659093983669804,0.04870265480589268,0.029304752213673322,0.05494733762899939,0.009653150759371069
0.0814655,0.031752744209655494,0.007645290193443826,0.0563082390941158,0.003577451407465713,0.048739158060814365,0.029367456195434165,0.055273370573701075,0.009715497022452366
0.081931,0.032138736629329256,0.00761466065413611,0.056282008207145746,0.003589439025007262,0.048774591959979935,0.029466858228267435,0.05559909238519407,0.009777674243079024
0.0823966,0.03252828356016422,0.007583520838429353,0.056252409528648496,0.003601882653598191,0.048808964583077825,0.0296038348360316,0.05592449480518157,0.009839686554886484
0.0828621,0.03292139753064477,0.007551891184290439,0.05621947114553547,0.003614792583922252,0.04884228337816456,0.029779263517621547,0.05624956925525311,0.009901537923353668
0.0833276,0.033318090426608604,0.007519792016618717,0.05618322105656245,0.0036281789914449822,0.048874555159617465,0.02999402253306731,0.0565743068451644,0.009963232143216589
0.0837931,0.03371837348020851,0.007487243542394049,0.05614368716101743,0.003642051933148386,0.04890578610660368,0.030248990687610913,0.056898698381450986,0.010024772835968733
0.0842586,0.0341222572589563,0.007454265845907185,0.0561008972477286,0.0036564213442963744,0.04893598176206619,0.03054504711379832,0.05722273437637015,0.010086163447449604
0.0847241,0.034529751654853384,0.0074208788840731945,0.05605487898439693,0.0036712970352316097,0.048965147032226854,0.030883071051624404,0.05754640505716551,0.010147407245522773
0.0851897,0.034940865873612344,0.007387102481828622,0.05600565990725811,0.0036866886882043807,0.048993286186606026,0.031263941626769376,0.05786970037564824,0.010208507317844848
0.0856552,0.0353556084239739,0.007352956327613003,0.05595326741107809,0.0037026058542340727,0.049020402858558236,0.03168853762696633,0.058192610018088946,0.010269466569726724
0.0861207,0.0357739871071236,0.007318459968935292,0.05589772873948643,0.0037190579500038087,0.04904650004632269,0.03215773727654056,0.05851512341541415,0.010330287722088476
0.0865862,0.03619600900621214,0.007283632808025709,0.05583907097565172,0.0037360542547887807,0.04907158011458725,0.03267241800916283,0.05883722975370094,0.010390973309509237
0.0870517,0.03662168047598325,0.007248494097573482,0.05577732103330305,0.003753603907418761,0.04909564479656409,0.0332334562388601,0.059158917984963075,0.010451525678373387
0.0875172,0.03705100713251269,0.007213062936550934,0.05571250564810177,0.0037717159032752807,0.04911869519657485,0.03384172712932877,0.05948017683822171,0.010511946985114382
0.0879828,0.03748399384306188,0.007177358266124338,0.05564465136936683,0.003790399091323904,0.04914073179314271,0.03449810436159708,0.05980099483085335,0.010572239194557496
0.0884483,0.037920644716049265,0.007141398865651925,0.055573784552157446,0.0038096621711820296,0.049161754442588496,0.035203459900084694,0.06012136028020755,0.010632404078362731
0.0889138,0.03836096309114271,0.007105203348769461,0.05549993134971599,0.0038295136902226088,0.04918176238312734,0.03595866375710898,0.060441261315486675,0.010692443213569132
0.0893793,0.03880495152947572,0.007068790159563724,0.055423117706273846,0.003849962040714178,0.04920075423946225,0.036764583755888695,0.060760685889880116,0.010752357981241687
0.0898448,0.039252611803990284,0.0070321775688342615,0.0553433693502229,0.00387101545699758,0.0492187280278704,0.037622085292096846,0.06107962179294565,0.010812149565221994
0.0903103,0.039703944889909096,0.006995383670443744,0.05526071178765501,0.003892682012699751,0.0492356811617777,0.038532031094015734,0.06139805666323054,0.010871818950983799
0.0907759,0.04015895095533978,0.006958426377757255,0.05517517029627152,0.00391496961798493,0.0492516104578169,0.039495280981347546,0.061715978001125354,0.010931366924594533
0.0912414,0.04061762935201364,0.006921323420170797,0.05508676991966486,0.003937886016843658,0.04926651214236408,0.04051269162273465,0.062033373181943324,0.010990794071783898
0.0917069,0.041079978606161346,0.006884092339729297,0.05499553546197376,0.003961438784419925,0.049280381858548335,0.0415851162920441,0.062350229469218164,0.01105010077712054
0.0921724,0.0415459964095279,0.006846750487834357,0.05490149148291344,0.003985635324376777,0.04929321467372888,0.0427134046234708,0.06266653402821305,0.01110928722329781
0.0926379,0.04201567961052933,0.006809315022041886,0.054804662293181615,0.004010482866300724,0.04930500508743384,0.043898402365513865,0.06298227393963324,0.01116835339052955
0.0931034,0.04248902420555346,0.006771802902949795,0.05470507195024117,0.004035988463145227,0.04931574703975457,0.04514095113388061,0.06329743621353463,0.011227299056056838
0.093569,0.04296602533040741,0.006734230891175822,0.05460274425447983,0.004062158988713535,0.04932543392018907,0.046441888163372434,0.06361200780342066,0.011286123793766532
0.0940345,0.043446677251914076,0.006696615544425584,0.05449770274574691,0.004089001135181122,0.049334058576927894,0.04780204605880717,0.0639259756205194,0.011344826973922485
0.0945,0.04393097335966018,0.006658973214650847,0.05438997070026699,0.004116521410657927,0.049341613326575516,0.04922225254503243,0.06423932654823271,0.011403407763010203
0.0949655,0.04441890615789807,0.006621320045298043,0.054279571127929936,0.004144726136790641,0.04934808996430013,0.050703330216085286,0.06455204745674895,0.011461865123695722
0.095431,0.0449104672576037,0.006583671968646968,0.05416652676995647,0.004173621446405226,0.04935347977440435,0.05224609628355389,0.06486412521781028,0.011520197814899429
0.0958966,0.04540564736869316,0.006546044703239608,0.05405086009693842,0.004203213281189901,0.049357773541309116,0.05385136232419744,0.0651755467196253,0.011578404391985476
0.0963621,0.04590443629240032,0.006508453751398978,0.05393259330725227,0.004233507389418835,0.04936096156094287,0.05551993402688206,0.06548629888191719,0.011636483207067404
0.0968276,0.046406822913817924,0.006470914396837804,0.053811748325844656,0.004264509323716776,0.04936303365252765,0.05725261093889098,0.06579636867109692,0.011694432409430465
0.0972931,0.0469127951946048,0.006433441702356852,0.05368834680338819,0.004296224438864882,0.04936397917075362,0.05905018621166894,0.06610574311555072,0.011752249946071117
0.0977586,0.047422340165861755,0.006396050507632625,0.05356241011580579,0.004328657889648026,0.04936378701833315,0.060913446346061946,0.06641440932103017,0.01180993356235409
0.0982241,0.04793544392117918,0.006358755427094128,0.05343395936416197,0.004361814628743889,0.04936244565892517,0.06284317093711483,0.06672235448613294,0.01186748080278726
0.0986897,0.048452091609859485,0.0063215708478883414,0.053303015374918786,0.004395699404654158,0.049359943130420386,0.06484013241849024,0.06702956591786144,0.011924889011914554
0.0991552,0.04897226743031778,0.00628451092793398,0.05316959870055462,0.004430316759678177,0.04935626705857753,0.06690509580657367,0.0673360310472463,0.011982155335327021
0.0996207,0.04949595462366439,0.006247589594063081,0.05303372962054339,0.004465671027929414,0.04935140467100058,0.06903881844433067,0.06764173744502082,0.012039276720792049
0.1000862,0.050023135467472425,0.006210820540249951,0.05289542814269171,0.004501766333395098,0.04934534281144662,0.07124204974498242,0.06794667283733216,0.012096249919500679
0.1005517,0.05055379126973361,0.006174217225926923,0.052754714004831185,0.004538606588039436,0.04933806795445334,0.07351553093556683,0.06825082512147436,0.012153071487432802
0.1010172,0.05108790236300537,0.006137792874386402,0.05261160667686271,0.004576195489950801,0.04932956622027539,0.07585999480045266,0.06855418238162767,0.012209737786839996
0.1014828,0.05162544809875174,0.006101560471268631,0.05246612536314917,0.004614536521533305,0.04931982339011775,0.078276165424874,0.06885673290458814,0.012266244987845572
0.1019483,0.052166406841880716,0.006065532763134598,0.05231828900525256,0.004653632947743201,0.04930882492165441,0.08076475793855227,0.06915846519547096,0.012322589070161373
0.1024138,0.05271075596548091,0.006029722256123499,0.05216811628501112,0.004693487814370572,0.049296555964819896,0.08332647825947279,0.06945936799337034,0.012378765824920689
0.1028793,0.05325847184575997,0.005994141214694107,0.05201562562795158,0.0047341039463667765,0.04928300137786085,0.0859620228378828,0.06975943028695847,0.012434770856626575
0.1033448,0.05380952985718773,0.00595880166044943,0.05186083520703123,0.004775483946218115,0.04926814574363437,0.08867207840057792,0.07005864133000515,0.01249059958521476
0.1038103,0.0543639043678473,0.005923715371043953,0.05170376294670447,0.004817630192366214,0.04925197338613958,0.09145732169554435,0.07035699065679943,0.012546247248230235
0.1042759,0.0549215687349975,0.005888893879172807,0.05154442652730798,0.00486054483767561,0.04923446838726823,0.09431841923702533,0.07065446809745404,0.012601708903116461
0.1047414,0.055482495300850705,0.0058543484716421625,0.05138284338975896,0.004904229807949027,0.04921561460375989,0.09725602705108091,0.0709510637930727,0.012656979429616109
0.1052069,0.05604665538857024,0.005820090188520201,0.05121903074056057,0.0049486868004908185,0.049195395684347,0.10027079042171108,0.0712467682107598,0.012712053532282042
0.1056724,0.05661401929849167,0.0057861298223680245,0.05105300555710883,0.004993917282719049,0.04917379508707454,0.10336334363761408,0.07154157215845171,0.012766925743097277
0.1061379,0.057184556304572955,0.00575247791754992,0.05088478459329475,0.005039922490826649,0.04915079609677893,0.10653430973965301,0.07183546679954815,0.012821590424202469
0.1066034,0.05775823465107784,0.005719144769622406,0.05071438438539555,0.005086703428492054,0.04912638184271043,0.10978430026910527,0.07212844366732232,0.012876041770729423
0.107069,0.05833502154949722,0.005686140424801548,0.05054182125824815,0.005134260865639734,0.049100535316283195,0.11311391501677104,0.07242049467908791,0.012930273813738978
0.1075345,0.05891488317571298,0.005653474679508013,0.0503671113316979,0.005182595337251016,0.049073239388936395,0.11652374177301904,0.07271161215010127,0.012984280423261621
0.108,0.059497784667409,0.005621157079989367,0.050190270527315,0.005231707142225635,0.049044476830089785,0.12001435607884878,0.07300178880717678,0.013038055311438928
0.1084655,0.06008369012173381,0.005589196922019087,0.05001131457537091,0.00528159634229446,0.0490142303251767,0.12358632097805067,0.07329101780199339,0.013091592035763986
0.108931,0.06067256259321933,0.005557603250671746,0.04983025902206664,0.005332262760983885,0.04898248249373682,0.12724018677054627,0.0735792927240701,0.013144884002418748
0.1093966,0.061264364091960025,0.005526384860173784,0.04964711923700488,0.0053837059826324,0.048949215907551115,0.13097649076699283,0.07386660761338823,0.013197924469706199
0.1098621,0.061859055582056885,0.005495550293829313,0.049461910420897794,0.005435925351459852,0.0489144131088011,0.13479575704473712,0.07415295697263788,0.013250706551575172
0.1103276,0.062456596980329945,0.005465107844020288,0.04927464761350241,0.005488919970689964,0.04887805662823465,0.13869849620520433,0.07443833577906596,0.013303223221235474
0.1107931,0.06305694715530367,0.0054350655522804,0.04908534570177567,0.005542688701726658,0.04884012900332087,0.14268520513280897,0.07472273949590377,0.013355467314860986
0.1112586,0.06366006392646958,0.005405431209441973,0.04889401942824126,0.005597230163384781,0.04880061279637708,0.1467563667554741,0.07500616408335258,0.013407431535378291
0.1117241,0.06426590406383076,0.0053762123558551405,0.048700683399560685,0.00565254273117588,0.04875949061265136,0.15091244980684654,0.07528860600910711,0.013459108456338407
0.1121897,0.06487442328773377,0.005347416281678502,0.04850535209530063,0.005708624536649686,0.048716745118344486,0.1551539085902946,0.0755700622583986,0.013510490525869025
0.1126552,0.06548557626899384,0.005319050027240442,0.04830803987688867,0.0057654734667920106,0.048672359058555596,0.15948118274477435,0.07585053034354049,0.013561570070704713
0.1131207,0.06609931662931988,0.005291120383470223,0.04810876099674904,0.005823087163479799,0.04862631527513593,0.16389469701265008,0.07613000831296232,0.013612339300292474
0.1135862,0.06671559694204589,0.005263633892397944,0.047907529607609745,0.005881463022994077,0.04857859672443517,0.16839486100955373,0.07640849475971934,0.013662790310970053
0.1140517,0.0673343687331762,0.005236596847722404,0.04770435977197219,0.0059405981955915595,0.04852918649492477,0.17298206899636673,0.07668598882946738,0.01371291509021433
0.1145172,0.06795558248275169,0.005210015295445871,0.047499265471733845,0.006000489585135695,0.04847806782468284,0.17765669965340714,0.07696249022789474,0.013762705520957225
0.1149828,0.06857918762654368,0.005183895034574721,0.047292260617954864,0.006061133848787905,0.04842522411872518,0.18241911585690465,0.0772379992276042,0.01381215338596647
0.1154483,0.06920513255808268,0.005158241617884887,0.04708335906075929,0.0061225273967597665,0.048370638966167376,0.18726966445784493,0.07751251667444012,0.013861250372288678
0.1159138,0.06983336463102782,0.005133060352751047,0.04687257459936201,0.006184666392126871,0.04831429615720376,0.1922086760632658,0.07778604399325673,0.01390998807575219
0.1163793,0.07046383016188304,0.0051083563020384425,0.046659920992213125,0.006247546750705105,0.04825617969988916,0.19723646482008758,0.07805858319312448,0.013958358005527171
0.1168448,0.07109647443306558,0.005084134285056255,0.046445411967252145,0.006311164140990058,0.048196273836710574,0.20235332820156035,0.07833013687197213,0.01400635158874052
0.1173103,0.07173124169633201,0.005060398878571461,0.046229061232265244,0.006375513984160295,0.048134563060936136,0.20755954679641203,0.07860070822066231,0.01405396017514311
0.1177759,0.07236807517656695,0.005037154417882101,0.04601088248533937,0.006440591454145177,0.04807103213272994,0.21285538410078209,0.07887030102649849,0.014101175041826888
0.1182414,0.07300691707593922,0.005014404997948992,0.04579088942540755,0.006506391477757953,0.04800566609502112,0.21824108631302674,0.07913891967616102,0.014147987397989373
0.1187069,0.07364770857842994,0.004992154474584935,0.04556909576288006,0.006572908734894776,0.04793845028911621,0.22371688213148241,0.07940656915806989,0.014194388389743021
0.1191724,0.07429038985473699,0.004970406465700549,0.04534551523035621,0.00664013765880032,0.04786937037004357,0.22928298255527482,0.0796732550641711,0.014240369104966859
0.1196379,0.07493490006755983,0.004949164352605933,0.04512016159341151,0.006708072436400644,0.04779841232161892,0.23493958068826348,0.07993898359114371,0.014285920578197697
0.1201034,0.0755811773772682,0.004928431281367387,0.04489304866145482,0.006776707008703911,0.04772556247122125,0.2406868515462106,0.08020376154102397,0.014331033795558105
0.120569,0.0762291589479577,0.004908210164218471,0.044664190298649785,0.006846035071269509,0.047650807504268734,0.2465249518672645,0.08046759632124376,0.014375699699718275
0.1210345,0.07687878095389482,0.004888503681024712,0.044433600434895235,0.006916050074746093,0.04757413447838461,0.25245401992584837,0.08073049594408069,0.014419909194888782
0.1215,0.07752997858635324,0.004869314280801281,0.0442012930768587,0.006986745225478999,0.04749553083724318,0.2584741753500452,0.08099246902551788,0.01446365315184124
0.1219655,0.07818268606084328,0.004850644183282965,0.043967282319057714,0.00705811348618743,0.047414984424086426,0.26458551894256926,0.08125352478351232,0.014506922412953748
0.122431,0.07883683662473552,0.004832495380545788,0.04373158235498332,0.007130147576711775,0.047332483494901205,0.27078813250541406,0.08151367303567174,0.014549707797278173
0.1228966,0.0794923625652805,0.0048148696386796025,0.04349420748826058,0.007202839974831343,0.0472480167312472,0.2770820786682649,0.08177292419634095,0.014592000105626196
0.1233621,0.08014919521802572,0.004797768499510975,0.043255172143840344,0.007276182917152754,0.04716157325272554,0.2834674007207641,0.08203128927310009,0.01463379012567131
0.1238276,0.08080726497563183,0.004781193282375648,0.04301449087921657,0.007350168400069193,0.047073142629078094,0.28994412244871454,0.0822887798626785,0.01467506863706394
0.1242931,0.08146650129708974,0.004765145085939853,0.04277217839566335,0.007424788180790637,0.046982714891907286,0.2965122479743059,0.08254540814628926,0.014715826416556933
0.1247586,0.08212683271734081,0.0047496247900696955,0.042528249549485336,0.0075000337784451344,0.04689028054600678,0.3031717616004446,0.08280118688439128,0.014756054243138873
0.1252241,0.08278818685730224,0.004734633057747828,0.042282719363275295,0.007575896475251202,0.046795830580293844,0.3099226276592674,0.0830561294108874,0.014795742903172657
0.1256897,0.08345049043429986,0.004720170337036569,0.04203560303717216,0.007652367317761318,0.046699356478335126,0.3167647903649171,0.08331024962676872,0.014834883195536901
0.1261552,0.08411366927291054,0.004706236863086633,0.04178691596011302,0.007729437118176541,0.046600850228458994,0.3236981736706564,0.08356356199321692,0.014873465936767794
0.1266207,0.08477764831621615,0.004692832660190589,0.041536673721072385,0.007807096455732252,0.04650030433344891,0.33072268113039494,0.08381608152417785,0.014911481966198988
0.1270862,0.08544235163747087,0.004679957543880164,0.04128489212028211,0.007885335678155074,0.04639771181981357,0.33783819576470386,0.084067823778421,0.014948922151097105
0.1275517,0.08610770245218305,0.004667611123066529,0.04103158718042556,0.007964144903191053,0.04629306624663124,0.3450445799313899,0.08431880485110012,0.014985777391790392
0.1280172,0.0867736231306124,0.004655792802222644,0.04077677515779974,0.008043514020205226,0.04618636171396607,0.35234167520069987,0.0845690413648312,0.015022038626787984
0.1284828,0.08744003521068316,0.004644501783606793,0.04052047255343899,0.008123432691852768,0.0460775928708552,0.3597293022352229,0.08481855046030418,0.015057696837887095
0.1289483,0.08810685941131355,0.004633737069526377,0.040262696124193836,0.00820389035582187,0.04596675492286507,0.36720726067455967,0.08506734978644517,0.01509274305526546
0.1294138,0.0887740156461615,0.004623497464641086,0.04000346289375841,0.008284876226648598,0.045853843639216234,0.37477532902481997,0.08531545749014571,0.015127168362556192
0.1298793,0.08944142303778697,0.004613781578304518,0.03974279016363952,0.008366379297603794,0.04573885535947624,0.3824332645530124,0.08556289220557509,0.015160963901902191
0.1303448,0.09010899993223054,0.004604587826943352,0.03948069552406034,0.008448388342652225,0.0456217869998206,0.3901808031863869,0.08580967304309164,0.015194120878987244
0.1308103,0.09077666391400804,0.004595914436473183,0.039217196864791616,0.008530891918483927,0.045502636058863094,0.39801765941678857,0.08605581957776846,0.015226630568040885
0.1312759,0.09144433182152081,0.004587759444750114,0.038952312385903146,0.00861387836661778,0.045381400623057296,0.40594352621007934,0.08630135183754843,0.015258484316814114
0.1317414,0.09211191976287995,0.004580120704057202,0.03868606060842846,0.008697335815577228,0.04525807937167229,0.41395807492068215,0.0865462902910442,0.015289673551523022
0.1322069,0.09277934313214338,0.0045729958836248094,0.038418460384935786,0.008781252183137977,0.04513267158134632,0.4220609552112976,0.0867906558349982,0.015320189781757436
0.1326724,0.09344651662596307,0.00456638247218388,0.03814953090999829,0.0088656151786475,0.04500517713022328,0.4302517949778411,0.08703446978141793,0.015350024605351712
0.1331379,0.0941133542606402,0.004560277780551155,0.03787929173055682,0.008950412305416053,0.044875596501677786,0.4385302002796455,0.08727775384440171,0.01537916971321485
0.1336034,0.09477976938958524,0.004554678944245296,0.03760776275616802,0.009035630863178908,0.04474393078763573,0.44689575527497016,0.08752053012666919,0.015407616894117154
0.134069,0.09544567472117976,0.0045495829261328665,0.03733496426913083,0.009121257950629442,0.04461018169149816,0.4553480221618566,0.08776282110581105,0.015435358039430636
0.1345345,0.09611098233703688,0.004544986519103154,0.037060916934483774,0.009207280468022742,0.044474351530677525,0.46388654112436717,0.08800464962027128,0.015462385147820416
0.135,0.09677560371065702,0.004540886348770827,0.03678564180986583,0.009293685119849423,0.04433644323875579,0.47251083028424284,0.0882460388550752,0.015488690329884366
0.1354655,0.09743944972647581,0.00453727887620548,0.03650916035523309,0.009380458417579446,0.04419646036727503,0.4812203856580132,0.08848701232731652,0.015514265812738242
0.135931,0.09810243069930034,0.004534160400687099,0.03623149444242435,0.009467586682475755,0.04405440708717115,0.490014681119591,0.08872759387141686,0.015539103944543681
0.1363966,0.09876445639413012,0.004531527062486563,0.03595266636456851,0.009555056048477655,0.04391028818986142,0.49889316836838205,0.08896780762417156,0.015563197198976444
0.1368621,0.0994254360463585,0.004529374845670271,0.035672698845327984,0.009642852465153928,0.04376410908799659,0.5078552769029414,0.08920767800959556,0.015586538179632514
0.1373276,0.10008527838235003,0.00452769958092799,0.035391615047972676,0.009730961700725661,0.04361587581588814,0.5169004140002034,0.089447229723584,0.015609119624369784
0.1377931,0.10074389164038844,0.004526496948423041,0.035109438584280055,0.009819369345158858,0.04346559502962119,0.5260279647003144,0.08968648771840214,0.015630934409583228
0.1382586,0.10140118359199035,0.004525762480663889,0.03482619352325757,0.009908060813326815,0.04331327400686342,0.5352372917970964,0.08992547718701933,0.015651975554411696
0.1387241,0.10205706156357804,0.004525491565396273,0.03454190439968411,0.009997021348242272,0.043158920646380355,0.5445277358341635,0.09016422354730198,0.01567223622487452
0.1391897,0.10271143245850492,0.0045256794485149885,0.034256596222467635,0.010086236024359265,0.04300254346726712,0.5538986151067175,0.0904027524260797,0.015691709737936325
0.1396552,0.10336420277942636,0.004526321236994484,0.033970294482816035,0.010175689750944584,0.042844151607906666,0.5633492256690421,0.09064108964309898,0.015710389565498452
0.1401207,0.10401527865100756,0.00452741190183742,0.033683025162218584,0.010265367275518649,0.04268375482466451,0.5728788413477137,0.09087926119487791,0.015728269338315563
0.1405862,0.10466456584295987,0.004528946281040368,0.033394814740235215,0.010355253187365581,0.04252136349032964,0.5824867137605435,0.09111729323847481,0.01574534284983603
0.1410517,0.10531196979339634,0.0045309190825758225,0.03310569020209125,0.010445331921112236,0.04235698859231154,0.5921720723412651,0.09135521207518356,0.015761604059964792
0.1415172,0.10595739563249602,0.004533324887389714,0.032815679046075026,0.010535587760375898,0.04219064173060286,0.6019341243699735,0.09159304413416758,0.015777047098747412
0.1419828,0.1066007482064666,0.00453615815241362,0.032524809290736166,0.010626004841480338,0.042022335115517215,0.6117720550093176,0.0918308159560444,0.015791666269974226
0.1424483,0.10724193210179385,0.004539413213590913,0.032233109481881975,0.010716567157239882,0.041852081565211655,0.621685027346446,0.09206855417643248,0.015805456054703442
0.1429138,0.10788085166976567,0.0045430842889160996,0.03194060869936972,0.010807258560811162,0.04167989450300308,0.6316721824407,0.09230628550947174,0.01581841111470223
0.1433793,0.10851741105125788,0.004547165481486674,0.03164733656369249,0.010898062769612143,0.04150578795448795,0.6417326393770441,0.09254403673133012,0.015830526295804913
0.1438448,0.10915151420176772,0.00455165078256685,0.03135332324235666,0.010988963369308036,0.04132977654447442,0.6518654953252174,0.09278183466370722,0.015841796631187448
0.1443103,0.1097830649166813,0.004556534074662599,0.031058599456049323,0.011079943817863576,0.04115187549373603,0.6620698256045882,0.09301970615734775,0.015852217344557544
0.1447759,0.11041196685675955,0.004561809134607435,0.03076319648459476,0.011170987449661217,0.04097210061559591,0.6723446837546876,0.09325767807557656,0.015861783853259693
0.1452414,0.11103812357382689,0.004567469636658386,0.03046714617269957,0.01126207747968461,0.040790468312350614,0.6826891016114,0.0934957772778675,0.015870491771294504
0.1457069,0.11166143853664623,0.004573509155601622,0.030170480935487062,0.011353197007766724,0.04060699557154224,0.6931020893887788,0.09373403060345799,0.015878336912251576
0.1461724,0.11228181515696296,0.004579921169867148,0.029873233763822084,0.011444329022901894,0.04042169996208779,0.7035826357664593,0.09397246485502109,0.01588531529215518
0.1466379,0.11289915681570065,0.004586699064652008,0.029575438229427983,0.011535456407620994,0.040234599630274495,0.7141297079826332,0.09421110678240677,0.015891423132221822
0.1471034,0.11351336688929028,0.004593836135051395,0.02927712848979787,0.011626561942428826,0.04004571329562956,0.7247422519325522,0.09444998306646422,0.015896656861528753
0.147569,0.1141243487761152,0.004601325589197067,0.028978339292902524,0.011717628310302784,0.039855060246672944,0.7354191922725232,0.0946891203029566,0.01590101311959231
0.1480345,0.11473200592305301,0.004609160551402454,0.028679105981697175,0.011808638101251795,0.03966266033656141,0.7461594325293593,0.09492854498657938,0.015904488758854987
0.1485,0.11533624185209604,0.00461733406531385,0.028379464498429405,0.011899573816934435,0.03946853397863211,0.7569618552152478,0.09516828349509374,0.015907080847080025
0.1489655,0.1159369601870317,0.00462583909706705,0.028079451388750242,0.011990417875335075,0.03927270214185376,0.7678253219479965,0.09540836207358612,0.01590878666965219
0.149431,0.11653406468016356,0.00463466853844885,0.027779103805630315,0.012081152615496875,0.03907518634619331,0.7787486735766204,0.09564880681886481,0.015909603731783323
0.1498966,0.11712745923905467,0.004643815210062747,0.027478459513082944,0.012171760302310297,0.038876008657905796,0.7897307303122297,0.09588964366400436,0.015909529760621172
0.1503621,0.1177170479532745,0.004653271864498261,0.027177556889695927,0.012262223131355736,0.03867519168475483,0.8007702918641753,0.09613089836304821,0.015908562707259793
0.1508276,0.11830273512113083,0.004663031189503299,0.026876434931973735,0.012352523233798839,0.038472758571170974,0.8118661375814149,0.0963725964758791,0.0159067007486498
0.1512931,0.11888442527636837,0.004673085811158975,0.026575133257491713,0.012442642681336864,0.038268732993355196,0.8230170265990584,0.09661476335326741,0.015903942289406593
0.1517586,0.11946202321481555,0.004683428297056343,0.026273692107863757,0.012532563491194458,0.038063139154334055,0.8342216979900465,0.09685742412210627,0.015900285963514598
0.1522241,0.12003543402096,0.004694051159474502,0.025972152351524887,0.012622267631166997,0.03785600177897323,0.8454788709219233,0.09710060367084354,0.01589573063592546
0.1526897,0.12060456309443378,0.004704946858559504,0.02567055548632989,0.012711737024709612,0.03764734610895567,0.8567872448186545,0.09734432663511992,0.015890275404048096
0.1531552,0.12116931617638871,0.004716107805503519,0.0253689436419691,0.012800953556069907,0.037437197897730215,0.8681454995274478,0.09758861738362253,0.015883919599128604
0.1536207,0.12172959937574279,0.00472752636572365,0.02506735958220217,0.01288989907546219,0.03722558340543651,0.8795522954905242,0.09783350000416283,0.015876662787517943
0.1540862,0.12228531919527912,0.004739194862039835,0.024765846706910434,0.012978555404281032,0.03701252939381139,0.891006273921793,0.09807899828998742,0.015868504771825456
0.1545517,0.12283638255757903,0.004751105577851213,0.024464449053968343,0.013066904340351836,0.03679806312108182,0.9025060569883767,0.09832513572632916,0.015859445591956386
0.1550172,0.12338269683077194,0.0047632507603103755,0.024163211300934177,0.013154927663216022,0.036582212336849065,0.9140502479969276,0.09857193547720591,0.015849485526031593
0.1554828,0.12392416985408433,0.004775622623494858,0.02386217876656016,0.013242607139448323,0.036365005276968496,0.9256374315846786,0.09881942037247365,0.01583862509118785
0.1559483,0.12446070996317216,0.004788213351575274,0.023561397412121793,0.013329924528003776,0.03614647065842908,0.9372661739151678,0.09906761289513995,0.015826865044257166
0.1564138,0.1249922260152206,0.004801015101979452,0.02326091384256608,0.01341686158559179,0.03592663767423653,0.9489350228785675,0.0993165351689437,0.01581420638232368
0.1568793,0.12551862741379707,0.0048140200085519695,0.02296077530747821,0.013503400072074751,0.035705535988303505,0.9606425082965512,0.09956620894620706,0.01580065034315689
0.1573448,0.12603982413344386,0.004827220184708428,0.02266102970186599,0.013589521755888505,0.03548319573035026,0.9723871421316254,0.09981665559596446,0.015786198405520094
0.1578103,0.1265557267439985,0.0048406077265838645,0.022361725566761154,0.013675208419482018,0.035259647490818766,0.9841674187008497,0.10006789609237442,0.015770852289353016
0.1582759,0.12706624643463046,0.004854174716174614,0.022062912089636483,0.013760441864773473,0.03503492231580304,0.9959818148938684,0.10031995100341866,0.015754613955827914
0.1587414,0.1275712950375832,0.0048679132244729625,0.021764639104637565,0.013845203918620014,0.03480905170199824,1.007828790395174,0.10057284047989376,0.01573748560727855
0.1592069,0.12807078505161099,0.004881815314593889,0.021466957092627786,0.01392947643829834,0.034582067591670894,1.0197067879105193,0.10082658424469992,0.015719469687001674
0.1596724,0.12856462966509943,0.004895873044893179,0.021169917181045092,0.014013241316993337,0.03435400236765216,1.0316142333973968,0.10108120158243274,0.015700568878931
0.1601379,0.1290527427788579,0.004910078472076163,0.020873571143568918,0.014096480489291912,0.0341248888483559,1.0435495362994973,0.10133671132928353,0.01568078610718379
0.1606034,0.12953503902857183,0.0049244236542963435,0.0205779713995957,0.014179175936679273,0.033894760282823115,1.0555110897850677,0.10159313186325412,0.015660124535480636
0.161069,0.1300114338069026,0.004938900654243116,0.020283171013521267,0.014261309693034758,0.03366365034579396,1.067497270989079,0.10185048109469262,0.01563858756643913
0.1615345,0.13048184328522253,0.004953501542217813,0.019989223693828412,0.014342863850124368,0.03343159313280809,1.0795064412591213,0.10210877645715599,0.015616178840742593
0.162,0.13094618443497355,0.004968218399197282,0.019696183791977993,0.014423820563087096,0.03319862315533425,1.0915369464049356,0.1023680348986054,0.015592902236185164
0.1624655,0.13140437504864083,0.004983043319884171,0.01940410630110178,0.014504162055912097,0.03296477533592921,1.1035871169514957,0.10262827287293916,0.01556876186659491
0.162931,0.13185633376033276,0.004997968415743122,0.019113046854495407,0.014583870626903812,0.03273008500342644,1.1156552683955465,0.1028895063318674,0.015543762080636812
0.1633966,0.13230198006596258,0.005012985818022052,0.018823061723909757,0.014662928654132183,0.03249458788815408,1.1277397014655015,0.10315175071713213,0.015517907460497669
0.1638621,0.13274123434302698,0.00502808768075768,0.018534207817639176,0.0147413186008651,0.03225832011718202,1.1398387023846035,0.10341502095307521,0.015491202820455123
0.1643276,0.1331740178699789,0.005043266183764461,0.018246542678405,0.014819023020980369,0.032021318209597416,1.1519505431372468,0.10367933143955643,0.015463653205332991
0.1647931,0.1336002528451913,0.005058513535606027,0.017960124481032992,0.014896024564354425,0.031783619071808066,1.1640734817383585,0.10394469604522343,0.015435263888845115
0.1652586,0.13401986240550956,0.0050738219765482295,0.017675012029923342,0.014972305982225128,0.03154525999287264,1.176205762505744,0.1042111281011352,0.015406040371829861
0.1657241,0.13443277064439002,0.005089183781492841,0.017391264756312086,0.01504785013252591,0.03130627863985663,1.1883456163353192,0.10447864039474049,0.015375988380377393
0.1661897,0.1348389026296234,0.0051045912628909056,0.017108942715322865,0.015122639985188533,0.03106671305321279,1.2004912609791694,0.10474724516421272,0.015345113863851673
0.1666552,0.13523818442064284,0.00512003677363474,0.016828106582808026,0.015196658627411683,0.030826601642184464,1.2126409013264077,0.10501695409314292,0.01531342299280921
0.1671207,0.1356305430854188,0.005135512709927548,0.016548817651978062,0.015269889268892502,0.03058598318023023,1.22479272968683,0.10528777830559236,0.015280922156816475
0.1675862,0.13601590671694422,0.005151011514129597,0.016271137829818427,0.015342315247018151,0.030344896800467997,1.2369449260773933,0.10555972836150716,0.0152476179621678
0.1680517,0.13639420444931513,0.0051665256775798715,0.015995129633292804,0.01541392003201439,0.030103381991136463,1.2490956585115691,0.10583281425249796,0.015213517229505544
0.1685172,0.13676536647341286,0.005182047743392142,0.015720856185331835,0.015484687232048181,0.029861478591071692,1.2612430832916544,0.10610704539798729,0.015178626991344238
0.1689828,0.1371293240521944,0.005197570309224367,0.015448381210606375,0.015554600598281397,0.02961922678519638,1.273385345304148,0.10638243064172802,0.015142954489500298
0.1694483,0.13748600953559764,0.00521308603002038,0.015177769031084263,0.015623644029872775,0.029376667100019106,1.285520578318322,0.10665897824869608,0.01510650717242885
0.1699138,0.13783535637506858,0.005228587620722799,0.014909084561369563,0.015691801578925395,0.029133840399140628,1.2976469052881363,0.10693669590236082,0.015069292692469104
0.1703793,0.13817729913771895,0.0052440678589561595,0.014642393303823165,0.01575905745537709,0.02889078787876411,1.3097624386576512,0.10721559070233717,0.01503131890299962
0.1708448,0.1385117735201228,0.005259519587679243,0.014377761343463493,0.015825396031831404,0.028647551063205944,1.3218652806700875,0.10749566916242359,0.014992593855504744
0.1713103,0.13883871636176248,0.00527493571780563,0.01411525534264608,0.015890801848326756,0.028404171800403482,1.3339535236806819,0.10777693720903044,0.01495312579655341
0.1717759,0.13915806565813432,0.005290309230791495,0.01385494253552055,0.01595525961704159,0.02816069225741609,1.3460252504734762,0.10805940018000401,0.014912923164691411
0.1722414,0.13946976057352603,0.00530563318118971,0.013596890722263631,0.016018754226933468,0.027917154915915413,1.358078534582172,0.10834306282385074,0.01487199458724835
0.1727069,0.13977374145347715,0.005320900699169298,0.013341168263086596,0.016081270748310075,0.027673602567660827,1.3701114406151758,0.10862792929936603,0.014830348877060404
0.1731724,0.14006994983693374,0.005336104992999332,0.013087844072015596,0.016142794437330334,0.027430078309956075,1.3821220245849557,0.10891400317567186,0.01478799502911014
0.1736379,0.1403583284681089,0.005351239351496339,0.012836987610443242,0.01620331074043388,0.02718662554108309,1.3941083342418237,0.10920128743266679,0.01474494221708471
0.1741034,0.14063882130805874,0.005366297146434278,0.012588668880449782,0.016262805298697253,0.02694328795570954,1.4060684094122542,0.10948978446189146,0.014701199789853823
0.174569,0.14091137354598388,0.005381271834916126,0.012342958417892265,0.01632126395211531,0.026700109540266814,1.4180002823418465,0.10977949606781288,0.014656777267869047
0.1750345,0.1411759316102637,0.005396156961706086,0.012099927285260086,0.01637867274380636,0.026457134568295623,1.4299019780430258,0.1100704234695298,0.014611684339486099
0.1755,0.1414324431792316,0.005410946161521444,0.011859647064295348,0.01643501792413959,0.026214407595756693,1.4417715146475807,0.11036256730290177,0.014565930857211836
0.1759655,0.14168085719169654,0.00542563316128312,0.011622189848376548,0.016490285954783374,0.025971973456304153,1.4536069037641297,0.11065592762310324,0.014519526833877878
0.176431,0.1419211238572166,0.005440211782323992,0.011387628234664117,0.016544463512673063,0.025729877256519193,1.4654061508405989,0.11095050390760432,0.014472482438742867
0.1768966,0.14215319466612797,0.005454675942554127,0.011156035316006306,0.01659753749389688,0.025488164371101598,1.4771672555317905,0.11124629505957871,0.014424807993525397
0.1773621,0.14237702239933225,0.005469019658582141,0.01092748467260401,0.01664949501749845,0.025246880438016723,1.4888882120721187,0.11154329941174013,0.014376513968369847
0.1778276,0.1425925611378443,0.005483237047791988,0.010702050363433035,0.016700323429194506,0.025006071353595685,1.500567009653582,0.11184151473060762,0.014327610977747342
0.1782931,0.14279976627210028,0.005497322330374503,0.010479806917422412,0.01675001030500625,0.024765783267586668,1.5122016328090362,0.11214093822120051,0.014278109776294174
0.1787586,0.14299859451102578,0.00551126983131312,0.010260829324387344,0.01679854345480283,0.024526062578155254,1.5237900618008318,0.11244156653216357,0.014228021254590032
0.1792241,0.1431890038908627,0.005525073982323201,0.010045193025715457,0.016845910925755405,0.02428695592683178,1.5353302730148706,0.11274339576132247,0.014177356434878562
0.1796897,0.14337095378375248,0.005538729323744468,0.009832973904805014,0.0168921010057004,0.024048510193403774,1.5468202393601347,0.11304642146167018,0.014126126466732775
0.1801552,0.14354440490607218,0.00555223050638604,0.009624248277253767,0.016937102226410594,0.023810772490751586,1.5582579306737323,0.11335063864778408,0.014074342622667897
0.1806207,0.1437093193265198,0.0055655722933236436,0.009419092880797125,0.016980903366772843,0.023573790159625376,1.5696413141315053,0.11365604180267355,0.014022016293704363
0.1810862,0.14386566047394403,0.0055787495616486165,0.009217584864994213,0.017023493455871404,0.02333761076336197,1.58096835466424,0.1139626248850572,0.013969158984883642
0.1815517,0.14401339314491296,0.005591757304168363,0.009019801780660409,0.017064861775975913,0.023102282082540098,1.5922370153795131,0.11427038133706803,0.013915782310739713
0.1820172,0.14415248351101737,0.0056045906310580075,0.00882582156904486,0.017104997865433253,0.022867852109572685,1.6034452579892051,0.11457930409238407,0.013861897990729056
0.1824828,0.14428289912590406,0.005617244771463012,0.008635722550751498,0.01714389152146263,0.022634369043234768,1.6145910432427062,0.11488938558478161,0.013807517844622091
0.1829483,0.14440460893203633,0.005629715075052622,0.008449583414402093,0.017181532802853308,0.022401881283125816,1.6256723313658334,0.11520061775710719,0.013752653787859144
0.1834138,0.1445175832671788,0.0056419970135240085,0.008267483205039911,0.017217912032564456,0.02217043742406523,1.636687082505479,0.1155129920706642,0.013697317826874045
0.1838793,0.14462179387060425,0.005654086182056997,0.008089501312272712,0.017253019800226744,0.021940086250419884,1.6476332571800012,0.11582649951500978,0.0136415220543885
0.1843448,0.14471721388901992,0.0056659783007192875,0.007915717458153873,0.017286846964545115,0.021710876730362788,1.658508816735366,0.116141130618157,0.013585278644680421
0.1848103,0.14480381788221103,0.005677669215822075,0.0077462116848006695,0.0173193846556023,0.021482858010061622,1.6693117238070372,0.11645687545717771,0.01352859984882929
0.1852759,0.14488158182839864,0.005689154901225927,0.00758106434174877,0.017350624277062552,0.02125607940779601,1.6800399427876143,0.11677372366919957,0.013471497989941576
0.1857414,0.14495048312930967,0.005700431459596771,0.007420356073042278,0.01738055750827514,0.0210305904080021,1.6906914403002116,0.11709166446279168,0.013413985458359203
0.1862069,0.14501050061495757,0.005711495123611834,0.007264167804058755,0.017409176306277134,0.02080644065524299,1.701264185677558,0.11741068662973174,0.01335607470685397
0.1866724,0.14506161454813377,0.005722342257115401,0.0071125807280687636,0.01743647290769526,0.02058367994810345,1.7117561514467963,0.11773077855714795,0.013297778245810734
0.1871379,0.14510380662861025,0.005732969356224262,0.006965676292529557,0.01746243983054659,0.020362358233007267,1.7221653138199524,0.11805192824002884,0.013239108638402143
0.1876034,0.14513705999705648,0.005743373050382803,0.0068235361851125805,0.01748706987593808,0.02014252559795567,1.7324896531900387,0.1183741232940937,0.013180078495757613
0.188069,0.1451613592386735,0.005753550103367765,0.006686242319464458,0.0175103561296652,0.019924232266185414,1.7427271546327403,0.11869735096901601,0.013120700472129137
0.1885345,0.14517669038654898,0.005763497414242751,0.006553876820701093,0.017532291963709982,0.01970752858974523,1.7528758084136342,0.11902159816199175,0.013060987260056391
0.189,0.14518304092473774,0.0057732120182626264,0.006426522010634524,0.017552871037639202,0.019492465042989657,1.7629336105008682,0.11934685143164339,0.013000951585533532
0.1894655,0.14518039979107095,0.005782691087728059,0.0063042603927321314,0.01757208729990359,0.019279092215989533,1.7728985630832244,0.1196730970122499,0.012940606203180011
0.189931,0.14516875737969728,0.005791931932790465,0.00618717463680781,0.01758993498903911,0.019067460807858615,1.7827686750934753,0.12000032082829244,0.0128799638914176
0.1903966,0.1451481055433589,0.005800932002207728,0.006075347563444677,0.01760640863477155,0.018857621619995924,1.7925419627369243,0.12032850850930503,0.012819037447655803
0.1908621,0.14511843759540388,0.005809688884051111,0.0059688621281489265,0.0176215030590258,0.018649625549243442,1.8022164500250146,0.12065764540501978,0.012757839683487794
0.1913276,0.14507974831153678,0.005818200306363799,0.005867801405234494,0.017635213376841156,0.018443523580958843,1.811790169313869,0.12098771660079558,0.012696383419898937
0.1917931,0.1450320339313091,0.005826464137771534,0.005772248571438322,0.017647534997194084,0.018239366782002935,1.8212611618476129,0.12131870693331982,0.01263468148248993
0.1922586,0.14497529215934976,0.00583447838804579,0.0056822868892661485,0.017658463623729765,0.018037206293641472,1.830627478306316,0.12165060100657156,0.012572746696716548
0.1927241,0.1449095221663367,0.0058422412086198815,0.0055979996900689995,0.017667995255403822,0.017837093324360936,1.8398871793583733,0.12198338320803465,0.012510591883147992
0.1931897,0.14483472458970878,0.005849750893058391,0.005519470356850793,0.017676126187035634,0.017639079142597717,1.8490383362171459,0.1223170377251484,0.01244822985274576
0.1936552,0.14475090153411735,0.005857005877480254,0.0054467823068078194,0.01768285300977482,0.017443215069380087,1.858079031201648,0.12265154856198278,0.012385673402165058
0.1941207,0.14465805657161665,0.0058640047409358395,0.00538001897360114,0.017688172611482648,0.017249552470882338,1.867007358301079,0.12298689955612449,0.012322935309080737
0.1945862,0.14455619474159132,0.005870746205738377,0.005319263789363258,0.017692082177030267,0.01705814275089039,1.8758214237429722,0.12332307439575947,0.012260028327539745
0.1950517,0.1444453225504211,0.00587722913775007,0.005264600166440689,0.01769457918851594,0.016869037343178333,1.884519346564735,0.12366005663693692,0.012196965183342174
0.1955172,0.14432544797088342,0.005883452546623305,0.005216111478874299,0.01769566142540354,0.016682287703795443,1.8930992591883398,0.12399782972099957,0.012133758569452978
0.1959828,0.14419658044129496,0.005889415585997334,0.00517388104361951,0.017695326964584732,0.01649794530326328,1.9015593079979218,0.12433637699216421,0.012070421141446496
0.1964483,0.14405873086439572,0.005895117553650881,0.005137992101508698,0.017693574180367377,0.016316061618682598,1.9098976539200276,0.12467568171523664,0.012006965512985955
0.1969138,0.1439119116059794,0.005900557891611111,0.005108527797958402,0.017690401744392757,0.016136688125749764,1.9181124730062558,0.12501572709344363,0.011943404251340127
0.1973793,0.1437561364932749,0.005905736186219448,0.005085571163424147,0.0176858086254842,0.015959876290682365,1.926201957018023,0.12535649628636475,0.01187974987293931
0.1978448,0.14359142081308507,0.005910652168154695,0.005069205093605962,0.017679794089429733,0.015785677562053773,1.9341643140131868,0.12569797242794653,0.011816014838972787
0.1983103,0.14341778130968869,0.005915305712413954,0.005059512329407801,0.01767235769870132,0.015614143362536345,1.9419977689342447,0.12604013864458194,0.011752211551029903
0.1987759,0.1432352361825113,0.005919696838251847,0.005056575436654182,0.01766349931211313,0.015445325080552973,1.9497005641978353,0.12638297807323845,0.01168835234678682
0.1992414,0.14304380508357137,0.005923825709078453,0.005060476785567394,0.017653219084421218,0.015279274061836899,1.9572709602852494,0.12672647387961855,0.011624449495740978
0.1997069,0.14284350911470697,0.005927692632316405,0.005071298530008643,0.017641517465866837,0.015116041600899612,1.964707236333664,0.12707060927633673,0.011560515194995201
0.2001724,0.14263437082458832,0.0059312980592175005,0.0050891225864865205,0.017628395201665488,0.014955678932406664,1.9720076907278024,0.1274153675410966,0.011496561565093336
0.2006379,0.14241641420552012,0.005934642584639157,0.005114030612936222,0.01761385333144373,0.014798237222461303,1.9791706416917196,0.12776073203485155,0.011432600645909188
0.2011034,0.14218966469003752,0.005937726946781023,0.005146103987273076,0.0175978931886256,0.01464376755979573,1.98619442788041,0.12810668621993157,0.011368644392590416
0.201569,0.14195414914729831,0.005940552026882037,0.005185423785724127,0.01758051639977034,0.014492320946869686,1.9930774089709251,0.128453213678119,0.011304704671558953
0.2020345,0.14170989587927302,0.0059431188488782045,0.005232070760941798,0.017561724883863043,0.014343948290875999,1.9998179662526845,0.1288002981286549,0.011240793256569502
0.2025,0.14145693461673414,0.005945428579021372,0.005286125319903949,0.01754152085155975,0.014198700394652665,2.0064145032166567,0.12914792344615914,0.011176921824827483
0.2029655,0.14119529651504545,0.005947482525459298,0.005347667501605004,0.01751990680438828,0.014056627947500799,2.012865446143082,0.12949607367844723,0.011113101953167765
0.203431,0.14092501414975134,0.005949282137777316,0.005416776954543099,0.01749688553390605,0.013917781515907852,2.019169244687399,0.12984473306422717,0.011049345114295464
0.2038966,0.14064612151196643,0.005950829006501839,0.005493532914008421,0.017472460120816113,0.013782211534175233,2.0253243724640337,0.1301938860506601,0.010985662673089978
0.2043621,0.14035865400356481,0.005952124862566018,0.005578014179178074,0.0174466339340424,0.013649968294949504,2.0313293276276982,0.1305435173107681,0.010922065882973434
0.2048276,0.14006264843216745,0.0059531715767378104,0.005670299090022934,0.01741941062976523,0.013521101939656223,2.037182633451836,0.13089361176067274,0.010858565882344545
0.2052931,0.13975814300592573,0.005953971159010761,0.005770465504031971,0.017390794150418054,0.013395662448835489,2.0428828389038487,0.13124415457664798,0.010795173691078897
0.2057586,0.1394451773280981,0.005954525757957812,0.0058785907727595624,0.01736078872364631,0.013273699632378361,2.048428519216726,0.13159513121197017,0.010731900207096565
0.2062241,0.13912379239141537,0.0059548376600485325,0.005994751718201275,0.017329398861229323,0.01315526311966339,2.0538182764566906,0.13194652741354754,0.010668756202997912
0.2066897,0.13879403057222997,0.005954909288930153,0.006119024609003661,0.017296629357966033,0.013040402349592639,2.059050740086457,0.1322983292383111,0.010605752322768322
0.2071552,0.1384559356244432,0.0059547432046728865,0.006251485136513564,0.01726248529052536,0.012929166560526862,2.0641245675237005,0.13265052306934835,0.010542899078552647
0.2076207,0.13810955267320363,0.005954342102980039,0.006392208390672478,0.017226972016261822,0.012821604780119658,2.0690384446943133,0.13300309563176213,0.01048020684750002
0.2080862,0.13775492820836893,0.005953708814363441,0.006541268835761508,0.0171900951719971,0.012717765815050722,2.0737910865800164,0.13335603400823812,0.010417685868679733
0.2085517,0.1373921100777224,0.005952846303284781,0.0066987402860025766,0.017151860672768037,0.012617698240658436,2.0783812377598845,0.13370932565430452,0.010355346240068798
0.2090172,0.1370211474799357,0.005951757667263414,0.0068646958810215965,0.017112274710541622,0.012521450390472233,2.082807672945333,0.13406295841326935,0.010293197915611835
0.2094828,0.13664209095726879,0.005950446135951203,0.007039208061179419,0.017071343752897334,0.01242907034564508,2.087069197508105,0.13441692053082102,0.010231250702353808
0.2099483,0.1362549923879984,0.005948915070174984,0.007222348542776487,0.01702907454167719,0.012340605924286499,2.091164648000802,0.13477120066927747,0.010169514257646079
0.2104138,0.13585990497856723,0.00594716796094718,0.007414188293137251,0.016985474091603794,0.012256104670696438,2.0950928926695074,0.13512578792146945,0.010107998086426248
0.2108793,0.1354568832554468,0.005945208428445099,0.007614797505580453,0.016940549688866578,0.01217561384450023,2.0988528319580664,0.1354806718242426,0.010046711538572136
0.2113448,0.13504598305670837,0.005943040220959408,0.007824245574281515,0.016894308889676392,0.012099180409684822,2.1024433990036124,0.13583584237156293,0.00998566380633027
0.2118103,0.1346272615232971,0.005940667213812223,0.008042601069033378,0.01684675951878848,0.01202685102353638,2.10586356012295,0.13619129002721034,0.009924863921819144
0.2122759,0.1342007770900053,0.005938093408245282,0.00826993170991231,0.01679790966799381,0.011958672025479284,2.1091123152894284,0.13654700573704484,0.009864320754607496
0.2127414,0.13376658947614103,0.005935322930278579,0.008506304341855312,0.0167477676945787,0.011894689425816458,2.1121886985999576,0.13690298094083228,0.009804043009367805
0.2132069,0.13332475967588825,0.005932360029539871,0.008751784909155833,0.016696342219752663,0.011834948894370938,2.1150917787318466,0.13725920758361698,0.009744039223605169
0.2136724,0.13287534994835443,0.005929209078065466,0.00900643842988468,0.01664364212704441,0.01177949574902857,2.117820659389166,0.13761567812663164,0.009684317765461654
0.2141379,0.13241842380730112,0.005925874569072692,0.009270328970243139,0.016589676560666008,0.011728374944181658,2.12037447973836,0.13797238555773692,0.00962488683159622
0.2146034,0.13195404601055194,0.005922361115704442,0.009543519618855538,0.016534454923845143,0.011681631059073327,2.1227524148328567,0.13832932340138412,0.009565754445140165
0.215069,0.1314822825490725,0.005918673449746207,0.009826072461008905,0.0164779868771254,0.011639308286042262,2.1249536760264496,0.13868648572809653,0.009506928453728062
0.2155345,0.13100320063571685,0.005914816420315995,0.010118048552847668,0.016420282336634336,0.01160145041866751,2.1269775113752427,0.13904386716346592,0.009448416527604087
0.216,0.13051686869363546,0.00591079499252752,0.01041950789553187,0.016361351472319062,0.01156810083981304,2.1288232060279806,0.13940146289666366,0.00939022615780361
0.2164655,0.13002335634433962,0.0059066142461270295,0.010730509409367824,0.01630120470614897,0.0115393025095717,2.130490082604592,0.139759268688467,0.00933236465440993
0.216931,0.12952273439541878,0.0059022793741042,0.011051110907920691,0.016239852710285087,0.011515097953108398,2.1319775015627767,0.14011728087880349,0.009274839144886018
0.2173966,0.1290150748279071,0.005897795681277428,0.011381369072118933,0.01617730640521555,0.01149552924840238,2.1332848615524687,0.1404754963938169,0.009217656572481229
0.2178621,0.128500450783298,0.005893168582853928,0.01172133942436085,0.01611357695785655,0.011480638013888616,2.1344115997579896,0.14083391275245785,0.00916082369471292
0.2183276,0.12797893655020626,0.005888403602965022,0.012071076302633744,0.016048675779618018,0.011470465395998504,2.1353571922276946,0.1411925280726029,0.009104347081922997
0.2187931,0.12745060755067908,0.00588350637317699,0.012430632834656268,0.01598261452443337,0.011465052056600302,2.1361211541908993,0.14155134107670592,0.00904823311590933
0.2192586,0.12691554032615857,0.005878482630977864,0.012800060912054555,0.01591540508675238,0.011464438160340006,2.13670304036186,0.1419103510969852,0.008992487988631996
0.2197241,0.12637381252309907,0.005873338218240505,0.013179411164582731,0.01584705959949627,0.011468663361883813,2.137102445230573,0.14226955808015043,0.008937117700994254
0.2201897,0.12582550287824326,0.005868079079662339,0.013568732934398236,0.01577759043197402,0.011477766793063587,2.1373190033401537,0.14262896259167357,0.0088821280616981
0.2206552,0.12527069120356063,0.005862711261182026,0.013968074250402428,0.015707010187758753,0.011491787049926951,2.1373523895505446,0.14298856581960748,0.008827524686174223
0.2211207,0.12470945837085148,0.005857240908373348,0.014377481802656833,0.015635331702523046,0.011510762179693806,2.1372023192883063,0.14334836957795694,0.008773312995586122
0.2215862,0.12414188629601965,0.005851674264816508,0.014797000916885324,0.015562568041832,0.011534729667621138,2.13686854878225,0.14370837630960695,0.008719498215908141
0.2220517,0.12356805792301623,0.005846017670447035,0.015226675529072574,0.015488732498892972,0.011563726423778006,2.1363508752846743,0.14406858908881431,0.008666085377077195
0.2225172,0.12298805720745729,0.005840277559882437,0.01566654816016909,0.015413838592261076,0.011597788769732725,2.135649137277962,0.14442901162326857,0.00861307931221791
0.2229828,0.12240196909991846,0.0058344604607266995,0.016116659890913293,0.015337900063499834,0.011636952425154518,2.1347632146663265,0.14478964825572932,0.00856048465694101
0.2234483,0.1218098795289108,0.005828572991852671,0.01657705033678118,0.015260930874796534,0.011681252494332292,2.1336930289524827,0.14515050396524598,0.008508305848714757
0.2239138,0.1212118753835422,0.005822621861662353,0.01704775762307418,0.015182945206532334,0.011730723452613754,2.132438543399041,0.1455115843679672,0.008456547126309331
0.2243793,0.12060804449587065,0.005816613866325071,0.017528818360156073,0.015103957454807318,0.011785399132768616,2.1309997631744344,0.14587289571754636,0.008405212529314053
0.2248448,0.11999847562295606,0.0058105558879934585,0.01802026761884985,0.015023982228921153,0.011845312711280023,2.1293767354831985,0.14623444490515022,0.008354305897727376
0.2253103,0.1193832584286183,0.00580445489299719,0.01852213890600569,0.014943034348810136,0.011910496694568716,2.1275695496804428,0.146596239459078,0.0083038308716196
0.2257759,0.11876248346491014,0.005798317930014349,0.019034464140251374,0.014861128842441701,0.0119809829051545,2.125578337370353,0.14695828754399706,0.00825379089086828
0.2262414,0.11813624215331289,0.005792152128220334,0.01955727362793658,0.014778280943167596,0.012056802467759673,2.123403272488596,0.14732059795980307,0.008204189194966311
0.2267069,0.11750462676566349,0.005785964695414145,0.020090596039282944,0.014694506087037092,0.012137985795359013,2.1210445713684933,0.14768318014011148,0.008155028822902607
0.2271724,0.11686773040482136,0.005779762916121919,0.02063445838475179,0.014609819910071693,0.012224562575180833,2.118502492790859,0.14804604415038816,0.008106312613115384
0.2276379,0.11622564698508382,0.00577355414967751,0.021188885991641787,0.014524238245502844,0.012316561754663563,2.115777338017391,0.14840920068572735,0.008058043203517924
0.2281034,0.11557847121235983,0.005767345828279929,0.021753902480928816,0.014437777120974165,0.012414011527372268,2.1128694508075356,0.1487726610682838,0.008010223031596741
0.228569,0.1149262985641119,0.005761145455027452,0.022329529744360515,0.014350452755709639,0.012516939318879582,2.109779217418749,0.14913643724436623,0.007962854334582074
0.2290345,0.11426922526907701,0.00575496060192818,0.02291578792181801,0.01426228155764909,0.01262537177261554,2.1065070665900802,0.1495005417811978,0.00791593914969062
0.2295,0.11360734828677711,0.005748798907886821,0.023512695378957428,0.014173280120552263,0.012739334735690968,2.1030534695090317,0.14986498786334768,0.00786947931444046
0.2299655,0.11294076528683002,0.005742668076667462,0.024120268685143685,0.01408346522107263,0.012858853244699016,2.0994189397616316,0.15022978928883776,0.007823476467038093
0.230431,0.11226957462807037,0.005736575874832052,0.02473852259168916,0.013992853815801986,0.012983951511499515,2.095604033265686,0.15059496046492746,0.007777932046837488
0.2308966,0.11159387533749006,0.005730530129654345,0.025367470010409725,0.013901463038286738,0.013114652908990748,2.091609348187168,0.1509605164035789,0.007732847294871059
0.2313621,0.11091376708900708,0.005724538727008939,0.02600712199251044,0.013809310196016776,0.013250979956873243,2.087435524839718,0.1513264727166052,0.007688223254452437
0.2318276,0.1102293501820717,0.005718609609235088,0.026657487707813062,0.013716412767387687,0.013392954307410212,2.083083245567219,0.15169284561050403,0.007644060771850868
0.2322931,0.10954072552011868,0.005712750772974902,0.027318574424337477,0.013622788398637037,0.013540596731189352,2.0785532346094184,0.15205965188097983,0.007600360497037039
0.2327586,0.1088479945888749,0.005706970266985498,0.02799038748824878,0.013528454900755368,0.013693927102891017,2.0738462579505774,0.15242690890715846,0.0075571228845000595
0.2332241,0.10815125943453158,0.005701276189924671,0.028672930304181596,0.013433430246372597,0.013852964387068026,2.0689631231511156,0.15279463464549875,0.007514348194135342
0.2336897,0.10745062264179107,0.005695676688109614,0.029366204315953017,0.013337732566620452,0.014017726623942553,2.0639046791622313,0.15316284762340618,0.007472036492203048
0.2341552,0.1067461873117974,0.005690179953248256,0.030070208987675262,0.013241380147971594,0.014188230915225758,2.05867181612347,0.15353156693255376,0.007430187652356779
0.2346207,0.10603805703996001,0.0056847942201428145,0.030784941785278946,0.01314439142905607,0.014364493409965916,2.05326546514321,0.15390081222191476,0.007388801356742171
0.2350862,0.10532633589367975,0.005679527764365199,0.031510398158457666,0.013046784997455733,0.014546529290431024,2.04768659806203,0.15427060369051301,0.007347877097165009
0.2355517,0.10461112838998513,0.005674388899903937,0.03224657152304436,0.012948579586477358,0.014734352758031992,2.0419362271989323,0.15464096207989622,0.007307414176328474
0.2360172,0.1038925394730868,0.005669385976782348,0.032993453243829775,0.012849794071905134,0.0149279770192927,2.0360154050803727,0.15501190866633888,0.007267411709139143
0.2364828,0.10317067449185739,0.005664527378647737,0.03375103261783331,0.012750447468733252,0.015127414271873276,2.029925224152054,0.15538346525278143,0.0072278686240812885
0.2369483,0.10244563917724295,0.005659821520331457,0.034519296858036466,0.012650558927879384,0.015332675690653195,2.0236668164734426,0.1557556541605118,0.0071887836646590585
0.2374138,0.10171753961961229,0.0056552768453797435,0.035298231077588955,0.01255014773287982,0.015543771413880782,2.0172413533949816,0.15612849822059544,0.007150155390906063
0.2378793,0.10098648224604921,0.0056509018235553115,0.03608781827449759,0.012449233296567106,0.01576071052939591,2.0106500452179863,0.1565020207650594,0.00711198218096189
0.2383448,0.10025257379759228,0.005646704948309769,0.03688803931680769,0.012347835157731041,0.01598350106093267,2.003894140837272,0.15687624561783603,0.0070742622327150785
0.2388103,0.09951592130642616,0.005642694734226914,0.037698872928286574,0.012245972977763987,0.01621214995450882,1.9969749273665853,0.15725119708547106,0.007036993565512025
0.2392759,0.09877663207302773,0.005638879714437041,0.03852029567461858,0.012143666537291447,0.016446663064908967,1.9898937297469805,0.15762689994760137,0.007000174021931372
0.2397414,0.09803481364326999,0.005635268438002373,0.039352281950120624,0.01204093573278896,0.01668704514226852,1.9826519103383184,0.1580033794472078,0.006963801269623377
0.2402069,0.09729057378548592,0.005631869467273678,0.04019480396498703,0.01193780057318641,0.016933299818765738,1.9752508684941232,0.1583806612806479,0.006927872803213803
0.2406724,0.09654402046749426,0.00562869137521819,0.041047831733072374,0.011834281176460855,0.017185429595429333,1.967692040120078,0.15875877158747484,0.0068923859462718205
0.2411379,0.09579526183358829,0.0056257427427188825,0.041911333060220796,0.011730397766219066,0.01744343582906931,1.9599768972164842,0.15913773694004782,0.0068573378533414225
0.2416034,0.09504440618148864,0.0056230321558452265,0.04278527353314998,0.011626170668270949,0.017707318719338908,1.9521069474050545,0.15951758433294086,0.006822725512035799
0.242069,0.09429156193926068,0.00562056820309557,0.043669616508898036,0.01152162030719516,0.0179770772959356,1.944083733440432,0.15989834117215637,0.006788545745194076
0.2425345,0.0935368376421968,0.00561835947261138,0.044564323104841076,0.01141676720289818,0.01825270940594944,1.9359088327068557,0.16028003526415033,0.0067547952130998365
0.243,0.09278034190966387,0.0056164145493636485,0.04546935218928933,0.011311631967168254,0.018534211701367202,1.9275838567004024,0.16066269480467654,0.006721470415760798
0.2434655,0.09202218342191684,0.005614742012311863,0.04638466037266952,0.011206235300225506,0.018821579626741046,1.9191104504972476,0.1610463483674573,0.006688567695249023
0.243931,0.09126247089687872,0.005613350431535999,0.04731020199930054,0.011100597987269681,0.019114807407030546,1.910490292208402,0.16143102489268682,0.00665608323810103
0.2443966,0.09050131306688879,0.005612248365342122,0.04824592913977001,0.01099474089502684,0.01941388803562701,1.9017250924213793,0.16181675367537374,0.006624013077777175
0.2448621,0.08973881865541983,0.005611444357342246,0.049191791583918246,0.010888684968296435,0.019718813262568986,1.892816593629249,0.16220356435352656,0.0065923530971795895
0.2453276,0.08897509635376609,0.005610946933509166,0.05014773683443623,0.010782451226500104,0.020029573582957774,1.8837665696475197,0.16259148689618635,0.00656109903122797
0.2457931,0.08821025479770378,0.005610764599207069,0.051113710101083634,0.010676060760233513,0.02034615822558176,1.8745768250192956,0.16298055159130898,0.0065302464694924215
0.2462586,0.08744440254412547,0.005610905836198731,0.05208965429553286,0.010569534727822596,0.020668555141758315,1.8652491944091307,0.16337078903349872,0.006499790858882557
0.2467241,0.08667764804764952,0.0056113790996301085,0.053075510026844304,0.010462894351885521,0.020996750994401934,1.8557855419859968,0.16376223011159396,0.00646972750639199
0.2471897,0.08591009963720525,0.00561219281499313,0.05407121559757774,0.010356160915901642,0.021330731147327323,1.8461877607957593,0.16415490599610413,0.00644005158189735
0.2476552,0.08514186549259453,0.005613355375067503,0.0550767070005445,0.01024935576078872,0.021670479654795967,1.8364577721235558,0.164548848126498,0.006410758121010884
0.2481207,0.08437305362102981,0.005614875136842346,0.05609191791620449,0.010142500281489596,0.022015979251314665,1.8265975248464552,0.16494408819834144,0.006381842027985665
0.2485862,0.08360377183364966,0.005616760418418523,0.05711677971071179,0.010035615923569443,0.022367211341694344,1.8166089947767667,0.16534065815028298,0.006353298078672415
0.2490517,0.08283412772201372,0.005619019495892592,0.058151221434611974,0.009928724179824704,0.022724155991377396,1.806494183996365,0.16573859015088552,0.0063251209235268765
0.2495172,0.08206422863458003,0.005621660600223332,0.059195169822194214,0.009821846586904727,0.023086791917041636,1.796255120182395,0.16613791658530278,0.0062973050906666725
0.2499828,0.08129418165316897,0.005624691914081889,0.06024854929150038,0.00971500472194706,0.02345509647748884,1.7858938559247166,0.16653867004179979,0.0062698449889765084
0.2504483,0.080524093569419,0.005628121568686641,0.061311281944993384,0.00960822019922734,0.02382904566482576,1.7754124680354482,0.16694088329811682,0.0062427349112605356
0.2509138,0.07975407086123923,0.005631957640623895,0.062383287570886264,0.009501514666824622,0.024208614095945456,1.7648130568509723,0.16734458930767634,0.00621596903744067
0.2513793,0.0789842196692648,0.005636208148655597,0.06346448364513345,0.009394909803303,0.02459377500431658,1.7540977455267641,0.16774982118563292,0.006189541437799589
0.2518448,0.07821464577332152,0.005640881050515183,0.06455478533408522,0.009288427314410288,0.024984500232088314,1.7432686793254066,0.16815661219476627,0.006163446076267089
0.2523103,0.07744545456890682,0.005645984239692751,0.06565410549780598,0.009182088929794502,0.025380760222518485,1.7323280248981667,0.1685649957312182,0.006137676813748486
0.2527759,0.07667675104369606,0.005651525542210685,0.06676235469405668,0.00907591639973887,0.02578252401273235,1.7212779695604932,0.1689750053100742,0.006112227411493685
0.2532414,0.07590863975408361,0.005657512713390892,0.0678794411829412,0.00896993149191602,0.02618975922681942,1.7101207205618218,0.16938667455079287,0.0060870915345055425
0.2537069,0.07514122480177,0.005663953434614746,0.0690052709322166,0.00886415598816203,0.026602432069275556,1.698858504350064,0.16980003716248757,0.006062262754986079
0.2541724,0.07437460981040687,0.0056708553100768425,0.0701397476232665,0.008758611681270952,0.02702050731879759,1.6874935658311574,0.17021512692906646,0.006037734555819089
0.2546379,0.07360889790231198,0.005678225863533596,0.07128277265773707,0.008653320371810479,0.027443948322437583,1.6760281676240774,0.17063197769423882,0.006013500334087629
0.2551034,0.07284419167526661,0.005686072535047727,0.07243424516483468,0.008548303864959363,0.027872716990123846,1.66446458931169,0.17105062334639637,0.00598955340462485
0.255569,0.07208059317940758,0.005694402677729631,0.07359406200928383,0.008443583967367206,0.028306773789555813,1.652805126687852,0.17147109780337957,0.005965887003596544
0.2560345,0.07131820389422593,0.005703223554476629,0.07476211779994404,0.008339182484037267,0.028746077741479734,1.6410520910011568,0.17189343499714166,0.005942494292113768
0.2565,0.07055712470568341,0.005712542334711115,0.07593830489908403,0.008235121215232868,0.02919058641535209,1.6292078081957293,0.17231766885832348,0.005919368359873856
0.2569655,0.0697974558834582,0.005722366091118615,0.07712251343231104,0.008131421953408054,0.029640255925397693,1.6172746181494762,0.17274383330075468,0.005896502228828069
0.257431,0.06903929705833028,0.005732701796386791,0.07831463129915328,0.008028106480163116,0.030095040927069397,1.6052548739102028,0.17317196220589778,0.005873888856874115
0.2578966,0.06828274719971726,0.005743556319946477,0.07951454418429277,0.007925196563225616,0.030554894613916243,1.593150940930007,0.17360208940725266,0.00585152114157174
0.2583621,0.06752790459337042,0.005754936424715828,0.08072213556944537,0.007822713953457561,0.031019768714866905,1.58096519629836,0.17403424867474157,0.005829391923879559
0.2588276,0.06677486681924154,0.005766848763848718,0.08193728674588446,0.007720680381889412,0.031489613491935214,1.5687000279742853,0.1744684736990948,0.005807493991911291
0.2592931,0.06602373072953031,0.005779299877488471,0.08315987682760413,0.007619117556781576,0.031964377738354526,1.5563578340180462,0.174904798076258,0.005785820084709566
0.2597586,0.06527459242692346,0.005792296189528083,0.08438978276511667,0.007518047160714066,0.032444008777147634,1.5439410218227438,0.17534325529184172,0.0057643628960355195
0.2602241,0.06452754724303637,0.005805844004378088,0.08562687935987913,0.007417490847704986,0.03292845246013904,1.5314520073462334,0.17578387870563283,0.00574311507817236
0.2606897,0.0637826897170692,0.005819949503743207,0.08687103927934259,0.007317470240358463,0.03341765316741647,1.5188932143437504,0.17622670153618825,0.0057220692457411616
0.2611552,0.06304011357468918,0.0058346187434089765,0.08812213307261783,0.007218006927042676,0.03391155380724864,1.5062670736016415,0.1766717568455303,0.0057012179795271406
0.2616207,0.062299911707151406,0.005849857650039554,0.08938002918674999,0.007119122459098583,0.03441009581646632,1.4935760221725818,0.17711907752396377,0.00568055383031466
0.2620862,0.061562176150670174,0.005865672017987849,0.0906445939835941,0.00702083834807994,0.034913219161313534,1.4808225026126538,0.1775686962750345,0.005660069322729224
0.2625517,0.06082699806605298,0.005882067506119124,0.09191569175728356,0.006923176063025237,0.03542086233877575,1.4680089622206525,0.17802064560064945,0.005639756959084724
0.2630172,0.060094467718608914,0.005899049634649254,0.0931931847522819,0.006826157027762123,0.03593296237839147,1.455137852279975,0.17847495778637854,0.005619609223234218
0.2634828,0.05936467445834315,0.005916623781998767,0.09447693318200859,0.006729802618244883,0.036449454844553746,1.4422116273034347,0.17893166488695725,0.0055996185844225214
0.2639483,0.05863770670044904,0.005934795181663836,0.09576679524802846,0.006634134159925535,0.036970273839307524,1.4292327442813377,0.17939079871200883,0.005579777501138946
0.2644138,0.05791365190610896,0.005953568919105412,0.09706262715979458,0.0065391729251590685,0.037495352005648824,1.4162036619331373,0.17985239081200308,0.005560078424968488
0.2648793,0.05719259656361475,0.005972949928657658,0.0983642831549339,0.006444940130643317,0.03802462053133135,1.403126839962977,0.180316472464468,0.005540513804439788
0.2653448,0.056474626169818166,0.0059929429904568505,0.09967161552006537,0.006351456934893908,0.03855800915318611,1.3900047383194212,0.1807830746604697,0.005521076088868183
0.2658103,0.05575982521192156,0.006013552727391975,0.10098447461213975,0.006258744435754683,0.039095446161959674,1.3768398164596574,0.18125222809137387,0.005501757732192259
0.2662759,0.055048277149618255,0.006034783602078269,0.10230270888029057,0.006166823667943945,0.03963685840767683,1.3636345326184565,0.1817239631359018,0.005482551196802328
0.2667414,0.0543400643975918,0.006056639913855086,0.10362616488818589,0.00607571560063684,0.040182171305533525,1.3503913430821577,0.18219830984749177,0.005463448957359442
0.2672069,0.05363526830838257,0.006079125795809509,0.10495468733686975,0.005985441135084157,0.04073130884232619,1.3371127014679443,0.18267529794197668,0.005444443504603598
0.2676724,0.05293396915562995,0.006102245211827267,0.10628811908808283,0.005896021102267812,0.041284193583423445,1.323801058008669,0.18315495678558677,0.00542552734914988
0.2681379,0.05223624611769773,0.006126001953672532,0.10762630118805305,0.005807476260593274,0.04184074668028666,1.3104588588434813,0.1836373153832849,0.005406693025271331
0.2686034,0.051542177261689776,0.0061503996380982175,0.10896907289174675,0.005719827293619146,0.042400887878545485,1.2970885453145085,0.18412240236744146,0.0053879330946673245
0.269069,0.050851839527862965,0.006175441703988346,0.11031627168757369,0.005633094807824093,0.04296453552663485,1.2836925532698324,0.18461024598685474,0.0053692401502162595
0.2695345,0.050165308714443545,0.006201131409534078,0.11166773332253982,0.005547299330411311,0.0435316065849996,1.2702733123730063,0.18510087409612075,0.005350606819711363
0.27,0.04948265946285308,0.006227471829444905,0.11302329182784208,0.00546246130715066,0.04410201663587299,1.2568332454193492,0.1855943141453563,0.005332025769578408
0.2704655,0.04880396524334938,0.006254465852196519,0.11438277954489971,0.005378601100258587,0.04467567989363506,1.2433747676592497,0.1860905931702779,0.005313489708574155
0.270931,0.048129298341087666,0.006282116177316796,0.1157460271518161,0.005295738986315886,0.04525250921575636,1.229900286128712,0.1865897377826388,0.005294991391464363
0.2713966,0.04745872984260674,0.006310425312711353,0.11711286369026558,0.005213895154223339,0.04583241611433262,1.2164121989873675,0.1870917741610244,0.005276523622680207
0.2718621,0.04679232962274477,0.0063393955720301,0.1184831165927988,0.00513308970319521,0.04641531076821522,1.2029128948641759,0.18759672804200855,0.005258079259952052
0.2723276,0.046130166331988916,0.006369029072076208,0.11985661171056089,0.005053342640790541,0.04700110203574228,1.189404752211034,0.18810462471167136,0.005239651217919523
0.2727931,0.04547230738426264,0.006399327730258898,0.1212331733414167,0.004974673880982152,0.04758969746807452,1.1758901386645042,0.18861548899748248,0.005221232471716864
0.2732586,0.0448188189451545,0.006430293262091461,0.12261262425847712,0.004897103242263239,0.04818100332314002,1.1623714104158678,0.18912934526055286,0.005202816060532587
0.2737241,0.04416976592059161,0.0064619271787359,0.12399478573902065,0.0048206504457914195,0.048774924580191364,1.1488509115897059,0.18964621738826085,0.005184395091142434
0.2741897,0.04352521194596102,0.006494230784595618,0.1253794775938039,0.004745335113570044,0.04937136495497858,1.1353309736312036,0.19016612878725955,0.005165962741414615
0.2746552,0.0428852193756818,0.006527205174957526,0.12676651819675555,0.004671176766666587,0.0499702269155408,1.1218139147023682,0.19068910237687384,0.005147512263786332
0.2751207,0.0422498492732305,0.006560851233685002,0.12815572451504767,0.004598194823467861,0.05057141169861949,1.1083020390873406,0.19121516058289684,0.00512903698871058
0.2755862,0.041619161401622175,0.006595169630963049,0.1295469121395392,0.004526408597971777,0.05117481932669565,1.0947976366069798,0.19174432533179758,0.005110530328072195
0.2760517,0.04099321421434903,0.006630160821096986,0.1309398953155856,0.004455837298115336,0.051780348625653345,1.0813029820428877,0.19227661804535082,0.0050919857785721645
0.2765172,0.04037206484677834,0.006665825040365981,0.1323344869742089,0.004386500024138487,0.05238789724307138,1.0678203345710349,0.19281205963570186,0.005073396925079211
0.2769828,0.0397557691080108,0.00670216230493265,0.1337304987636211,0.0043184157669834845,0.052997361667144846,1.0543519372051442,0.19335067050087917,0.005054757443947692
0.2774483,0.039144381473200436,0.006739172408809953,0.1351277410810949,0.0042516034067293235,0.05360863724623788,1.0409000162499753,0.1938924705207679,0.005036061106300862
0.2779138,0.03853795507633664,0.006776854921886552,0.13652602310517534,0.004186081711060818,0.05422161820906886,1.0274667807646478,0.19443747905356007,0.00501730178127859
0.2783793,0.03793654170348852,0.006815209188011841,0.1379251528282257,0.004121869333771856,0.054836197685528776,1.0140544220361347,0.19498571493269723,0.004998473439248651
0.2788448,0.03734019178651177,0.006854234323141821,0.13932493708930394,0.004058984813302362,0.05545226772813324,1.0006651130630464,0.19553719646432438,0.004979570154980821
0.2793103,0.03674895439721757,0.006893929213547022,0.14072518160736477,0.00399744657130851,0.05606971933410819,0.9873010080498208,0.19609194142527359,0.004960586110783018
0.2797759,0.036162877242003136,0.006934292514083675,0.14212569101478476,0.003937272911265712,0.056688442468109085,0.9739642419114244,0.1966499670615965,0.004941515599598855
0.2802414,0.035582006656942854,0.006975322646529309,0.14352626889120762,0.003878482017103942,0.05730832608557282,0.9606569297886665,0.19721129008766503,0.0049223530280659575
0.2807069,0.035006387603339045,0.007017017797983933,0.14492671779770672,0.003821091951874982,0.05792925815670121,0.9473811665742172,0.19777592668585972,0.004903092919534452
0.2811724,0.03443606366373089,0.007059375919337866,0.14632683931126106,0.0037651206564511897,0.05855112569107446,0.9341390264494153,0.19834389250686693,0.004883729917045069
0.2816379,0.033871077038359954,0.007102394723807272,0.14772643405954028,0.0037105859482554383,0.05917381476289244,0.9209325624319424,0.19891520267060744,0.0048642587862662645
0.2821034,0.03331146854209061,0.00714607168553839,0.14912530175599267,0.003657505520021888,0.059797210536841464,0.9077638059344381,0.19948987176781968,0.004844674418389801
0.282569,0.03275727760178346,0.007190404038281411,0.1505232412352302,0.003605896938587274,0.0604211972945831,0.8946347663341132,0.20006791386232164,0.004824971832984269
0.2830345,0.03220854225411972,0.0072353887741349,0.15192005048870358,0.0035557776437124123,0.06104565846186211,0.8815474305534241,0.20064934249397512,0.00480514618080606
0.2835,0.03166529914387485,0.007281022642361726,0.1533155267006616,0.0035071649469336323,0.06167047663622944,0.868503762651854,0.20123417068237662,0.004785192746567387
0.2839655,0.031127583522639182,0.007327302148277354,0.15470946628438992,0.0034600760304438353,0.062295533615375986,0.8555057034288458,0.2018224109312977,0.004765106951661026
0.284431,0.030595429247983506,0.007374223552211376,0.15610166491872676,0.003414527946002921,0.06292071042607274,0.8425551700379222,0.2024140752338981,0.004744884356841499
0.2848966,0.030068868783067637,0.007421782868543107,0.1574919175848551,0.003370537613877311,0.0635458873537124,0.8296540556120265,0.20300917507873267,0.004724520664862442
0.2853621,0.029547933196689725,0.007469975864812033,0.1588800186033738,0.003328121821808328,0.06417094397244724,0.8168042289001068,0.20360772145657402,0.004704011723069936
0.2858276,0.029032652163774098,0.007518798060903835,0.16026576167165182,0.003287297224009218,0.06479575917591746,0.8040075339149619,0.20420972486807035,0.00468335352595154
0.2862931,0.028523053966295366,0.0075682447283126906,0.16164893990147108,0.003248080340190622,0.06542021120856438,0.7912657895923648,0.20481519533226059,0.004662542217640831
0.2867586,0.02801916549463638,0.007618310889480497,0.16302934585696394,0.0032104875546143537,0.06604417769752219,0.7785807894614717,0.2054241423959679,0.004641574094377236
0.2872241,0.027521012249377575,0.0076689913172136425,0.16440677159285125,0.003174535115175357,0.06666753568508124,0.7659543013265209,0.20603657514409393,0.004620445606920986
0.2876897,0.027028618343515057,0.007720280534177943,0.16578100869298593,0.0031402391325117637,0.06729016166171616,0.75338806695982,0.2066525022108346,0.004599153362923057
0.2881552,0.026542006505104805,0.007772172812472302,0.1671518483092054,0.0031076155791429708,0.06791193159967081,0.7408838018060164,0.2072719317918392,0.004577694129249975
0.2886207,0.026061198080330094,0.007824662173281706,0.1685190812004961,0.003076680288635694,0.06853272098709226,0.7284431946976406,0.20789487165733245,0.004556064834263357
0.2890862,0.025586213036989228,0.007877742386610053,0.16988249777247108,0.003047448954797926,0.06915240486270535,0.7160679075819067,0.20852132916621843,0.004534262570054085
0.2895517,0.025117069968400553,0.007931406971093326,0.17124188811716087,0.0030199371309007285,0.06977085785101896,0.7037595752587508,0.20915131128118516,0.004512284594631006
0.2900172,0.024653786097721522,0.007985649193893557,0.1725970420531168,0.002994160228927779,0.07038795419805449,0.6915198051300788,0.20978482458482556,0.0044901283340640094
0.2904828,0.024196377282678448,0.008040462070673925,0.17394774916582498,0.002970133518852569,0.07100356780758693,0.6793501769601944,0.210421875296791,0.004467791384581368
0.2909483,0.02374485802070346,0.008095838365655318,0.17529379884842938,0.0029478721279431264,0.07161757227788779,0.6672522426473683,0.21106246929199105,0.004445271514621142
0.2914138,0.02329924145447487,0.008151770591754629,0.17663498034276046,0.002927391040094137,0.07222984093895916,0.6552275260065071,0.21170661211985378,0.004422566666836468
0.2918793,0.022859539377857032,0.008208251010804992,0.17797108278066676,0.002908705095186302,0.07284024689024728,0.6432775225628707,0.2123543090246584,0.0043996749600544675
0.2923448,0.02242576224223563,0.008265271633858132,0.1793018952256452,0.0028918289884727923,0.07344866303882308,0.6314036993567841,0.21300556496695303,0.0043765946911885215
0.2928103,0.02199791916324406,0.008322824221568943,0.18062720671476426,0.002876777269992599,0.07405496213801743,0.6196074947592854,0.2136603846460677,0.004353324337103606
0.2932759,0.021576017927876487,0.008380900284662426,0.18194680630087415,0.002863564344010614,0.07465901682649717,0.6078903182986457,0.21431877252373208,0.0043298625564343555
0.2937414,0.021160065001983055,0.008439491084483023,0.18326048309509688,0.002852204468484225,0.07526069966776812,0.596253550497692,0.2149807328488042,0.004306208191355537
0.2942069,0.020750065538142452,0.008498587633626457,0.18456802630958757,0.002842711754556238,0.0758598831900904,0.5846985427218622,0.21564626968311681,0.0042823602693045585
0.2946724,0.020346023383907112,0.008558180696654132,0.18586922530055774,0.002835100166073933,0.07645643992679116,0.5732266170379159,0.21631538692844435,0.004258318004655662
0.2951379,0.01994794109041619,0.008618260790890252,0.18716386961155032,0.0028293835191340764,0.0770502424569589,0.5618390660832254,0.21698808835459324,0.004234080800345404
0.2956034,0.01955581992137133,0.008678818187301773,0.1884517490169558,0.0028255754816537467,0.07764116344650372,0.5505371529455656,0.21766437762861512,0.004209648249449028
0.296069,0.0191696598623702,0.008739842911461425,0.18973265356575766,0.0028236895729668466,0.07822907568956682,0.5393221110533206,0.21834425834514196,0.004185020136707318
0.2965345,0.018789459630592732,0.008801324744594007,0.19100637362549555,0.002823739163446214,0.07881385215026278,0.5281951440760252,0.2190277340578407,0.004160196440003493
0.297,0.01841521668483473,0.008863253224706259,0.19227269992643334,0.0028257374741512543,0.07939536600473739,0.517157425835156,0.21971480831198323,0.0041351773317897
0.2974655,0.01804692723588365,0.00892561764780058,0.19353142360591863,0.0028296975765010435,0.0799734906835236,0.5062101002250885,0.22040548467812648,0.004109963180462594
0.297931,0.017684586257231003,0.008988407069172899,0.19478233625291888,0.002835632391972851,0.08054809991417784,0.4953542811441339,0.2210997667868968,0.004084554551687526
0.2983966,0.017328187496115848,0.009051610304794887,0.19602522995271837,0.002843554691826066,0.08111906776417852,0.48459105243557044,0.22179765836486978,0.0040589522096708035
0.2988621,0.016977723484893726,0.009115215932780812,0.1972598973317593,0.0028534770968514918,0.08168626868406813,0.47392146783858297,0.22249916327153796,0.004033157118379471
0.2993276,0.016633185552725294,0.009179212294939136,0.19848613160260867,0.00286541207714602,0.08224957755082023,0.4633465509490235,0.2232042855373555,0.004007170442708042
0.2997931,0.016294563837578817,0.009243587498409082,0.19970372660903282,0.002879371951912669,0.08280886971141142,0.4528672951899056,0.2239130294028502,0.003980993549591606
0.3002586,0.015961847298540468,0.009308329417382336,0.20091247687116073,0.0028953688892859896,0.08336402102657882,0.4424846637915443,0.22462539935879236,0.003954628009064741
0.3007241,0.01563502372842653,0.009373425694910207,0.20211217763071673,0.0029134149061828376,0.08391490791474186,0.43219958978125117,0.22534140018740895,0.003928075595265635
0.3011897,0.01531407976669128,0.009438863744796671,0.20330262489630416,0.0029335218681785097,0.08446140739606753,0.4220129759824968,0.22606103700463268,0.0039013382873848454
0.3016552,0.014999000912624334,0.009504630753577917,0.20448361548872088,0.002955701489408256,0.08500339713665674,0.41192569502344695,0.22678431530337473,0.0038744182705581203
0.3021207,0.014689771538831114,0.009570713682589174,0.20565494708628881,0.0029799653324941926,0.08554075549282929,0.4019385893547808,0.22751124099781123,0.0038473179367027287
0.3025862,0.01438637490499007,0.009637099270119775,0.20681641827017863,0.003006324808497636,0.08607336155548377,0.3920524712766955,0.22824182046867264,0.003820039885296742
0.3030517,0.014088793171880077,0.009703774033657507,0.20796782856971266,0.003034791176896922,0.08660109519450859,0.382268122975001,0.22897606060952627,0.003792586924100745
0.3035172,0.013797007415671431,0.009770724272223355,0.20910897850763102,0.003065375545590752,0.08712383710321932,0.3725862965662054,0.22971396887404075,0.003764962069821471
0.3039828,0.013510997642473741,0.009837936068797758,0.21023966964530644,0.0030980888709271387,0.08764146884279686,0.36300771415149014,0.23045555332422157,0.00373716854871691
0.3044483,0.013230742803133898,0.00990539529283951,0.21135970462789422,0.003132941957757991,0.08815387288670042,0.3535330678794696,0.23120082267960726,0.00370920979714244
0.3049138,0.012956220808277307,0.009973087602898346,0.21246888722940502,0.0031699454595193713,0.08866093266502852,0.34416302001762766,0.23194978636741492,0.0036810894620376
0.3053793,0.012687408543585464,0.010040998449322226,0.213567022397688,0.003209109878337437,0.08916253260880082,0.33489820303232104,0.23270245457362324,0.0036528114013531215
0.3058448,0.01242428188530286,0.010109113077060247,0.21465391629931177,0.003250445565160051,0.08965855819413253,0.3257392196772351,0.23345883829497976,0.0036243796844178835
0.3063103,0.012166815715966168,0.010177416528562036,0.2157293763643332,0.0032939627199140235,0.09014889598627282,0.3166866430901778,0.23421894939191945,0.003595798592245469
0.3067759,0.011914983940348551,0.010245893646774399,0.21679321133094387,0.0033396713916879262,0.09063343368347765,0.30774101689809147,0.23498280064237842,0.0035670726177799996
0.3072414,0.011668759501611961,0.010314529078235912,0.21784523128998465,0.0033875814789403997,0.09111206016068736,0.29890285533016386,0.2357504057964869,0.0035382064660809277
0.3077069,0.011428114397660265,0.010383307276270093,0.21888524772931933,0.0034377027297338505,0.0915846655129777,0.2901726433389154,0.2365217796321238,0.0035092050544464353
0.3081724,0.011193019697686008,0.010452212504277674,0.21991307357805592,0.0034900447419934093,0.09205114109875304,0.28155083672913966,0.23729693801131377,0.0034800735124750925
0.3086379,0.010963445558903665,0.010521228839128465,0.2209285232506041,0.003544616963790993,0.09251137958264975,0.2730378622945724,0.23807589793744635,0.003450817182065408
0.3091034,0.010739361243462232,0.010590340174653209,0.22193141269055658,0.0036014286936543027,0.0929652749781168,0.264634117962163,0.23885867761329582,0.0034214416173529018
0.309569,0.010520735135530007,0.010659530225235787,0.22292155941438113,0.00366048908090055,0.09341272268963965,0.2563399729438213,0.239645296499817,0.003391952584584314
0.3100345,0.010307534758544441,0.010728782529506032,0.22389878255491125,0.003721807125994709,0.09385361955457354,0.24815576789551133,0.24043577537569244,0.003362356061928562
0.3105,0.010099726792619898,0.010798080454133349,0.2248629029046226,0.003785391680932056,0.09428786388455059,0.2400818150835629,0.24123013639760366,0.003332658239224031
0.3109655,0.009897277092106154,0.010867407197721285,0.22581374295868453,0.0038512514496447507,0.09471535550642521,0.23211839855807098,0.2420284031611968,0.0033028655176617814
0.311431,0.009700150703290363,0.010936745794803053,0.2267511269577757,0.003919394988432202,0.09513599580272097,0.22426577433324968,0.242830600762713,0.003272984509404282
0.3118966,0.009508311882235226,0.011006079119937975,0.22767488093065297,0.003989830706414916,0.09554968775154168,0.2165241705746095,0.2436367558612498,0.003243022037139235
0.3123621,0.009321724112745948,0.011075389891908738,0.2285848327364614,0.00406256686601151,0.09595633596590865,0.20889378779282194,0.24444689674162026,0.0032129851335681134
0.3128276,0.009140350124458557,0.011144660678019287,0.22948081210677362,0.004137611583438552,0.09635584673248543,0.2013747990441368,0.2452610533777728,0.0031828810408290028
0.3132931,0.008964151911042054,0.011213873898493069,0.2303626506873448,0.004214972829232835,0.09674812804965043,0.19396735013721397,0.2460792574967339,0.0031527172098533666
0.3137586,0.008793090748506828,0.011283011830971303,0.23123018207956983,0.0042946584287957106,0.09713308966487685,0.18667155984623168,0.24690154264303404,0.003122501299656333
0.3142241,0.008627127213611654,0.011352056615110887,0.23208324188162957,0.004376676062959049,0.0975106431113791,0.17948752013013025,0.24772794424357542,0.003092241176560148
0.3146897,0.008466221202361651,0.011420990257281428,0.23292166772931316,0.004461033268572396,0.09788070174398353,0.17241529635784983,0.24855849967289773,0.003061944913350446
0.3151552,0.00831033194858943,0.011489794635360909,0.23374529933650298,0.004547737439110879,0.09824318077418089,0.16545492753941973,0.24939324831879817,0.0030316207883650127
0.3156207,0.008159418042611794,0.011558451503629384,0.2345539785353087,0.004636795825303412,0.09859799730431702,0.1586064265627566,0.2502322316482588,0.0030012772845147374
0.3160862,0.008013437449954327,0.01162694249776015,0.23534754931583596,0.00472821553578071,0.0989450703608778,0.1518697804360278,0.2510754932736339,0.0029709230882364697
0.3165517,0.007872347530136261,0.011695249139907746,0.2361258578655734,0.004822003537742639,0.09928432092682399,0.1452449505354367,0.251923079019048,0.0029405670883775057
0.3170172,0.007736105055508187,0.011763352843892084,0.2368887526083835,0.004918166657644414,0.09961567197293116,0.13873187285828592,0.25277503698695514,0.0029102183750114876
0.3174828,0.007604666230135205,0.011831234920477983,0.23763608424308066,0.005016711581901138,0.09993904848808968,0.13233045828117523,0.2536314176248075,0.002879886238185541
0.3179483,0.00747798670871824,0.0118988765827493,0.23836770578158137,0.005117644857610172,0.10025437750852016,0.12604059282319044,0.2544922737917797,0.00284958016659852
0.3184138,0.007356021615546273,0.011966258951576773,0.23908347258660967,0.005220972893290809,0.10056158814586026,0.11986213791393989,0.25535766082549466,0.0028193098462102545
0.3188793,0.007238725563472257,0.012033363061178595,0.23978324240894258,0.00532670195964069,0.10086061161407998,0.11379493066629578,0.25622763660869624,0.002789085158781754
0.3193448,0.007126052672905501,0.012100169864772655,0.24046687542418088,0.005434838190308393,0.10115138125518583,0.10783878415369735,0.2571022616358105,0.0027589161803463244
0.3198103,0.007017956590813242,0.01216666024031937,0.24113423426903238,0.005545387582681585,0.1014338325636771,0.10199348769187323,0.2579815990793396,0.0027288131796115796
0.3202759,0.006914390509724182,0.012232814996353918,0.24178518407709784,0.005658355998690115,0.10170790320972196,0.09625880712484046,0.2588657148560278,0.0026987866162923183
0.3207414,0.006815307186726702,0.01229861487790668,0.2424195925141539,0.005773749165623383,0.10197353306102512,0.09063448511503713,0.2597546776927398,0.0026688471393742684
