Time,Rectus Femoris right,Rectus Femoris left,Hamstrings right,Hamstrings left,TibilaisÂ Anterior right,TibilaisÂ Anterior left,Gastrocnemius right,Gastrocnemius left
0.0,0.028989031962058525,-0.0017814807833877878,0.10510014623633511,0.00877661829518386,-0.05101382622484369,-0.008880094878717586,-0.1388066564755432,-0.007629300946064227
0.0004655,0.029047310272656737,-0.001586858939819293,0.10541246353039287,0.008812000205796746,-0.047588126046670086,-0.00850197194824782,-0.13509387417141755,-0.0073165061875439565
0.000931,0.029104238845645232,-0.0013927977023072266,0.1057195175504364,0.008846661698134632,-0.04417735811425502,-0.008124059868712999,-0.13139542662505607,-0.007003982760170103
0.0013966,0.029159795627488005,-0.0011993231230438587,0.10602120351230555,0.008880593373007119,-0.04078207490410901,-0.007746410308698447,-0.12771184942238226,-0.00669177254206012
0.0018621,0.029213958832571,-0.0010064610751255845,0.10631741746051497,0.008913786012000432,-0.037402825563474504,-0.0073690749344122956,-0.12404367425887022,-0.006379917351124942
0.0023276,0.02926670695373526,-0.0008142372436853708,0.10660805631047024,0.00894623058198068,-0.03404015572034141,-0.006992105394846669,-0.12039142876024461,-0.006068458932478642
0.0027931,0.02931801877280749,-0.0006226771171111581,0.10689301789059294,0.008977918239551186,-0.030694607294589317,-0.006615553306979544,-0.11675563630505256,-0.0057574389459255195
0.0032586,0.02936787337112117,-0.00043180597835654135,0.10717220098431741,0.009008840335460842,-0.027366718310378655,-0.006239470241027897,-0.11313681584923117,-0.005446898953536093
0.0037241,0.029416250140021343,-0.0002416488963499076,0.10744550537192359,0.009038988418960557,-0.02405702270991029,-0.0058639077057623225,-0.10953548175279224,-0.0051368804073225445
0.0041897,0.029463128791345952,-5.2230717508034764e-05,0.10771283187217195,0.009068354242104792,-0.020766050168670495,-0.005488917133892916,-0.10595214360874354,-0.004827424637023072
0.0046552,0.029508489367876905,0.00013642394264002817,0.10797408238370833,0.009096929763995235,-0.017494325912274723,-0.005114549867535548,-0.1023873060743624,-0.004518572838003536
0.0051207,0.029552312253753835,0.0003242907077131361,0.1082291599262081,0.009124707154963657,-0.01424237053502018,-0.004740857143767032,-0.09884146870493449,-0.004210366059283756
0.0055862,0.029594578184843623,0.0005113454486167255,0.10847796868123197,0.009151678800691013,-0.011010699820252884,-0.004367890080276998,-0.09531512579006642,-0.0039028451916950364
0.0060517,0.029635268259058684,0.0006975642915545237,0.10872041403276579,0.009177837306259855,-0.007799824562650781,-0.003995699661123619,-0.09180876619267664,-0.0035960509561748493
0.0065172,0.02967436394661701,0.0008829236259078985,0.10895640260741934,0.00920317550013715,-0.0046102503925198055,-0.0036243367225997805,-0.08832287319076387,-0.003290023892204188
0.0069828,0.029711847100236777,0.0010674001119775594,0.10918584231425885,0.009227686438084592,-0.001442477602195152,-0.0032538519392157433,-0.08485792432204645,-0.002984804346392697
0.0074483,0.029747699965258247,0.0012509706885824503,0.10940864238424895,0.009251363406993555,0.0017029990253646266,-0.0028842958098038956,-0.08141439123156051,-0.0026804324612163693
0.0079138,0.029781905189685466,0.0014336125805108496,0.10962471340927916,0.009274199928641858,0.004825690385707661,-0.002515718643750753,-0.07799273952229904,-0.0023769481639122434
0.0083793,0.029814445834140044,0.001615303305818874,0.1098339673807496,0.009296189763369524,0.007925113219664303,-0.002148170547360938,-0.07459342860896694,-0.0020743911555341776
0.0088448,0.02984530538171904,0.0017960206829717989,0.1100363177276906,0.00931732691367079,0.011000790277693736,-0.0017817014103574688,-0.07121691157492224,-0.0017728009001734496
0.0093103,0.02987446774774872,0.0019757428378238294,0.1102316793543904,0.009337605627699625,0.014052250481731173,-0.0014163608925222557,-0.06786363503236749,-0.0014722166143476413
0.0097759,0.029901917289425737,0.00215444821043215,0.11041996867750531,0.009357020402686043,0.01707902908446886,-0.0010521984104803347,-0.06453403898584952,-0.0011726772565610788
0.0102414,0.029927638815337294,0.0023321155617012585,0.11060110366262658,0.009375565988260597,0.020080667826007405,-0.0006892631246310423,-0.06122855669912111,-0.0008742215170399547
0.0107069,0.02995161759485149,0.002508723979853705,0.11077500386027933,0.00939323738968435,0.023056715087816888,-0.000327603926229057,-0.057947614565413016,-0.0005768878076451648
0.0111724,0.029973839367369488,0.002684252886723436,0.11094159044132856,0.009410029870981634,0.026006726043950018,3.273057538193702e-05,-0.05469163198116002,-0.0002807142519657898
0.0116379,0.029994290351430836,0.0028586820438680502,0.11110078623176867,0.009425938957972875,0.028930262809451907,0.00039169206538034894,-0.05146102122322044,1.4261324403993156e-05
0.0121034,0.030012957253663673,0.0030319915584964114,0.11125251574687291,0.009440960441204677,0.03182689458591331,0.0007492325359200157,-0.04825618732962417,0.00030800140340198783
0.012569,0.03002982727757172,0.003204161889208252,0.11139670522468013,0.009455090378774353,0.03469619780411611,0.001105304298423298,-0.045077527983880185,0.0006004687838467229
0.0130345,0.03004488813215026,0.003375173851542722,0.11153328265879667,0.009468325099045988,0.03753775626372144,0.0014598599957115043,-0.041925433402870936,0.0008916265905958157
0.0135,0.030058128040323567,0.0035450086233331196,0.111662177830492,0.00948066120325508,0.040351161269952605,0.0018128526139702342,-0.03880028622835737,0.0011814382835121768
0.0139655,0.03006953574719658,0.0037136477498653665,0.11178332234006765,0.009492095567998753,0.043136011767226125,0.0021642354945472665,-0.03570246142211542,0.0014698676662365212
0.014431,0.030079100528113994,0.0038810731488381103,0.11189664963747926,0.009502625347608467,0.04589191446968545,0.002513962345580649,-0.032632326164721774,0.0017568788947648667
0.0148966,0.030086812196520384,0.004047267115122594,0.11200209505219286,0.009512247976402143,0.04861848398859276,0.0028619872534547124,-0.029590239758004556,0.0020424364858298875
0.0153621,0.03009266111161533,0.004212212325320706,0.11209959582225687,0.009520961170812569,0.0513153429565348,0.0032082646940818187,-0.026576553531172192,0.002326505325085165
0.0158276,0.030096638185797983,0.004375891842119863,0.11218909112257248,0.009528762931388993,0.05398212214839945,0.0035527495440078032,-0.023591610750632562,0.002609050675091537
0.0162931,0.03009873489189594,0.004538289118443616,0.11227052209234574,0.009535651544668785,0.056618460599079566,0.003895397091339237,-0.020635746533512776,0.0028900381831048574
0.0167586,0.03009894327017376,0.004699388001397102,0.11234383186170568,0.00954162558491609,0.05922400571786113,0.004236163046490801,-0.01770928776488924,0.0031694338886645865
0.0172241,0.030097255935116925,0.004859172736006674,0.11240896557747429,0.00954668391572447,0.061798413399452606,0.004575003552751186,-0.014812553018736952,0.0034472042309827058
0.0176897,0.03009366608198746,0.005017627968753236,0.11246587042807465,0.009550825691480618,0.06434134813161246,0.004911875196666042,-0.011945852482606342,0.003723316056132607
0.0181552,0.030088167493147817,0.005174738750898959,0.11251449566756541,0.009554050358686448,0.06685248309933163,0.005246735018236579,-0.009109487886035304,0.003997736624037768
0.0186207,0.030080754544150094,0.005330490541607225,0.11255479263879037,0.00955635765713723,0.06933150028552786,0.005579540520932532,-0.006303752432703245,0.00427043361526021
0.0190862,0.030071422209587983,0.005484869210855699,0.11258671479563401,0.009557747620953789,0.07177809056820832,0.005910249681518322,-0.0035289307363328593,0.004541375137588879
0.0195517,0.030060166068709072,0.005637861042142562,0.11261021772437432,0.00955822057946739,0.07419195381405672,0.006238820959691305,-0.000785298760343932,0.004810529732428199
0.0200172,0.030046982310785505,0.0057894527349859285,0.11262525916412576,0.009557777157956391,0.07657279896840073,0.006565213307531162,0.0019268762387379778,0.005077866380987165
0.0204828,0.03003186774024095,0.005939631407216528,0.11263179902636658,0.009556418278234242,0.07892034414151546,0.0068893861787594855,0.004607335764116915,0.005343354510269423
0.0209483,0.03001481978153212,0.006088384597063699,0.11262979941354599,0.009554145159088838,0.0812343166912186,0.007211299537808715,0.007255830127806819,0.005606963998864841
0.0214138,0.029995836483782935,0.006235700265034733,0.11261922463676735,0.009550959316573553,0.08351445330171353,0.007530913868699649,0.009872118495959644,0.005868665182543133
0.0218793,0.02997491652516954,0.006381566795587611,0.11260004123254543,0.009546862564150587,0.0857605000586375,0.007848190183726761,0.012455968930446424,0.006128428859650084
0.0223448,0.029952059217054124,0.006525972998597185,0.11257221797863669,0.009541857012687376,0.08797221252027393,0.008163090031950588,0.015007158426698747,0.006386226296306952
0.0228103,0.02992726450786549,0.006668908110614897,0.1125357259089425,0.00953594507030704,0.09014935578488983,0.008475575507496495,0.01752547294782051,0.00664202923141366
0.0232759,0.029900532986723995,0.006810361795922236,0.11249053832748622,0.00952912944209384,0.09229170455416269,0.008785609257659198,0.020010707454982415,0.006895809881456509
0.0237414,0.029871865886808357,0.006950324147378141,0.11243663082146643,0.009521413129654713,0.09439904319266378,0.009093154490812548,0.022462665934114303,0.007147540945121229
0.0242069,0.029841265088461622,0.00708878568706067,0.11237398127338848,0.009512799430537906,0.09647116578336956,0.009398174984124355,0.024881161418913156,0.007397195607712291
0.0246724,0.02980873312203335,0.007225737366703234,0.11230256987227796,0.009503291937509694,0.09850787617917653,0.009700635091076259,0.027266016010187428,0.00764474754537952
0.0251379,0.029774273170455064,0.00736117056792576,0.11222237912397996,0.009492894537690205,0.10050898805039905,0.01000049974878899,0.029617060891561204,0.007890170929153109
0.0256034,0.029737889071545946,0.007495077102261231,0.11213339386054778,0.00948161141154935,0.10247432492823462,0.01029773448515361,0.03193413634156474,0.008133440428788394
0.026069,0.02969958532004569,0.007627449210978215,0.11203560124872562,0.009469447031763892,0.10440372024418533,0.010592305425769501,0.03421709174214068,0.008374531216421944
0.0265345,0.029659367069371723,0.007758279564700191,0.11192899079752949,0.009456406161936751,0.10629701736542856,0.010884179300689977,0.036465785583598226,0.008613418970040794
0.027,0.029617240133097956,0.007887561262822834,0.11181355436493055,0.009442493855179682,0.10815406962613452,0.011173323450976394,0.038680085466050056,0.008850079876766935
0.0274655,0.029573210986152513,0.008015287832730754,0.11168928616364479,0.009427715452560615,0.10997474035473205,0.011459705835061649,0.04085986809736976,0.009084490635959314
0.027931,0.02952728676573225,0.00814145322881561,0.11155618276603278,0.009412076581416937,0.11175890289712752,0.011743295034923856,0.043005019287709646,0.009316628462135722
0.0283966,0.029479475271931968,0.008266051831297958,0.11141424310811221,0.009395583153536167,0.11350644063588586,0.01202406026207099,0.045115433940621126,0.009546471087717015
0.0288621,0.029429784968086698,0.00838907844485558,0.11126346849268588,0.00937824136320558,0.11521724700538553,0.012301971363337268,0.04719101604082213,0.009773996765596005
0.0293276,0.02937822498082581,0.008510528297061436,0.11110386259158636,0.009360057685132456,0.11689122550296192,0.01257699882649205,0.04923167863865744,0.009999184271533432
0.0297931,0.029324805099837925,0.00863039703663456,0.11093543144703846,0.00934103887223676,0.11852828969605612,0.012849113785661939,0.05123734383129976,0.010222012906383315
0.0302586,0.02926953577734606,0.008748680731507483,0.1107581834721393,0.009321191953318224,0.12012836322538865,0.013118288026566803,0.0532079427407406,0.010442462498149903
0.0307241,0.029212428127292762,0.008865375866713798,0.11057212945045554,0.009300524230599962,0.12169137980417889,0.013384493991570375,0.055143415488621006,0.010660513403878507
0.0311897,0.02915349392423542,0.008980479342099532,0.11037728253473708,0.009279043277150909,0.12321728321343292,0.013647704784546013,0.05704371116795314,0.010876146511382388
0.0316552,0.029092745601952043,0.00909398846986205,0.11017365824474556,0.009256756934189562,0.12470602729332353,0.013907894175558278,0.05890878781178422,0.011089343240807905
0.0321207,0.02903019625175843,0.009205900971920122,0.10996127446419687,0.009233673308271668,0.1261575759306869,0.014165036605360865,0.060738612358854416,0.011300085546040058
0.0325862,0.02896585962053782,0.00931621497711887,0.10974015143681648,0.009209800768364617,0.1275719030426609,0.014419107189711414,0.06253316061630067,0.011508355915950615
0.0330517,0.028899750108484352,0.009424929018273204,0.10951031176150637,0.0091851479428115,0.12894899255648942,0.014670081723503741,0.06429241721945793,0.01171413737549087
0.0335172,0.028831882766562098,0.009532042029053403,0.1092717803866226,0.009159723716187828,0.130288838385518,0.014917936684717923,0.06601637558880925,0.011917413486631098
0.0339828,0.028762273293681688,0.009637553340716422,0.10902458460336308,0.009133537226054035,0.1315914444014043,0.015162649238188691,0.0677050378841359,0.012118168349148683
0.0344483,0.028690938033596698,0.009741462678686539,0.10876875403826526,0.009106597859606939,0.13285682440257016,0.015404197239192568,0.06935841495591823,0.012316386601266889
0.0349138,0.02861789397152226,0.009843770158988902,0.10850432064481401,0.009078915250233322,0.13408500207892224,0.015642559236854148,0.07097652629403838,0.012512053420146234
0.0353793,0.028543158730478586,0.009944476284539662,0.10823131869416062,0.009050499273968874,0.1352760109728727,0.01587771447737196,0.07255939997383547,0.012705154522230517
0.0358448,0.028466750567362125,0.010043581941296344,0.10794978476495475,0.009021360045865663,0.13642989443669493,0.01610964290706429,0.07410707259956459,0.012895676163449632
0.0363103,0.028388688368747417,0.010141088394272234,0.1076597577322913,0.008991507916271358,0.13754670558625468,0.0163383251752354,0.07561958924531054,0.013083605139281316
0.0367759,0.028308991646422758,0.010236997283418578,0.10736127875577572,0.008960953467023445,0.1386265072511608,0.01656374263686243,0.07709700339340794,0.013268928784674066
0.0372414,0.028227680532663044,0.010331310619378463,0.1070543912667113,0.008929707507561604,0.13966937192138537,0.016785877355103257,0.07853937687041904,0.013451634973833561
0.0377069,0.028144775775243294,0.010424030779116293,0.10673914095441395,0.00889778107096145,0.1406753816904064,0.017004712103625485,0.07994677978072132,0.013631712119874871
0.0381724,0.028060298732196554,0.01051516050142674,0.10641557575165998,0.00886518540989278,0.14164462819493082,0.017220230368756553,0.08131929043775736,0.0138091491743428
0.0386379,0.027974271366320042,0.010604702882327104,0.10608374581927484,0.008831931992505466,0.14257721255125969,0.017432416351454986,0.0826569952929993,0.01398393562660263
0.0391034,0.027886716239433507,0.010692661370336932,0.10574370352987034,0.008798032498246103,0.14347324528836009,0.017641254969102606,0.08395998886268159,0.014156061503103513
0.039569,0.027797656506393886,0.010779039761648674,0.10539550345074077,0.0087634988136085,0.14433284627771265,0.017846731857117444,0.08522837365235539,0.014325517366516676
0.0400345,0.02770711590887046,0.010863842195193152,0.10503920232592823,0.00872834302782106,0.14515614466000504,0.018048833370387016,0.08646226007931918,0.014492294314750532
0.0405,0.027615118768884624,0.010947073147603573,0.10467485905746973,0.008692577428474062,0.14594327876874466,0.01824754658452148,0.08766176639298028,0.014656383979844671
0.0409655,0.02752168998211833,0.011028737428081747,0.10430253468583961,0.008656214497089821,0.14669439605086487,0.01844285929692607,0.08882701859320256,0.014817778526744615
0.041431,0.027426855010995104,0.011108840173170187,0.10392229236960168,0.008619266904638585,0.14740965298439979,0.01863476002769213,0.0899581503466967,0.014976470651959058
0.0418966,0.02733063987753745,0.011187386841433741,0.10353419736428726,0.00858174750700303,0.14808921499330358,0.01882323802030595,0.09105530290150911,0.015132453582101246
0.0423621,0.02723307115600423,0.011264383208054467,0.10313831700051611,0.00854366934039413,0.1487332563594889,0.01900828324217455,0.0921186249996663,0.015285721072316
0.0428276,0.027134175965311376,0.01133983535934337,0.10273472066137865,0.00850504561672103,0.14934196013215922,0.019189886384967388,0.09314827278803182,0.015436267404593763
0.0432931,0.027033981961239285,0.011413749687172752,0.10232347975909847,0.00846588971891761,0.14991551803450937,0.01936803886477296,0.0941444097274323,0.015584087385972932
0.0437586,0.02693251732843,0.011486132883332867,0.10190466771099467,0.008426215196228297,0.15045413036786684,0.019542732822069035,0.09510720650010959,0.01572917634663173
0.0442241,0.026829810772177262,0.011556991933816619,0.10147835991476474,0.008386035759455627,0.15095800591334654,0.01971396112150523,0.09603684091555556,0.015871530137870727
0.0446897,0.02672589151001246,0.011626334113036022,0.10104463372310897,0.008345365276172058,0.15142736183108954,0.019881717351496395,0.0969334978147848,0.016011145129987088
0.0451552,0.026620789263089587,0.011694166977974105,0.10060356841771761,0.008304217765898405,0.15186242355715635,0.020045995823625307,0.09779736897310107,0.01614801821004161
0.0456207,0.026514534247372244,0.01176049836227598,0.1001552451826423,0.008262607395251254,0.15226342469814425,0.02020679157185311,0.09862865300141158,0.016282146779519484
0.0460862,0.026407157164625876,0.011825336370282684,0.0996997470770731,0.008220548473061652,0.15263060692359795,0.020364100351536078,0.09942755524614291,0.01641352875188569
0.0465517,0.02629868919321857,0.01188868937101144,0.09923715900754303,0.008178055445467297,0.15296421985628242,0.020517918638247572,0.10019428768781205,0.016542162550035662
0.0470172,0.026189161978733888,0.011950565992085807,0.09876756769958066,0.00813514289098035,0.15326452096038676,0.020668243626404605,0.10092906883830526,0.01666804710364203
0.0474828,0.026078607624399563,0.012010975113619272,0.0982910616688321,0.00809182551553299,0.15353177542772822,0.02081507322769882,0.10163212363691713,0.01679118184639788
0.0479483,0.025967058681336266,0.01206992586205558,0.09780773119167267,0.008048118147502729,0.1537662560620256,0.02095840606933213,0.10230368334520135,0.01691156671315719
0.0484138,0.025854548138631105,0.012127427603969176,0.09731766827532819,0.008004035732719435,0.1539682431613111,0.02109824149205751,0.1029439854406844,0.017029202136973037
0.0488793,0.025741109413240894,0.012183489939828913,0.096820966627525,0.007959593329455984,0.15413802439854943,0.021234579548025587,0.10355327350949292,0.017144089046034334
0.0493448,0.025626776339730744,0.01223812269772818,0.09631772162568775,0.007914806103404382,0.15427589470053304,0.02136742099843767,0.10413179713794445,0.01725622886050186
0.0498103,0.025511583159853714,0.012291335927084443,0.09580803028570213,0.00786968932263917,0.1543821561251231,0.02149676731100618,0.10467981180315095,0.017365623489244635
0.0502759,0.02539556451197754,0.012343139892311174,0.09529199123026001,0.007824258352569896,0.15445711773690485,0.02162262065722363,0.10519757876268344,0.017472275326477726
0.0507414,0.0252787554203646,0.012393545066464976,0.09476970465680289,0.00777852865088441,0.1545010954813259,0.021744983909441885,0.105685364943345,0.017576187248302535
0.0512069,0.025161191284311483,0.012442562124870755,0.09424127230507912,0.007732515762484684,0.15451441205738561,0.02186386063776387,0.10614344282909885,0.017677362609150753
0.0516724,0.025042907867154664,0.01249020193872763,0.09370679742432951,0.007686235314416858,0.15449739678894417,0.021979255106750504,0.10657209034819734,0.017775805238133116
0.0521379,0.02492394128514891,0.012536475568698222,0.09316638474011507,0.007639703010797193,0.15445038549471882,0.022091172271946027,0.10697159075955634,0.017871519435294123
0.0526034,0.02480432799622506,0.012581394258483898,0.09262014042080008,0.007592934627735592,0.15437372035703462,0.022199617776225065,0.10734223253841922,0.017964509967774035
0.053069,0.02468410478863391,0.012624969428388404,0.09206817204370293,0.007545946008258304,0.1542677497893964,0.022304597945965073,0.10768430926135376,0.018054782065879637
0.0535345,0.024563308769482976,0.012667212668872255,0.091510588560927,0.00749875305723147,0.15413282830294803,0.022406119787047884,0.1079981194906245,0.01814234141906556
0.054,0.024441977353172897,0.012708135734100255,0.09094750026488299,0.007451371736287069,0.15396931637188416,0.02250419098069432,0.10828396665798275,0.018227194171828186
0.0544655,0.024320148249740166,0.012747750535484428,0.09037901875351431,0.007403818058752865,0.15377758029787825,0.022598819879136027,0.10854215894791533,0.01830934691951436
0.054931,0.024197859453112928,0.012786069135224698,0.08980525689523626,0.007356108084587874,0.15355799207359025,0.022690015501128914,0.10877300918039298,0.018388806704047356
0.0553966,0.024075149229286448,0.012823103739849758,0.08922632879359989,0.007308257915324848,0.15331092924531542,0.02277778752731262,0.10897683469315844,0.018465581009572556
0.0558621,0.0239520561044249,0.012858866693760669,0.0886423497516911,0.007260283689021206,0.15303677477483463,0.022862146295420393,0.10915395722359342,0.018539677758025327
0.0563276,0.023828618852896014,0.012893370472779794,0.08805343623627589,0.007212201575219792,0.15273591690052532,0.022943102795343697,0.10930470279020339,0.018611105304623406
0.0567931,0.023704876485244938,0.012926627677707832,0.08745970584170189,0.007164027769920813,0.15240874899779064,0.023020668664055728,0.1094294015737581,0.018679872433286133
0.0572586,0.02358086823611377,0.012958651027891687,0.08686127725356711,0.007115778490566248,0.15205566943886306,0.023094856180397947,0.10952838779812528,0.018745988351982726
0.0577241,0.023456633552112884,0.012989453354805962,0.08625827021216668,0.007067469971038011,0.1516770814520378,0.023165678259733574,0.10960199961083444,0.018809462688011664
0.0581897,0.02333221207965022,0.013019047595650828,0.08565080547572837,0.007019118456671108,0.15127339298038928,0.0232331484484721,0.10965057896340752,0.018870305483213255
0.0586552,0.023207643652724447,0.013047446786969,0.08503900478344806,0.006970740199282996,0.15084501654002405,0.023297280918468652,0.10967447149149208,0.018928527189117427
0.0591207,0.023082968280687927,0.013074664058284434,0.08442299081833674,0.0069223514522203725,0.15039236907792092,0.023358090461302283,0.10967402639483287,0.018984138662028856
0.0595862,0.022958226135985013,0.013100712625765324,0.08380288716989046,0.006873968465424593,0.14991587182940855,0.02341559248243705,0.10964959631711658,0.01903715115805155
0.0600517,0.02283345754187128,0.013125605785913833,0.08317881829659543,0.006825607480516963,0.14941595017532958,0.023469802995269923,0.10960153722572506,0.01908757632805502
0.0605172,0.022708702960118905,0.013149356909285021,0.08255090948828034,0.006777284725905103,0.14889303349893904,0.02352073861506921,0.10953020829143122,0.019135426212584173
0.0609828,0.022584002978713356,0.013171979434237304,0.08191928682832876,0.0067290164119116255,0.14834755504258365,0.02356841655280721,0.1094359717680721,0.019180713236714973
0.0614483,0.02245939829954613,0.013193486860716763,0.08128407715576474,0.006680818725926323,0.14777995176420733,0.023612854608890607,0.10931919287223286,0.019223450204857807
0.0619138,0.022334929726108437,0.013213892744077601,0.08064540802722484,0.006632707827583059,0.1471906641937271,0.023654071166791937,0.10918023966297552,0.019263650295510394
0.0623793,0.022210638151190256,0.013233210688940986,0.08000340767883063,0.006584699843962502,0.14658013628932218,0.023692085186585363,0.10901948292164583,0.019301327055961947
0.0628448,0.022086564544589144,0.013251454343094476,0.07935820498797584,0.0065368108648218085,0.1459488152936786,0.023726916198389698,0.1088372960317912,0.019336494396950222
0.0633103,0.021962749940832964,0.013268637391434171,0.07870992943504239,0.00648905693785237,0.1452971515902298,0.023758584295721617,0.10863405485922212,0.019369166587272977
0.0637759,0.02183923542692065,0.013284773549951672,0.07805871106506021,0.006441454063966676,0.14462559855943372,0.023787110128761727,0.1084101376322493,0.019399358248355265
0.0642414,0.02171606213008494,0.01329987655976776,0.07740468044932584,0.006394018192615364,0.14393461243512592,0.023812514897535948,0.10816592482212775,0.01942708434877398
0.0647069,0.021593271205580928,0.013313960181214701,0.07674796864699503,0.006346765217135528,0.14322465216098715,0.02383482034501452,0.10790179902373886,0.019452360198740994
0.0651724,0.021470903824504166,0.013327038187969032,0.07608870716666481,0.0062997109701313355,0.1424961792471634,0.023854048750130794,0.10761814483654036,0.0194752014445462
0.0656379,0.021349001161641866,0.013339124361236555,0.07542702792796105,0.006252871218888047,0.14174965762707625,0.023870222920721686,0.10731534874581343,0.019495624062961747
0.0661034,0.021227604383360726,0.013350232483991349,0.07476306322314703,0.006206261660820531,0.14098555351445974,0.023883366186391544,0.1069937990042355,0.019513644355608796
0.066569,0.021106754635534738,0.013360376335270674,0.07409694567876945,0.006159897918957386,0.14020433526065948,0.023893502391300964,0.10665388551380642,0.019529278943288042
0.0670345,0.020986493031516215,0.013369569684527724,0.07342880821735791,0.006113795537461756,0.13940647321222946,0.023900655886882057,0.10629599970815562,0.019542544760275296
0.0675,0.020866860640153178,0.013377826286044154,0.07275878401919397,0.006067969977189955,0.13859243956886005,0.023904851524481532,0.10592053443525724,0.019553459048583452
0.0679655,0.020747898473856153,0.013385159873404452,0.07208700648416623,0.006022436611288969,0.13776270824167067,0.02390611464793291,0.10552788384058026,0.019562039352192147
0.068431,0.020629647476717354,0.013391584154034068,0.0714136091937273,0.005977210720833895,0.13691775471189874,0.023904471086059247,0.10511844325070085,0.019568303511246325
0.0688966,0.02051214851268508,0.013397112803803313,0.07073872587296898,0.005932307490506378,0.13605805589001613,0.023899947145107882,0.10469260905740388,0.019572269656224908
0.0693621,0.02039544235379609,0.013401759461698876,0.07006249035283138,0.005887742004315043,0.1351840899753029,0.023892569601118786,0.10425077860230035,0.01957395620208072
0.0698276,0.020279569668468552,0.01340553772456502,0.06938503653246157,0.005843529241358928,0.13429633631590754,0.023882365692228232,0.10379335006198796,0.019573381842352723
0.0702931,0.020164571009858148,0.013408461141916529,0.06870649834173688,0.005799684071634876,0.13339527526942238,0.023869363110909696,0.10332072233378109,0.019570565543251574
0.0707586,0.02005048680427979,0.013410543210825701,0.06802700970396777,0.0057562212518898065,0.13248138806400175,0.023853589996153907,0.1028332949220368,0.019565526537719473
0.0712241,0.01993735733969748,0.013411797370885757,0.06734670449879461,0.005713155421518736,0.1315551566600505,0.023835074925589984,0.10233146782510281,0.019558284319465366
0.0716897,0.0198252227542847,0.013412236999253133,0.06666571652529181,0.005670501098509415,0.13061706361250958,0.02381384690754965,0.10181564142291409,0.019548858636976564
0.0721552,0.01971412302505771,0.013411875405771078,0.06598417946529278,0.005628272675434407,0.12966759193376542,0.023789935373076346,0.10128621636526436,0.01953726948750805
0.0726207,0.019604097956584063,0.013410725828176973,0.06530222684694814,0.005586484415491462,0.12870722495720904,0.023763370167881107,0.10074359346077906,0.019523537111050798
0.0730862,0.019495187169768655,0.01340880142739565,0.06461999200852943,0.00554515044859304,0.1277364462014715,0.023734181544247068,0.1001881735666163,0.01950768198428057
0.0735517,0.019387430090719443,0.01340611528292092,0.06393760806248965,0.005504284767505839,0.12675573923536146,0.023702400152884457,0.09962035747892255,0.01948972481448869
0.0740172,0.019280865939695028,0.013402680388287451,0.06325520785979181,0.005463901224041139,0.12576558754353012,0.023668057034737962,0.09904054582406936,0.019469686533496323
0.0744828,0.019175533720136174,0.01339850964663498,0.0625729239545164,0.005424013525296791,0.1247664743928901,0.023631183612748415,0.09844913895069735,0.019447588291553797
0.0749483,0.01907147220778335,0.013393615866366894,0.0618908885687578,0.00538463522995161,0.12375888269981329,0.023591811683570812,0.09784653682259217,0.019423451451226804
0.0754138,0.01896871993988231,0.013388011756905032,0.06120923355781984,0.005345779744612907,0.12274329489813353,0.02354997340925062,0.09723313891241755,0.019397297581271393
0.0758793,0.0188673152044797,0.013381709924542549,0.0605280903757199,0.005307460320217848,0.12172019280797969,0.023505701308860264,0.0966093440963288,0.01936914845050022
0.0763448,0.018767296029810646,0.013374722868396707,0.05984759004101086,0.005269690048489297,0.12069005750546458,0.02345902825009767,0.09597555054949006,0.019339026021642735
0.0768103,0.018668700173780212,0.013367062976463388,0.059167863102929596,0.005232481858446756,0.11965336919325452,0.023409987440848618,0.09533215564251721,0.019306952445202228
0.0772759,0.01857156511354066,0.013358742521775123,0.05848903960788057,0.005195848512973014,0.11861060707204493,0.02335861242071465,0.0946795558388683,0.019272950053312792
0.0777414,0.018475928035166334,0.013349773658664433,0.05781124906626255,0.005159802605437088,0.11756224921296646,0.02330493705250849,0.09401814659320239,0.019237041353599313
0.0782069,0.018381825823428052,0.013340168419134204,0.05713462041964634,0.005124356556374034,0.11650877243094587,0.02324899551371875,0.09334832225072708,0.01919924902304344
0.0786724,0.018289295051668805,0.013329938709336787,0.056459282008310824,0.005089522610222179,0.11545065215904571,0.023190822287946045,0.0926704759475549,0.019159595901858468
0.0791379,0.018198371971782583,0.013319096306163456,0.05578536153914438,0.005055312832118308,0.11438836232380498,0.02313045215631231,0.09198499951208684,0.019118104987375834
0.0796034,0.018109092504298128,0.013307652853945803,0.05511298605391845,0.0050217391047513125,0.11332237522160364,0.023067920188845462,0.09129228336744219,0.019074799427945953
0.080069,0.01802149222856949,0.013295619861270565,0.054442281897939475,0.004988813125274805,0.11225316139607208,0.023003261735841232,0.09059271643495238,0.019029702516855818
0.0805345,0.01793560637307511,0.013283008697909356,0.053773374689085336,0.004956546402279163,0.11118118951656616,0.022936512419204042,0.08988668603873655,0.018982837686265824
0.081,0.017851469805827323,0.01326983059186469,0.05310638928723216,0.004924950252823466,0.11010692625772824,0.02286770812376868,0.08917457781137564,0.01893422850116807
0.0814655,0.017769117024894053,0.013256096626533601,0.05244144976407689,0.0048940357995277805,0.10903083618015394,0.022796884988604504,0.0884567756007016,0.018883898653368196
0.081931,0.017688582149034508,0.013241817737990115,0.05177867937336088,0.004863813967726222,0.107953381612184,0.022724079398303728,0.08773366137771725,0.01883187195549286
0.0823966,0.017609898908450616,0.01322700471238772,0.05111820052149956,0.004834295482681208,0.10687502253284001,0.022649327974255506,0.08700561514566248,0.018778172335024712
0.0828621,0.017533100635655954,0.013211668183482878,0.05046013473862299,0.0048054908668592935,0.10579621645592328,0.022572667565907537,0.08627301485024111,0.01872282382836676
0.0833276,0.01745822025646394,0.013195818630280525,0.049804602650031615,0.004777410437268967,0.10471741831529488,0.022494135242016704,0.08553623629102246,0.018665850574937817
0.0837931,0.017385290281096897,0.013179466374802537,0.04915172394807174,0.0047500643028607625,0.10363908035135472,0.022413768281890324,0.08479565303403082,0.018607276811300786
0.0842586,0.01731434279541768,0.013162621579979836,0.048501617364434785,0.004723462361990048,0.1025616519987381,0.02233160416661951,0.08405163632553556,0.018547126865325395
0.0847241,0.01724540945228543,0.013145294247668958,0.047854400642884175,0.004697614299942803,0.10148557977524733,0.022247680570306023,0.0833045550070546,0.018485425150386894
0.0851897,0.01717852146303695,0.01312749421679364,0.04721019051241372,0.0046725295865247315,0.10041130717203584,0.022162035351283842,0.08255477543158306,0.018422196159602174
0.0856552,0.017113709589095142,0.013109231161611976,0.04656910266084086,0.004648217473713998,0.09933927454506217,0.0220747065433366,0.08180266138105897,0.0183574644601045
0.0861207,0.017051004133705815,0.013090514590109611,0.04593125170883824,0.004624686993377907,0.0982699190078311,0.02198573234691186,0.08104857398507778,0.018291254687358077
0.0865862,0.016990434933804074,0.013071353842519314,0.04529675118440682,0.004601946955053815,0.09720367432543897,0.021895151120333033,0.08029287164086672,0.01822359153951336
0.0870517,0.016932031352011313,0.013051758089967188,0.044665713497793594,0.004580005943794601,0.09614097080994005,0.021803001371009753,0.0795359099345305,0.018154499771804024
0.0875172,0.01687582226876382,0.013031736333245706,0.04403824991685662,0.004558872318078987,0.09508223521705078,0.02170932174664741,0.07877804156357882,0.018084004190986328
0.0879828,0.016821836074573774,0.013011297401713617,0.04341447054288025,0.0045385542077870066,0.09402789064420895,0.02161415102645659,0.07801961626074636,0.018012129649821396
0.0884483,0.016770100662423404,0.01299044995232276,0.04279448428684296,0.004519059512240945,0.09297835643000404,0.021517528112363286,0.07726098071911507,0.01793890104160107
0.0889138,0.016720643420292815,0.012969202468771713,0.04217839884614015,0.004500395898312031,0.0919340480549957,0.021419492020220754,0.0765024785185488,0.0178643432947176
0.0893793,0.0166734912238221,0.012947563260786167,0.04156632068176422,0.004482570798593206,0.09089537704393666,0.021320081871023855,0.07574445005344928,0.01778848136727759
0.0898448,0.01662867042910816,0.012925540463525894,0.04095835499594391,0.004465591409638254,0.08986275086941642,0.02121933688212676,0.07498723246184254,0.017711340241760572
0.0903103,0.016586206865636718,0.012903142037118074,0.04035460571024485,0.0044494646902675915,0.08883657285694171,0.021117296358464793,0.07423115955580417,0.01763294491972263
0.0907759,0.01654612582934983,0.012880375766316666,0.0397551754441329,0.004434197359941005,0.0878172420914697,0.021013999683781332,0.07347656175323128,0.017553320416545663
0.0912414,0.01650845207584939,0.012857249260287503,0.03916016549400205,0.004419795897197594,0.08680515332540886,0.020909486311860633,0.07272376601096908,0.01747249175623307
0.0917069,0.016473209813736983,0.01283376995251864,0.038569675812667945,0.004406266538163154,0.08580069688810336,0.02080379575776766,0.07197309575929899,0.017390483966252666
0.0921724,0.016440422698090564,0.012809945100855437,0.037983804989328296,0.004393615275125209,0.08480425859681541,0.02069696758909591,0.07122487083779487,0.017307322072428015
0.0926379,0.01641011382407842,0.012785781787659755,0.03740265022999085,0.004381847855175896,0.08381621966922038,0.020589041417224344,0.07047940743255372,0.017223031093879203
0.0931034,0.01638230572071098,0.012761286920092617,0.03682630733836957,0.004370969778922838,0.08283695663742902,0.020480056888584498,0.06973701801480632,0.017137636038014305
0.093569,0.016357020344730994,0.012736467230519457,0.03625487069724934,0.0043609862992681795,0.08186684126355102,0.020370053675938794,0.0689980112809136,0.01705116189557267
0.0940345,0.01633427907464279,0.01271132927703712,0.03568843325031914,0.004351902420255865,0.08090624045681391,0.020259071469671187,0.0682626920937536,0.016963633635721082
0.0945,0.0163141027048813,0.012685879444121612,0.0351270864844735,0.00434372289598726,0.07995551619225044,0.020147149969091355,0.06753136142550396,0.01687507620120376
0.0949655,0.01629651144012165,0.01266012394339552,0.03457092041258198,0.0043364522296051675,0.07901502543096804,0.020034328873753757,0.06680431630182417,0.016785514503547098
0.095431,0.016281524889730177,0.012634068814513927,0.03402002355672586,0.0043300946723462885,0.07808512004201246,0.019920647874792984,0.06608184974744172,0.016694973418319867
0.0958966,0.016269162062357814,0.012607719926167632,0.033474482931901514,0.004324654222662097,0.07716614672583787,0.01980614664627683,0.06536425073314563,0.016603477780449655
0.0963621,0.01625944136067691,0.012581082977202325,0.03293438403018943,0.004320134625408129,0.07625844693939463,0.019690864836578458,0.06465180412419012,0.01651105237959602
0.0968276,0.01625238057626264,0.012554163497852296,0.032399810805387876,0.0043165393711016185,0.07536235682284553,0.019574842059769098,0.06394479063011121,0.016417721955580826
0.0972931,0.016247996884620163,0.012526966851087255,0.03187084565811,0.004313871695247426,0.07447820712792057,0.019458117887032698,0.06324348675595805,0.016323511193876136
0.0977586,0.016246306840358982,0.012499498234070627,0.031347569421343084,0.00431213457773216,0.07360632314791972,0.01934073183810387,0.0625481647549408,0.016228444721149978
0.0982241,0.01624732637251589,0.012471762679727725,0.030830061346468537,0.004311330742286451,0.07274702464937272,0.01922272337273051,0.06185909258249628,0.01613254710087036
0.0986897,0.01625107078002805,0.012443765058422046,0.030318399089741304,0.004311462656015291,0.07190062580536409,0.019104131882162343,0.061176533851772304,0.016035842828968055
0.0991552,0.01625755472735769,0.01241551007973785,0.029812658699227355,0.0043125325289964074,0.07106743513053143,0.0189849966806665,0.06050074779053095,0.015938356329558655
0.0996207,0.016266792240270007,0.012387002294367068,0.029312914602197898,0.004314542313946642,0.07024775541774424,0.01886535699707119,0.05983198919947077,0.015840111950724753
0.1000862,0.016278796701765814,0.012358246096098494,0.028819239592979187,0.004317493705956327,0.06944188367647057,0.018745251966338503,0.05917050841196733,0.01574113396035903
0.1005517,0.016293580848170446,0.01232924572390707,0.02833170482125674,0.004321388142291661,0.06865011107283817,0.018624720621167302,0.05851655125523127,0.01564144654206929
0.1010172,0.016311156765380388,0.01230000526414104,0.027850379780832955,0.004326226802265106,0.06787272287139628,0.018503801883627175,0.05787035901288247,0.015541073791146366
0.1014828,0.016331535885268974,0.012270528652804596,0.02737533229883718,0.0043320106071738,0.06710999837858454,0.018382534556824297,0.057232168388938624,0.015440039710595816
0.1019483,0.016354728982252497,0.01224081967793359,0.02690662852538719,0.004338740220305952,0.06636221088791457,0.01826095731660012,0.05660221147321581,0.015338368207234202
0.1024138,0.016380746170017925,0.01221088198206168,0.02644433292370121,0.00434641604701517,0.06562962762686993,0.018139108703263702,0.055980715708138555,0.015236083087850669
0.1028793,0.016409596898413287,0.012180719064774331,0.02598850826065946,0.0043550382348626245,0.06491250970552957,0.018017027113358685,0.05536790385695616,0.015133208055434418
0.1033448,0.016441289950501682,0.012150334285347862,0.02553921559781416,0.00436460667382695,0.06421111206691964,0.01789475079146602,0.054763993973361784,0.015029766705468536
0.1038103,0.01647583343977972,0.012119730865470722,0.025096514282846708,0.004375120996581736,0.06352568343909824,0.01777231782204375,0.05416919937251022,0.014925782522290567
0.1042759,0.016513234807561106,0.01208891189204406,0.024660461941470643,0.004386580578840428,0.06285646628897762,0.017649766121305376,0.05358372860343011,0.014821278875520138
0.1047414,0.016553500820525945,0.012057880320058577,0.024231114469778634,0.0043989845397684356,0.062203696777887445,0.017527133429138395,0.05300778542282557,0.014716279016553785
0.1052069,0.01659663756843618,0.012026638975544617,0.02380852602703175,0.004412331742462236,0.061567604718883055,0.017404457301064682,0.05244156877026198,0.014610806075127072
0.1056724,0.016642650462017617,0.011995190558592404,0.02339274902888883,0.004426620794495214,0.06094841353580168,0.01728177510024447,0.051885272744730336,0.014504883055943937
0.1061379,0.01669154423100873,0.011963537646439346,0.022983834141073713,0.004441850048529967,0.06034634022406963,0.01715912398952562,0.05133908658258421,0.014398532835373198
0.1066034,0.01674332292237654,0.011931682696621324,0.022581830273477925,0.004458017602996814,0.059761595313262854,0.0170365409235398,0.050803194636843296,0.014291778158212089
0.107069,0.01679798989869975,0.011899628050184838,0.022186784574696274,0.004475121302838194,0.059194382831423,0.016914062640847213,0.05027777635785729,0.014184641634516628
0.1075345,0.016855547836719265,0.011867375934956853,0.021798742426992715,0.004493158740318702,0.05864490027113049,0.016791725656131302,0.0497630062753239,0.01407714573649859
0.108,0.016915998726056283,0.011834928468869152,0.021417747441693787,0.004512127255900447,0.05811333855733624,0.0166695662524449,0.049259053981654824,0.013969312795488851
0.1084655,0.016979343868098074,0.011802287663333882,0.02104384145500684,0.004532023939183467,0.05759988201695267,0.016547620473509158,0.04876608411668329,0.013861164998966833
0.108931,0.01704558387505168,0.01176945542666698,0.02067706452426026,0.00455284562991089,0.05710470835020452,0.01642592411606657,0.04828425635370675,0.013752724387655839
0.1093966,0.017114718669165724,0.011736433567556026,0.020317454924562876,0.004574588919038566,0.05662798860373926,0.01630451272228925,0.04781372538685838,0.013644012852684092
0.1098621,0.01718674748212064,0.011703223798569133,0.019965049145879644,0.004597250149868895,0.0561698871454968,0.016183421572243645,0.04735464091980072,0.013535052132811386
0.1103276,0.01726166885458767,0.011669827739701348,0.019619881890520722,0.004620825419248588,0.05573056164133737,0.016062685676412797,0.046907147655734636,0.013425863811721195
0.1107931,0.017339480635956948,0.01163624692195512,0.01928198607104098,0.004645310578830109,0.05531016303342625,0.01594233976827708,0.04647138528871674,0.013316469315378098
0.1112586,0.01742017998423508,0.011602482790951385,0.018951392808547077,0.004670701236396571,0.054908835520373435,0.015822418296954428,0.04604748849627798,0.013206889909450296
0.1117241,0.017503763366112576,0.011568536710567826,0.018628131431409088,0.0046969927572498744,0.054526716539126045,0.015702955419900914,0.04563558693333636,0.013097146696796966
0.1121897,0.017590226557201535,0.011534409966600948,0.01831222947437376,0.00472418026566188,0.054163936748610836,0.015583984995672675,0.045235805227396335,0.012987260615020058
0.1126552,0.017679564642443957,0.011500103770448635,0.018003712678076423,0.004752258646388416,0.05382062001512392,0.015465540576750078,0.0448482629750273,0.012877252434080102
0.1131207,0.017771772016691,0.01146561926280986,0.01770260498894869,0.004781222546245966,0.05349688339946435,0.015347655402425296,0.04447307473961341,0.012767142753975507
0.1135862,0.017866842385453472,0.011430957517398258,0.017408928559518956,0.004811066375750858,0.053192837145808206,0.015230362391754392,0.044110350050366585,0.012656952002484729
0.1140517,0.01796476876582378,0.011396119544666225,0.017122703749102845,0.004841784310820786,0.05290858467231973,0.015113694136575187,0.04376019340259429,0.012546700432970665
0.1145172,0.01806554348756952,0.011361106295536189,0.01684394912488064,0.0048733702945384745,0.05264422256349569,0.014997682894592175,0.043422704259213324,0.012436408122246573
0.1149828,0.01816915819439875,0.01132591866513556,0.016572681463358822,0.004905818038977255,0.05239984056423923,0.014882360582529744,0.04309797705350063,0.01232609496850277
0.1154483,0.018275603845396844,0.011290557496531874,0.016308915752212806,0.004939121027088308,0.05217552157565939,0.014767758769355176,0.04278610119307193,0.012215780689293413
0.1159138,0.018384870716634805,0.01125502358446448,0.01605266519250804,0.004973272514649292,0.05197134165259241,0.014653908669572948,0.04248716106507895,0.012105484819582565
0.1163793,0.018496948402948625,0.011219317679069153,0.015803941201296714,0.005008265532274068,0.051787370002841,0.014540841136592066,0.04220123604261595,0.011995226709848776
0.1168448,0.018611825819889325,0.011183440489591913,0.015562753414587323,0.0050440928874831955,0.05162366898812773,0.0144285866561682,0.04192840049232646,0.011885025524247285
0.1173103,0.018729491205843083,0.011147392688088262,0.015329109690684607,0.0050807471668348645,0.05148029412675875,0.014317175339922465,0.0416687237832012,0.011774900238828923
0.1177759,0.01884993212432073,0.011111174913104031,0.015103016113897338,0.00511822073811593,0.05135729409799401,0.014206636918938673,0.04142227029655782,0.011664869639814746
0.1182414,0.018973135466415884,0.011074787773333953,0.014884476998611718,0.0051565057525926605,0.0512547107481202,0.014097000737440862,0.041189099437193434,0.011554952321925289
0.1187069,0.019099087453430846,0.011038231851253954,0.01467349489372826,0.005195594147320794,0.051172579098222634,0.013988295746552928,0.04096926564570103,0.011445166686763415
0.1191724,0.01922777363966935,0.011001507706723134,0.014470070587460153,0.005235477647514456,0.051110927353652115,0.01388055049814226,0.04076281841194079,0.011335530941249646
0.1196379,0.019359178915395066,0.010964615880551276,0.014274203112491344,0.005276147768973448,0.05106977691518267,0.013773793138749178,0.04056980228965775,0.011226063096108867
0.1201034,0.019493287509954754,0.01092755689802766,0.01408588975149264,0.005317595820568377,0.051049142391856046,0.013668051403604057,0.040390256912237105,0.011116780964407331
0.120569,0.019630082995064736,0.010890331272406876,0.013905126042994277,0.005359812906783039,0.05104903161550871,0.013563352610734035,0.04022421700958843,0.011007702160138782
0.1210345,0.0197695482882594,0.010852939508347271,0.013731905787613453,0.005402789930313457,0.051069445656976964,0.013459723655161186,0.0400717124261501,0.010898844096858538
0.1215,0.01991166565650029,0.010815382105297602,0.013566221054635378,0.005446517594722904,0.05111037884397572,0.013357191003194106,0.03993276814000513,0.010790223986364294
0.1219655,0.020056416719944296,0.010777659560827456,0.013408062188946378,0.005490986407152243,0.05117181878064614,0.013255780686814945,0.03980740428309953,0.010681858837422318
0.122431,0.02020378245586944,0.01073977237389696,0.013257417818317607,0.005536186681084871,0.05125374636876728,0.013155518298163943,0.03969563616255432,0.010573765454537688
0.1228966,0.02035374320275656,0.010701721048061382,0.013114274861037833,0.005582108539165541,0.05135613583062657,0.013056428984123717,0.03959747428306244,0.010465960436767178
0.1233621,0.02050627866452519,0.010663506094606269,0.012978618533893744,0.005628741916072303,0.05147895473354348,0.0129585374410056,0.03951292437036158,0.010358460176573322
0.1238276,0.020661367914921732,0.010625128035608972,0.012850432360496126,0.005676076561440789,0.051622164016040646,0.012861867909340347,0.039441987395774224,0.010251280858718232
0.1242931,0.02081898940205802,0.010586587406922561,0.01272969817995016,0.005724102042840067,0.051785718015656124,0.012766444168775511,0.03938465960180654,0.01014443845919579
0.1247586,0.020979120953098444,0.010547884761078397,0.012616396155867987,0.005772807748799247,0.05196956449839008,0.012672289533081735,0.03934093252879785,0.010037948744200918
0.1252241,0.021141739779093782,0.010509020670103975,0.012510504785721613,0.005822182891884048,0.052173644689778774,0.012579426845270088,0.039310793042612716,0.009931827269134767
0.1256897,0.021306822479960075,0.010469995728252931,0.012412000910534175,0.005872216511822455,0.05239789330758825,0.012487878472822582,0.03929422336336784,0.009826089377644802
0.1261552,0.021474345049601107,0.010430810554644444,0.012320859724907497,0.005922897478678626,0.05264223859611986,0.012397666303037808,0.03929120109518597,0.009720750200698848
0.1266207,0.02164428288117311,0.010391465795809598,0.01223705478738378,0.0059742144960741195,0.05290660236211952,0.012308811738493694,0.039301699256968935,0.009615824655692246
0.1270862,0.021816610772490592,0.010351962128142564,0.012160558031139291,0.006026156104455505,0.05319090001228207,0.012221335692629282,0.03932568631418167,0.009511327445587263
0.1275517,0.021991302931572254,0.010312300260254589,0.01209133977500779,0.006078710684407385,0.05349504059234229,0.012135258585447454,0.03936312621163908,0.009407273058083922
0.1280172,0.022168332982326067,0.010272480935228973,0.012029368734831479,0.006131866460009783,0.053818926827743675,0.012050600339340502,0.03941397840728714,0.009303675764821382
0.1284828,0.022347673970372586,0.01023250493277525,0.011974612035137127,0.006185611502238896,0.054162455165876346,0.011967380375040481,0.03947819790696961,0.009200549620609046
0.1289483,0.022529298369005524,0.010192373071280875,0.01192703522113503,0.006239933732410125,0.05452551581987493,0.01188561760769624,0.03955573530017159,0.009097908462686604
0.1294138,0.022713178085288617,0.01015208620975892,0.011886602271038396,0.006294820925662289,0.05490799281396768,0.011805330443079015,0.039646536796730934,0.008995765910012323
0.1298793,0.02289928446628753,0.010111645249690522,0.011853275608700663,0.006350260714481903,0.055309764030367733,0.011726536773918377,0.039750544264508636,0.008894135362578999
0.1303448,0.02308758830543565,0.01007105113676121,0.011827016116568244,0.006406240592266401,0.055730701257697454,0.0116492539763703,0.03986769526800891,0.008793030000757162
0.1308103,0.02327805984903246,0.010030304862490678,0.011807783148946193,0.006462747916925126,0.05617067024093674,0.011573498906619068,0.03999792310793978,0.008692462784665306
0.1312759,0.023470668802873018,0.009989407465756153,0.011795534545574169,0.006519769914516965,0.056629530732886235,0.011499287897614542,0.04014115686170467,0.008592446453567104
0.1317414,0.02366538433900721,0.00994836003420994,0.011790226645510082,0.006577293682923477,0.05710713654713622,0.011426636755946417,0.04029732142481536,0.008492993525295736
0.1322069,0.023862175102626948,0.009907163705592366,0.011791814301318666,0.006635306195556362,0.05760333561253217,0.011355560758856869,0.04046633755321634,0.008394116295705639
0.1326724,0.024061009219079763,0.00986581966894176,0.011800250893562167,0.0066937943050981285,0.058117970029127816,0.011286074651393025,0.04064812190651053,0.008295826838152076
0.1331379,0.02426185430100669,0.009824329165703461,0.011815488345590259,0.006752744747274778,0.05865087612561687,0.011218192643700655,0.040842587092075965,0.00819813700299911
0.1336034,0.024464677455602567,0.009782693490740069,0.011837477138626169,0.006812144144659304,0.05920188451823435,0.011151928408460384,0.041049641710062874,0.008101058417156618
0.134069,0.024669445291996533,0.009740913993245233,0.011866166327145948,0.006871979010504773,0.059770820171118476,0.011087295078467662,0.04126919039926025,0.008004602483647006
0.1345345,0.024876123928750687,0.009698992077563291,0.011901503554547693,0.006932235752605723,0.060357502458123886,0.011024305244357742,0.04150113388382084,0.007908780381202372
0.135,0.025084679001474517,0.009656929203917001,0.011943435069107512,0.006992900677186611,0.06096174522607707,0.010962970952476822,0.04174536902083329,0.007813603063892761
0.1354655,0.02529507567055277,0.009614726889045576,0.011991905740219022,0.007053959992816054,0.061583356859464575,0.010903303702900395,0.04200178884873001,0.007719081260786203
0.135931,0.02550727862898411,0.009572386706755176,0.012046859074913116,0.007115399814345602,0.06222214034654445,0.010845314447599834,0.0422702826365195,0.007625225475641145
0.1363966,0.02572125211032785,0.009529910288384024,0.012108237234654717,0.0071772061668718395,0.06287789334687137,0.010789013588758169,0.042550735933832025,0.007532045986631847
0.1368621,0.025936959896755693,0.00948729932318426,0.012175981052413257,0.0072393649897205805,0.06355040826022541,0.010734410977236005,0.04284303062176768,0.007439552846107274
0.1373276,0.02615436532720535,0.009444555558622674,0.01225003005000351,0.007301862140452004,0.0642394722969344,0.010681515911188526,0.043147044964536564,0.007347755880383948
0.1377931,0.02637343130563267,0.00940168080060245,0.012330322455693474,0.007364683398885576,0.06494486754957945,0.010630337134834507,0.04346265366188086,0.007256664689573251
0.1382586,0.026594120309358687,0.00935867691360801,0.012416795222075996,0.0074278144711436254,0.06566637106607295,0.010580882837378269,0.04378972790226916,0.007166288647443604
0.1387241,0.026816394397507767,0.009315545820775085,0.012509384044200758,0.007491240993712523,0.06640375492409772,0.010533160652085463,0.044128135416853606,0.007076636901317947
0.1391897,0.027040215219532995,0.009272289503888042,0.012608023377963214,0.007554948537520389,0.06715678630689625,0.010487177655513557,0.04447774053418043,0.006987718372006931
0.1396552,0.027265544023824792,0.00922891000330655,0.012712646458747008,0.007618922612030325,0.06792522758039758,0.010442940366897894,0.0448384042356448,0.0068995417537782025
0.1401207,0.02749234166639885,0.00918540941782358,0.012823185320316283,0.007683148669348204,0.06870883637166958,0.010400454747694115,0.04520998421168051,0.0068121155143622165
0.1405862,0.027720568619659554,0.009141789904456814,0.0129395708139542,0.007747612108344035,0.06950736564868354,0.010359726201277744,0.0455923349186751,0.006725447894994906
0.1410517,0.027950184981235245,0.009098053678175415,0.013061732627843927,0.0078122982787859575,0.07032056380137738,0.010320759572801628,0.04598530763660053,0.006639546910497644
0.1415172,0.028181150482881973,0.009054203011564184,0.013189599306688178,0.007877192485485894,0.07114817472400348,0.010283559149211903,0.04638875052734927,0.006554420349394863
0.1419828,0.028413424499452757,0.009010240234427026,0.013323098271563335,0.00794227999245587,0.07198993789874612,0.010248128659423062,0.04680250869376538,0.006470075774069711
0.1424483,0.02864696605792974,0.008966167733331634,0.013462155840004061,0.008007546027073946,0.07284558848059361,0.01021447127465262,0.047226424239359834,0.006386520520958098
0.1429138,0.028881733846516853,0.008921987951097297,0.013606697246314223,0.008072975784258748,0.07371485738344896,0.010182589608915778,0.047660336328698975,0.006303761700781487
0.1433793,0.029117686223790996,0.00887770338622766,0.013756646662099829,0.008138554430651411,0.07459747136746331,0.010152485719680419,0.04810408124845496,0.006221806198818699
0.1438448,0.029354781227909802,0.008833316592290271,0.013911927217019676,0.008204267108803863,0.07549315312757517,0.010124161108682674,0.04855749246910676,0.006140660675217034
0.1443103,0.02959297658587406,0.008788830177244729,0.014072461019749342,0.008270098941372211,0.07640162138323851,0.010097616722903232,0.0490204007072801,0.006060331565342888
0.1447759,0.02983222972284285,0.00874424680272119,0.014238169179154185,0.008336035035314037,0.0773225909693221,0.010072852955704524,0.04949263398871422,0.00598082508017209
0.1452414,0.030072497771499326,0.008699569183251004,0.014408971825667007,0.008402060486088284,0.078255772928162,0.010049869648128838,0.049974017711843344,0.005902147206720105
0.1457069,0.030313737581465088,0.008654800085451128,0.014584788132866077,0.008468160381856433,0.07920087460274836,0.010028666090357442,0.05046437471198051,0.005824303708512232
0.1461724,0.030555905728760904,0.00860994232716404,0.01476553633924912,0.008534319807683611,0.08015759973102733,0.010009241023330746,0.050963525326091115,0.005747300126093885
0.1466379,0.03079895852531139,0.008564998776554708,0.014951133770198894,0.008600523849738266,0.08112564854129814,0.00999159264052952,0.0514712874581437,0.005671141777581066
0.1471034,0.031042852028491247,0.00851997235116625,0.015141496860135871,0.008666757599488966,0.0821047178486846,0.009975718589917183,0.05198747664502519,0.005595833759251035
0.147569,0.03128754205071045,0.008474866016935858,0.015336541174853427,0.008733006157896869,0.0830945011526603,0.00996161597604308,0.05251190612300796,0.005521380946173212
0.1480345,0.03153298416903578,0.00842968278717266,0.015536181434030974,0.008799254639602355,0.08409468873560517,0.00994928136230669,0.053044386894755644,0.005447787992880294
0.1485,0.03177913373484597,0.008384425721499162,0.015740331533920304,0.00886548817710423,0.08510496776237139,0.009938710773382578,0.05358472779685417,0.0053750593340795745
0.1489655,0.03202594588351797,0.008339097924758053,0.01594890457020035,0.00893169192492988,0.08612502238083507,0.009929899697805906,0.05413273556785425,0.00530319918540442
0.149431,0.03227337554414186,0.008293702545886145,0.01616181286099565,0.00899785106379467,0.0871545338234101,0.009922843090718279,0.0546882149168111,0.0052322115442058545
0.1498966,0.0325213774492627,0.008248242776757269,0.016378967970053705,0.009063950804748835,0.08819318050949938,0.009917535376773647,0.055250968592306576,0.005162100190384154
0.1503621,0.03276990614464798,0.008202721850996008,0.0166002807300764,0.00912997639331003,0.08924063814885831,0.009913970453203965,0.055820797451938735,0.005092868687260316
0.1508276,0.03301891599908013,0.008157143042764117,0.01682566126620095,0.009195913113579724,0.09029657984584426,0.009912141693044314,0.05639750053226344,0.005024520382487261
0.1512931,0.03326836121417408,0.008111509665521514,0.017055019019625667,0.00926174629234151,0.09136067620452532,0.009912041948517079,0.05698087511917209,0.004957058409000624
0.1517586,0.03351819583422035,0.008065825070763677,0.017288262771376284,0.009327461303139481,0.09243259543462096,0.009913663554574811,0.05757071681868933,0.0048904856860089805
0.1522241,0.0337683737560542,0.008020092646737318,0.017525300666208495,0.009393043570334861,0.0935120034582458,0.009916998332601267,0.058166819628174285,0.004824804920023375
0.1526897,0.03401884873895141,0.007974315817136129,0.01776604023664273,0.00945847857313917,0.09459856401742783,0.009922037594270114,0.05876897600790816,0.004760018605926001
0.1531552,0.03426957441455136,0.007928498039778393,0.018010388427127225,0.009523751849622354,0.09569193878237103,0.00992877214556068,0.05937697695305083,0.004696129028077892
0.1536207,0.034520504296807794,0.007882642805268245,0.018258251618325585,0.009588849000694469,0.09679178746043182,0.00993719229093008,0.0599906120659485,0.004633138261465441
0.1540862,0.034771591791967676,0.007836753635642294,0.01850953565152513,0.009653755694059596,0.09789776790577762,0.009947287837640928,0.06060966962877433,0.00457104817288555
0.1545517,0.03502279020857851,0.007790834083003297,0.01876414585316234,0.009718457668140881,0.09900953622969584,0.009959048100243815,0.061233936676483504,0.00450986042216918
0.1550172,0.03527405276752435,0.007744887728142502,0.01902198705946171,0.009782940735975576,0.10012674691152,0.009972461905213616,0.061863199070064295,0.0044495764634430255
0.1554828,0.03552533261209048,0.007698918179152205,0.019282963641184314,0.009847190789079089,0.10124905291013965,0.009987517595738658,0.062497241570066066,0.004390197546429023
0.1559483,0.03577658281805679,0.007652929070030019,0.019546979528482333,0.009911193801277049,0.1023761057760603,0.010004203036661682,0.06313584791038533,0.00433172471778135
0.1564138,0.03602775640381963,0.007606924059276281,0.019813938235855807,0.009974935832504438,0.10350755576397878,0.010022505619571485,0.06377880087229038,0.0042741588224605494
0.1568793,0.03627880634054201,0.0075609068284859535,0.0200837428872077,0.010038403032570843,0.10464305194583938,0.01004241226804402,0.06442588235866456,0.004217500505144352
0.1573448,0.036529685562331785,0.0075148810809363455,0.02035629624099348,0.01010158164489087,0.10578224232433547,0.010063909443031711,0.06507687346844812,0.004161750211674777
0.1578103,0.03678034697644795,0.007468850540171875,0.02063150071546119,0.010164458010178713,0.10692477394682147,0.010086983148399661,0.06573155457125782,0.0041069081905410415
0.1582759,0.037030743473534966,0.007422818948587102,0.020909258413977994,0.010227018570105861,0.10807029301959935,0.010111618936607294,0.06638970538216311,0.004052974494397773
0.1587414,0.03728082793788545,0.0073767900660091585,0.02118947115043903,0.010289249870920877,0.10921844502254342,0.01013780191453398,0.06705110503659745,0.003999948981618041
0.1592069,0.03753055325773138,0.007330767668280657,0.02147204047475428,0.010351138567030096,0.11036887482402745,0.010165516749447039,0.06771553216538236,0.003947831317880686
0.1596724,0.03777987233556414,0.007284755545844129,0.021756867698409014,0.010412671424538096,0.11152122679611727,0.010194747675110466,0.06838276496984187,0.0038966209777914307
0.1601379,0.03802873809848362,0.007238757502328974,0.022043853920093268,0.010473835324746784,0.11267514492999228,0.010225478498032679,0.06905258129698381,0.003846317246537251
0.1606034,0.03827710350857641,0.00719277735314185,0.02233290005139564,0.010534617267611901,0.11383027295155822,0.010257692603851436,0.06972475871472428,0.003796919221573449
0.161069,0.03852492157332289,0.007146818924061417,0.022623906842556628,0.010595004375155809,0.11498625443721354,0.010291372963854102,0.07039907458713099,0.0037484258143428806
0.1615345,0.03877214535603316,0.007100886049838317,0.022916774908276455,0.010654983894835443,0.11614273292973144,0.010326502141631317,0.07107530614966066,0.0037008357520267403
0.162,0.039018727986311015,0.007054982572801225,0.023211404753572418,0.01071454320286431,0.11729935205421857,0.010363062299862062,0.07175323058436478,0.0036541475793263026
0.1624655,0.03926462267054527,0.007009112341469815,0.023507696799680476,0.010773669807487422,0.11845575563411155,0.010401035207228081,0.07243262509503795,0.0036083596602749742
0.162931,0.03950978270242764,0.006963279209175456,0.023805551409995785,0.010832351352208048,0.11961158780717138,0.01044040224545552,0.07311326698228231,0.003563470180080013
0.1633966,0.039754161473495635,0.006917487032690471,0.02410486891604661,0.010890575618965096,0.12076649314143569,0.010481144416481522,0.07379493371846098,0.003519477146993231
0.1638621,0.0399977124836993,0.006871739670866764,0.02440554964349605,0.010948330531259954,0.12192011675108759,0.010523242349743498,0.07447740302251342,0.003476378394210003
0.1643276,0.04024038935198991,0.006826040983284635,0.024707493938165827,0.0110056041572317,0.12307210441219973,0.010566676309588666,0.07516045293460463,0.003434171581795881
0.1647931,0.04048214582692887,0.006780394828912563,0.02501060219207634,0.011062384712679596,0.12422210267831033,0.010611426202801389,0.07584386189058055,0.0033928541986400886
0.1652586,0.04072293579731475,0.006734805064778729,0.025314774869497007,0.011118660564031985,0.12536975899578792,0.010657471586245729,0.07652740879620087,0.0033524235644351837
0.1657241,0.04096271330282632,0.006689275544655041,0.02561991253300084,0.011174420231260834,0.12651472181894027,0.010704791674620578,0.0772108731011207,0.003312876831682138
0.1661897,0.041201432544679326,0.006643810117754388,0.025925915869516987,0.011229652390741323,0.12765664072482175,0.010753365348324601,0.07789403487259197,0.0032742109877200785
0.1666552,0.04143904789629464,0.006598412627441857,0.02623268571637487,0.011284345878056035,0.12879516652769332,0.01080317116142819,0.07857667486885557,0.0032364228567799413
0.1671207,0.041675513913975136,0.006553086909960614,0.02654012308733334,0.01133848969074339,0.12992995139308827,0.010854187349749567,0.0792585746121948,0.00319950910206128
0.1675862,0.0419107853475888,0.006507836793173176,0.026848129198587988,0.011392072990990012,0.13106064895143657,0.010906391839032062,0.079939516461621,0.0031634662278314726
0.1680517,0.04214481715125548,0.006462666095318729,0.027156605494749787,0.011445085108266837,0.13218691441120056,0.010959762253219643,0.08061928368516212,0.0031282905815465715
0.1685172,0.042377564494035014,0.006417578623787159,0.02746545367478776,0.01149751554190873,0.13330840467147426,0.011014275922827704,0.08129766053172521,0.0030939783559930595
0.1689828,0.042608982770614486,0.006372578173910397,0.02777457571792839,0.011549353963637498,0.13442477843399886,0.011069909893406145,0.081974432302504,0.003060525591449765
0.1694483,0.0428390276119928,0.00632766852777168,0.02808387390950408,0.011600590220028224,0.1355356963145467,0.011126640934091776,0.08264938542190295,0.003027928177869188
0.1699138,0.04306765489616085,0.006282853453033291,0.028393250866742954,0.011651214334918858,0.13664082095362604,0.011184445546247087,0.08332230750794922,0.002996181857077486
0.1703793,0.04329482075877563,0.006238136701783325,0.028702609564491978,0.011701216511763101,0.13773981712645772,0.01124329997218246,0.08399298744216416,0.002965282224992374
0.1708448,0.043520481603826634,0.006193522009402019,0.029011853360865127,0.011750587135926542,0.13883235185217507,0.011303180203958806,0.08466121543886627,0.0029352247338581996
0.1713103,0.04374459411429286,0.006149013093448149,0.029320886022808124,0.011799316776926033,0.1399180945021971,0.011364061992267666,0.08532678311387737,0.0029060046944974554
0.1717759,0.043967115262788625,0.00610461365256596,0.029629611751571135,0.011847396190612182,0.14099671690772514,0.01142592085538574,0.08598948355260379,0.002877617278578049
0.1722414,0.04418800232219625,0.006060327365413059,0.029937935208080496,0.011894816321294816,0.14206789346631252,0.01148873208820075,0.08664911137746467,0.002850057520895665
0.1727069,0.04440721287628341,0.00601615788960967,0.030245761538200445,0.011941568303811144,0.1431313012474576,0.01155247077130541,0.08730546281463895,0.0028233203216705984
0.1731724,0.04462470483030289,0.00597210886070961,0.03055299639787561,0.011987643465536301,0.14418662009717023,0.011617111780156295,0.08795833576010309,0.0027974004488584454
0.1736379,0.04484043642157218,0.005928183891193288,0.030859545978144845,0.01203303332833588,0.1452335327414621,0.011682629794294212,0.08860752984493113,0.0027722925404740804
0.1741034,0.04505436623002989,0.005884386569482987,0.031165317030016865,0.012077729610459947,0.1462717248887115,0.0117489993066227,0.08925284649982924,0.0027479911069283203
0.174569,0.04526645318876586,0.005840720458980645,0.03147021688919797,0.01212172422837809,0.1473008853308535,0.011816194632741141,0.08989408901887647,0.002724490533376688
0.1750345,0.04547665659452122,0.005797189097128292,0.031774153500661956,0.012165009298554888,0.14832070604334646,0.011884189920328933,0.09053106262244309,0.0027017850820796915
0.1755,0.04568493611815456,0.005753795994491261,0.032077035443052244,0.01220757713916523,0.14933088228386548,0.01195295915857711,0.09116357451925843,0.0026798688947740168
0.1759655,0.045891251815069756,0.005710544633864244,0.032378771952905935,0.012249420271748853,0.1503311126896743,0.0120224761876638,0.091791433967599,0.0026587359950540324
0.176431,0.04609556413560103,0.005667438469400217,0.03267927294868953,0.012290531422803484,0.15132109937362603,0.012092714708269801,0.09241445233556808,0.0026383802907630166
0.1768966,0.04629783393535009,0.005624480925762258,0.03297844905463592,0.012330903525315927,0.15230054801874346,0.012163648291130678,0.09303244316043661,0.0026187955763935043
0.1773621,0.04649802248547056,0.005581675397298233,0.03327621162437199,0.012370529720230426,0.15326916797132908,0.01223525038662175,0.09364522220701606,0.002599975535496149
0.1778276,0.046696091482894435,0.005539025247238336,0.033572472764326185,0.012409403357853566,0.15422667233255488,0.012307494334372369,0.09425260752503271,0.0025819137430965057
0.1782931,0.04689200306049553,0.00549653380691544,0.03386714535690534,0.012447517999195051,0.15517277804848134,0.012380353372905967,0.09485441950547309,0.0025646036681191246
0.1787586,0.04708571979718459,0.0054542043750082005,0.034160143083430135,0.01248486741724363,0.15610720599845362,0.012453800649302347,0.09545048093586975,0.002548038675818368
0.1792241,0.04727720472793095,0.005412040216806821,0.03445138044681836,0.01252144559817756,0.15702968108182325,0.012527809228878806,0.09604061705449653,0.0025322120302153513
0.1796897,0.047466421353705435,0.005370044563501358,0.03474077279400536,0.012557246742508972,0.15793993230294137,0.012602352104886628,0.09662465560344155,0.0025171168965404276
0.1801552,0.047653333651338885,0.005328220611492423,0.035028236338091226,0.012592265266161569,0.15883769285437035,0.012677402208219621,0.09720242688052637,0.0025027463436806383
0.1806207,0.047837906083290575,0.005286571521724106,0.035313688180204306,0.01262649580148119,0.1597227001982605,0.012752932417131265,0.09777376379003844,0.0024890933466315593
0.1810862,0.04802010360732046,0.005245100419038903,0.035597046331070935,0.012659933198178805,0.16059469614583985,0.01282891556695704,0.09833850189224372,0.0024761507889529853
0.1815517,0.04819989168605891,0.005203810391554422,0.03587822973228144,0.012692572524205616,0.1614534269349694,0.01290532445983849,0.09889647945164597,0.002463911465227892
0.1820172,0.04837723629646732,0.005162704490061603,0.036157158277242876,0.012724409066559994,0.16229864330571991,0.012982131874445448,0.09944753748395826,0.0024523680835241
0.1824828,0.04855210393918261,0.005121785727444173,0.036433752831809205,0.012755438332026185,0.16313010057393476,0.01305931057569284,0.09999151980175232,0.002441513267858047
0.1829483,0.048724461647738596,0.005081057078119063,0.03670793525458013,0.012785656047844726,0.1639475587027484,0.013136833324448325,0.10052827305875059,0.00243133956066006
0.1834138,0.04889427699765641,0.005040521477497493,0.03697962841686026,0.01281505816231478,0.1647507823720374,0.013214672887227106,0.10105764679272751,0.002421839425240499
0.1838793,0.04906151811539635,0.005000181821466432,0.03724875622227068,0.01284364084532858,0.16553954104578458,0.013292802045870083,0.10157949346698679,0.002413005248256132
0.1843448,0.04922615368716265,0.0049600409658901385,0.03751524362600555,0.012871400488838359,0.1663136090373406,0.013371193607201518,0.10209366851038314,0.0024048293421760664
0.1848103,0.04938815296755255,0.004920101726131471,0.0377790166537268,0.012898333707256316,0.16707276557256984,0.013449820412662381,0.1026000303558594,0.002397303947746567
0.1852759,0.049547485788040704,0.004880366876592637,0.03804000242009045,0.012924437337788164,0.16781679485086756,0.013528655347915461,0.10309844047747221,0.00239042123645407
0.1857414,0.04970412256528978,0.004840839150275033,0.038298129146898355,0.012949708440700996,0.16854548610403675,0.013607671352418308,0.10358876342588219,0.002384173312985692
0.1862069,0.049858034309277995,0.0048015212383578035,0.03855332618086973,0.012974144299526189,0.1692586336530113,0.013686841428960072,0.10407086686228792,0.0023785522176865137
0.1866724,0.05000919263123442,0.004762415789794706,0.03880552401102679,0.01299774242119815,0.16995603696241296,0.013766138653158304,0.10454462159078594,0.0023735499290129356
0.1871379,0.050157569751372824,0.004723525410928859,0.03905465428568904,0.013020500536129716,0.17063750069292705,0.01384553618291184,0.10500990158914277,0.00236915836598137
0.1876034,0.0503031385064151,0.004684852665124889,0.039300649829070666,0.013042416598224988,0.17130283475148306,0.013925007267805992,0.10546658403796814,0.002365369390611582
0.188069,0.0504458723568955,0.004646400072417976,0.03954344465747537,0.013063488784830398,0.17195185433922522,0.014004525258466323,0.10591454934828211,0.002362174810363982
0.1885345,0.05058574539423714,0.004608170109179264,0.03978297399508288,0.013083715496624699,0.17258437999725965,0.014084063615857434,0.10635368118747171,0.0023595663805702017
0.189,0.05072273234759303,0.0045701652077970775,0.04001917428932103,0.013103095357448578,0.17320023765016476,0.014163595920523235,0.1067838665036357,0.002357535806856331
0.1894655,0.05085680859044424,0.004532387756373411,0.04025198322581693,0.013121627214074569,0.17379925864725357,0.014243095881765235,0.10720499554831793,0.0023560747475581943
0.189931,0.050987950146948784,0.004494840098435138,0.04048133974292096,0.01313931013591779,0.17438127980157755,0.014322537346755395,0.10761696189763245,0.002355174816128098
0.1903966,0.051116133698035755,0.004457524532659454,0.040707184045796575,0.013156143414688045,0.17494614342666337,0.014401894309580112,0.10801966247178353,0.002354827583532486
0.1908621,0.051241336587240054,0.004420443312613071,0.040929457620069366,0.013172126563983727,0.1754936973709755,0.014481140920211777,0.10841299755298527,0.0023550245806399656
0.1913276,0.0513635368262743,0.004383598646504759,0.04114810324502826,0.01318725931882793,0.1760237950500988,0.014560251493404407,0.10879687080178464,0.002355757300599172
0.1917931,0.051482713100335385,0.004346992696950888,0.04136306500637202,0.013201541635147139,0.17653629547663682,0.014639200517509714,0.1091711892717918,0.0023570172012059376
0.1922586,0.051598844773144026,0.004310627580753678,0.041574288308493794,0.013214973689192807,0.17703106328782303,0.014717962663209903,0.1095358634228207,0.0023587957072592576
0.1927241,0.051711911891716714,0.004274505368691926,0.04178171988629621,0.013227555876906077,0.17750796877084296,0.014796512792163437,0.10989080713244348,0.0023610842129055446
0.1931897,0.051821895190870014,0.004238628085323992,0.04198530781652927,0.01323928881322593,0.17796688788586684,0.014874825965559899,0.11023593770596103,0.0023638740839706986
0.1936552,0.05192877609745771,0.004202997708802921,0.042185001528642886,0.013250173331340898,0.17840770228679345,0.014952877452580095,0.11057117588479348,0.002367156660279528
0.1941207,0.052032536734341495,0.004167616170703553,0.042380751815145834,0.013260210481884614,0.1788302993397074,0.015030642738757465,0.11089644585329396,0.0023709232579620793
0.1945862,0.05213315992409593,0.004132485355861567,0.04257251084146254,0.013269401532075292,0.17923457213905372,0.015108097534236834,0.11121167524399038,0.0023751651717464272
0.1950517,0.052230629192448225,0.0040976071022244,0.04276023215527919,0.013277747964799441,0.1796204195215359,0.01518521778192651,0.11151679514126107,0.0023798736772374773
0.1955172,0.05232492877145305,0.004062983200714044,0.04294387069537059,0.013285251477639976,0.17998774607774445,0.015261979665539637,0.11181174008345132,0.0023850400331813302
0.1959828,0.052416043602402256,0.004028615395101751,0.04312338279989971,0.013291913981849013,0.18033646216152663,0.01533835961752066,0.11209644806343966,0.0023906554837147503
0.1964483,0.05250395933846924,0.003994505381894662,0.0432987262141819,0.013297737601265647,0.18066648389710988,0.015414334326852696,0.11237086052766514,0.0023967112605992867
0.1969138,0.05258866234708709,0.003960654810234439,0.04346986009790661,0.013302724671179081,0.1809777331839939,0.015489880746741484,0.11263492237362815,0.0024031985854396118
0.1973793,0.05267013971205952,0.003927065281807923,0.04363674503181033,0.013306877737137476,0.18127013769962907,0.015564976102171488,0.11288858194588046,0.0024101086718856302
0.1978448,0.05274837923540333,0.003893738350769872,0.04379934302379502,0.013310199553703047,0.1815436308999008,0.015639597897329674,0.11313179103052211,0.002417432727817932
0.1983103,0.052823369438920804,0.0038606755236778065,0.043957617514487665,0.01331269308315396,0.1817981520174416,0.01571372392289239,0.11336450484822541,0.0024251619575161483
0.1987759,0.05289509956550007,0.0038278782594390118,0.04411153338223732,0.013314361494133654,0.18203364605779354,0.015787332263170754,0.1135866820458084,0.0024332875638097737
0.1992414,0.05296355958014139,0.00379534796926972,0.04426105694754747,0.013315208160248422,0.18225006379344388,0.01586040130310989,0.1137982846863819,0.002441800750211006
0.1997069,0.053028740170706926,0.003763086016666505,0.04440615597694219,0.013315236658614074,0.1824473617557568,0.015932909735137404,0.11399927823809648,0.002450692723029159
0.2001724,0.053090632748391375,0.003731093717389899,0.04454679968626599,0.013314450768352628,0.18262550222482238,0.016004836565856433,0.11418963156151712,0.0024599546934661975
0.2006379,0.05314922944791065,0.00369937233946025,0.044682958743418086,0.013312854469040071,0.18278445321724449,0.016076161122578748,0.11436931689565498,0.002469577879692969
0.2011034,0.05320452312740591,0.0036679231031658075,0.04481460527052254,0.01331045193910625,0.18292418847188582,0.016146863059693466,0.11453830984268705,0.00247955350890572
0.201569,0.053256507368059994,0.0036367471810829846,0.044941712845537087,0.013307247554187926,0.18304468743358926,0.016216922364867114,0.11469658935139605,0.002489872819362537
0.2020345,0.053305176473424004,0.003605845698108749,0.045064256503304014,0.013303245885436073,0.18314593523489242,0.016286319365071134,0.11484413769936352,0.0025005270623994005
0.2025,0.053350525468451954,0.0035752197315050533,0.04518221273604719,0.013298451697778364,0.18322792267575222,0.016355034732433178,0.11498094047395001,0.0025115075044256203
0.2029655,0.05339255009824206,0.003544870310955189,0.04529555949331979,0.013292869948137793,0.1832906462012963,0.016423049489908987,0.11510698655209636,0.002522805428898495
0.203431,0.05343124682648429,0.003514798418631929,0.04540427618140793,0.013286505783608255,0.18333410787761775,0.016490345016772066,0.11522226807898009,0.0025344121382770996
0.2038966,0.05346661283361453,0.003485004989277297,0.045508343662195645,0.013279364539587819,0.1833583153656302,0.016556903053918718,0.11532678044556006,0.002546318955955152
0.2043621,0.0534986460146764,0.003455490910293811,0.045607744251496767,0.013271451737870369,0.18336328189300036,0.016622705708986295,0.1154205222650423,0.0025585172281729425
0.2048276,0.05352734497689283,0.003426257021847025,0.045702461716859606,0.013262773084696191,0.18334902622417606,0.0166877354612829,0.1155034953482987,0.0025709983259083083
0.2052931,0.05355270903695011,0.0033973041169792165,0.045792481274850354,0.013253334468762009,0.18331557262852788,0.01675197516652697,0.1155757046782703,0.0025837536467466426
0.2057586,0.05357473821799844,0.0033686329417340864,0.04587778958782099,0.01324314195919087,0.1832629508466239,0.01681540806139542,0.11563715838338623,0.0025967746167299146
0.2062241,0.05359343324637335,0.0033402441952923483,0.04595837476016731,0.01323220180346231,0.1831911960546576,0.016878017767879214,0.11568786771002841,0.0026100526921846584
0.2066897,0.05360879554804299,0.003312138530118114,0.0460342263340825,0.013220520425303032,0.18310034882704931,0.016939788297445517,0.1157278469940732,0.002623579361528882
0.2071552,0.05362082724478751,0.003284316552116004,0.04610533528481144,0.013208104422538326,0.18299045509724263,0.0170007040550057,0.11575711363153954,0.0026373461470578304
0.2076207,0.0536295311501169,0.003256778820798946,0.04617169401541054,0.013194960564904358,0.1828615661167183,0.017060749842688707,0.11577568804837435,0.0026513446067085427
0.2080862,0.05363491076493406,0.003229525849466623,0.046233296351017805,0.01318109579182138,0.18271373841224833,0.017119910863419463,0.11578359366940492,0.002665566335803155
0.2085517,0.05363697027295065,0.0032025581053945736,0.046290137532637575,0.01316651721012779,0.18254703374141387,0.017178172724302106,0.115780856886489,0.0026800029687709297
0.2090172,0.053635714535862786,0.0031758760100339496,0.04634221421044428,0.013151232091774963,0.18236151904641182,0.01723552143980786,0.11576750702589272,0.0026946461808490083
0.2094828,0.053631149088294264,0.00314947993922197,0.04638952443660959,0.01313524787148257,0.18215726640617638,0.01729194343476746,0.11574357631492732,0.002709487689761913
0.2099483,0.05362328013251466,0.003123370223403088,0.046432067657657186,0.013118572144354041,0.1819343529868426,0.017347425547167956,0.1157090998478753,0.002724519257379837
0.2104138,0.05361211453293969,0.0030975471478609,0.04646984470634971,0.013101212663451831,0.1816928609905803,0.017401955030753733,0.1156641155512367,0.002739732691355795
0.2108793,0.053597659810420785,0.0030720109529608075,0.04650285779311244,0.013083177337332006,0.18143287760282809,0.01745551955743136,0.11560866414832612,0.002755119846741683
0.2113448,0.05357992413633093,0.0030467618344034234,0.04653111049699829,0.01306447422753771,0.18115449493795854,0.017508107219477924,0.11554278912325028,0.0027706726275833157
0.2118103,0.05355891632645334,0.0030217999434886886,0.046554607756199254,0.013045111546051072,0.18085780998340611,0.017559706531552373,0.11546653668429577,0.0027863829884945106
0.2122759,0.05353464583467968,0.0029971253873906515,0.04657335585810914,0.013025097652703157,0.18054292454229137,0.017610306432509375,0.1153799557267561,0.0028022429362102906
0.2127414,0.05350712274652419,0.002972738229442848,0.04658736242894307,0.013004441052541529,0.18020994517457609,0.017659896287015163,0.11528309779522662,0.002818244531119265
0.2132069,0.05347635777245994,0.002948638489434219,0.046596636422919134,0.012983150393155002,0.1798589831367843,0.017708465886964925,0.11517601704539492,0.00283437988877525
0.2136724,0.05344236224108332,0.002924826143915494,0.046601188111007955,0.01296123446195515,0.1794901543203254,0.01775600545270133,0.11505877020535471,0.002850641181388164
0.2141379,0.05340514809211227,0.0029013011265159924,0.04660102906925614,0.012938702183414074,0.17910357918845654,0.01780250563403388,0.11493141653646934,0.0028670206392942144
0.2146034,0.05336472786922363,0.0028780633282707866,0.04659617216668996,0.012915562616258027,0.1786993827119219,0.01784795751105901,0.1147940177938108,0.002883510552405381
0.215069,0.05332111471273474,0.0028551125979581816,0.046586631552806165,0.012891824950616476,0.17827769430330598,0.017892352594780895,0.11464663818619941,0.002900103271638197
0.2155345,0.053274322352133884,0.0028324487424474763,0.04657242264465714,0.01286749850512631,0.17783864775013952,0.017935682827533266,0.11448934433586845,0.0029167912103217775
0.216,0.05322436509846436,0.002810071527056967,0.046553562113538255,0.012842592723991006,0.17738238114679444,0.017977940583202644,0.11432220523777674,0.002933566845585062
0.2164655,0.053171257836566524,0.002787980675922147,0.046530067871285774,0.012817117173994617,0.1769090368252055,0.018019118667253677,0.11414529221859226,0.002950422719723204
0.216931,0.053115016017182375,0.002766175872374066,0.04650195905619418,0.012791081541470602,0.17641876128445463,0.01805921031655752,0.11395867889536847,0.0029673514415430326
0.2173966,0.053055655648927176,0.0027446567593277737,0.046469256018562215,0.012764495629225532,0.17591170511925316,0.01809820919902434,0.11376244113393502,0.0029843456876875066
0.2178621,0.05299319329013267,0.0027234229396807938,0.0464319803058777,0.012737369353417738,0.17538802294735686,0.018136109413041435,0.11355665700702404,0.003001398203939093
0.2183276,0.05292764604056646,0.0027024739767215213,0.04639015464765127,0.012709712740391114,0.17484787333594853,0.018172905486718627,0.1133414067521523,0.0030185018065019957
0.2187931,0.05285903153303222,0.002681809394547456,0.04634380293991008,0.012681535923464271,0.1742914187270231,0.018208592376942806,0.11311677272927986,0.003035649383263182
0.2192586,0.05278736792485524,0.002661428678493173,0.04629295022936282,0.012652849139675335,0.17371882536181116,0.0182431654682439,0.1128828393782643,0.0030528338950321617
0.2197241,0.05271267388925808,0.002641331275567914,0.04623762269724773,0.012623662726482804,0.17313026320427646,0.018276620571474705,0.1126396931761301,0.0030700483767594857
0.2201897,0.052634968606630875,0.0026215165949026852,0.046177847642875684,0.012593987118422953,0.17252590586372596,0.01830895392230718,0.11238742259417141,0.003087285938733929
0.2206552,0.052554271755700994,0.002601984008206718,0.046113653466880754,0.012563832843724363,0.1719059305165703,0.018340162179548106,0.11212611805490563,0.003104539767758316
0.2211207,0.05247060350460675,0.0025827328502331546,0.046045069654190945,0.012533210520880354,0.17127051782727432,0.018370242423277023,0.11185587188889444,0.0031218031283039563
0.2215862,0.05238398450187999,0.002563762419253784,0.04597212675673205,0.012502130855180156,0.17061985186853806,0.018399192152809565,0.1115767782914481,0.003139069363643622
0.2220517,0.0522944358673422,0.002545071977542665,0.04589485637587757,0.012470604635199783,0.1699541200407496,0.01842700928448925,0.1112889332792278,0.0031563318969630018
0.2225172,0.05220197918291881,0.00252666075186845,0.045813291144658014,0.012438642729253711,0.1692735129907514,0.01845369214931102,0.11099243464676001,0.0031735842324505234
0.2229828,0.05210663648337613,0.002508527933995213,0.0457274647097425,0.012406256081808606,0.1685782245299632,0.018479239490379898,0.11068738192287605,0.00319081995636544
0.2234483,0.052008430246984864,0.002490672681191602,0.04563741171320581,0.012373455709860415,0.16786845155190566,0.018503650460208163,0.11037387632708852,0.003208032738084029
0.2239138,0.05190738338611414,0.002473094116748107,0.04554316777409376,0.012340252699276268,0.167144393949169,0.018526924617854674,0.11005202072591591,0.003225216331123742
0.2243793,0.05180351923775959,0.0024557913305022685,0.04544476946979935,0.012306658201102732,0.16640625452987168,0.01854906192591006,0.10972191958916572,0.0032423645741451223
0.2248448,0.051696861554008766,0.002438763379371627,0.04534225431726215,0.012272683427842032,0.1656542389336548,0.018570062747331653,0.10938367894618524,0.0032594713919312786
0.2253103,0.051587434492446876,0.002422009287894244,0.04523566075400282,0.01223833964969791,0.16488855554725831,0.018589927842132155,0.10903740634208903,0.003276530796344683
0.2257759,0.051475262606505624,0.002405528048776591,0.04512502811900423,0.012203638190792758,0.1641094154197254,0.018608658363925994,0.1086832107939712,0.0032935368872610412
0.2262414,0.051360370835757764,0.0023893186234486105,0.04501039663345056,0.012168590425357749,0.16331703217728127,0.018626255856337398,0.10832120274711014,0.0033104838534799637
0.2267069,0.05124278449616041,0.0023733799426257523,0.04489180738133522,0.012133207773897592,0.162511621937933,0.018642722249274112,0.10795149403117327,0.003327365973612154
0.2271724,0.051122529270249975,0.002357710906877782,0.044769302289948014,0.01209750169933143,0.1616934032258364,0.018658059855070633,0.10757419781642906,0.0033441776169428066
0.2276379,0.05099963119729234,0.0023423103872041657,0.044642924110251704,0.012061483703111392,0.16086259688547505,0.018672271364504712,0.10718942856997399,0.0033609132442708935
0.2281034,0.05087411666339182,0.0023271772256158365,0.0445127163971578,0.012025165321320213,0.1600194259956969,0.018685359842690766,0.10679730201198193,0.0033775674087240205
0.228569,0.05074601239156297,0.002312310235723163,0.04437872348971091,0.011988558120749327,0.15916411578365197,0.018697328724853735,0.10639793507198415,0.0033941347565485214
0.2290345,0.050615345431769196,0.002297708203329961,0.04424099049119087,0.011951673694958764,0.1582968935386747,0.018708181811986708,0.10599144584518855,0.0034106100278744555
0.2295,0.0504821431509323,0.0022833698870333872,0.04409956324914121,0.011914523660320175,0.1574179885261527,0.018717923266395556,0.10557795354884658,0.00342698805745517
0.2299655,0.05034643322291725,0.002269294018829567,0.043954488335332456,0.011877119652044365,0.15652763190142235,0.018726557607133595,0.10515757847867808,0.0034432637753811007
0.230431,0.0502082436184964,0.0022554793047247883,0.043805813025667925,0.011839473320194744,0.15562605662373108,0.01873408970532916,0.10473044196536374,0.0034594322077674666
0.2308966,0.050067602595297904,0.0022419244253520988,0.04365358528003973,0.011801596325688163,0.15471349737030438,0.018740524779408827,0.10429666633111634,0.0034754884774155287
0.2313621,0.04992453868774323,0.002228628036593119,0.043497853722142085,0.011763500336284682,0.15379019045055464,0.01874586839021892,0.10385637484634176,0.003491427804447051
0.2318276,0.049779080696979144,0.002215588770204885,0.04333866761924903,0.011725197022567965,0.1528563737204676,0.018750126436047777,0.10340969168640146,0.003507245506911605
0.2322931,0.04963125768080998,0.002202805234451525,0.043176076861963064,0.011686698053918068,0.1519122864972008,0.018753305147551285,0.1029567418884868,0.003522937001366319
0.2327586,0.0494810989436362,0.002190276014740573,0.04301013194394114,0.01164801509447856,0.15095816947392804,0.01875541108258401,0.10249765130861649,0.003538497803427678
0.2332241,0.04932863402640571,0.00217799967426371,0.042840883941604145,0.011609159799119946,0.14999426463496232,0.018756451120938395,0.10203254657876706,0.003553923528294953
0.2336897,0.04917389269658418,0.0021659747546417247,0.04266838449383594,0.011570143809401613,0.1490208151711895,0.018756432458994422,0.10156155506414666,0.003569209891244821
0.2341552,0.04901690493815042,0.002154199776573471,0.04249268578167788,0.011530978749534479,0.14803806539584427,0.018755362604282108,0.10108480482062218,0.00358435270809672
0.2346207,0.04885770094162286,0.002142673240488576,0.0423138405080245,0.011491676222346764,0.14704626066065896,0.01875324936995932,0.10060242455230965,0.0035993478956484544
0.2350862,0.048696311094123,0.002131393627203665,0.042131901877326225,0.011452247805255262,0.14604564727241537,0.018750100869207392,0.10011454356933785,0.0036141914720815454
0.2355517,0.04853276596948105,0.0021203593985818555,0.04194692357530458,0.011412705046244668,0.14503647240992962,0.018745925509546988,0.0996212917457948,0.0036288795573358058
0.2360172,0.04836709631838903,0.0021095689981952773,0.041758959748685834,0.011373059459857409,0.14401898404149893,0.01874073198707674,0.09912279947786623,0.0036434083734526
0.2364828,0.048199333058605964,0.0020990208519903785,0.04156806498495851,0.011333322523196594,0.14299343084283947,0.01873452928063719,0.09861919764217497,0.0036577742448862544
0.2369483,0.048029507265219734,0.0020887133689557803,0.041374294292160545,0.011293505671944601,0.14196006211554352,0.018727326645902584,0.09811061755432907,0.0036719735987830993
0.2374138,0.04785765016096963,0.002078644941792434,0.04117770307870166,0.01125362029639982,0.14091912770608386,0.01871913360940313,0.09759719092768637,0.003686002965227639
0.2378793,0.047683793106633496,0.002068813947585825,0.04097834713322669,0.011213677737534077,0.1398708779253931,0.018709959962480465,0.09707904983234243,0.0036998589774553904
0.2383448,0.047507967591483354,0.002059218748479962,0.040776282604525434,0.011173689283073223,0.1388155634690448,0.01869981575517905,0.0965563266543483,0.0037135383720319688
0.2388103,0.04733020522381321,0.0020498576923528833,0.04057156598149478,0.011133666163603307,0.13775343533806267,0.018688711290076432,0.09602915405516448,0.0037270379889980483
0.2392759,0.04715053772154287,0.0020407291134933994,0.04036425407315891,0.011093619548704714,0.13668474476038311,0.018676657116055352,0.09549766493135674,0.003740354771979857
0.2397414,0.04696899690290177,0.002031831333278781,0.04015440398875349,0.01105356054311664,0.13560974311299587,0.01866366402202075,0.09496199237453913,0.0037534857682648775
0.2402069,0.04678561467719675,0.0020231626608530986,0.03994207311787958,0.011013500182934115,0.13452868184478559,0.01864974303056474,0.09442226963156916,0.003766428128842436
0.2406724,0.046600423035667866,0.002014721393805899,0.03972731911073357,0.010973449431839847,0.1334418124000973,0.018634905391582655,0.09387863006499979,0.0037791791084088944
0.2411379,0.04641345404243615,0.0020065058188509003,0.03951019985841914,0.010933419177373104,0.13234938614304653,0.018619162575842972,0.09333120711379252,0.003791736065337187
0.2416034,0.046224739825547,0.001998514212504389,0.03929077347334767,0.010893420227237811,0.13125165428259494,0.018602526268514063,0.09278013425429604,0.003804096461610491
0.242069,0.04603431256811241,0.0019907448417630026,0.03906909826973355,0.010853463305651975,0.13014886779841134,0.018585008362650354,0.09222554496149502,0.0038162578627198842
0.2425345,0.0458422044995551,0.0019831959647805984,0.03884523274419078,0.010813559049740552,0.1290412773675364,0.01856662095264047,0.09166757267053327,0.003828217937525908
0.243,0.04564844788695694,0.0019758658315439256,0.03861923555643742,0.010773718005973806,0.12792913329186936,0.01854737632761973,0.09110635073851664,0.0038399744580839925
0.2434655,0.045453075026513926,0.0019687526845468275,0.03839116551011446,0.010733950626653123,0.12681268542649377,0.018527286964849433,0.09054201240660036,0.0038515252994337666
0.243931,0.04525611823509939,0.0019618547594627066,0.0381610815337254,0.010694267266446204,0.12569218310885827,0.01850636552306515,0.08997469076236604,0.003862868439352289
0.2443966,0.04505760984193687,0.0019551702858149915,0.03792904266170291,0.01065467817897351,0.12456787508882806,0.018484624835796527,0.0894045187024938,0.0038740019580712657
0.2448621,0.04485758218038371,0.0019486974876453329,0.037695108015608936,0.010615193513447772,0.12344000945962186,0.01846207790466106,0.08883162889573519,0.0038849240379583046
0.2453276,0.04465606757982611,0.0019424345841792692,0.037459336785474064,0.01057582331136828,0.12230883358964786,0.01843873789263455,0.08825615374619288,0.003895632963162274
0.2457931,0.044453098357686516,0.0019363797904891112,0.03722178821128213,0.010536577503271676,0.12117459405525177,0.018414618117301183,0.08767822535691266,0.00390612711922282
0.2462586,0.04424870681154356,0.0019305313181537883,0.03698252156460573,0.010497465905540886,0.12003753657438893,0.018389732044086515,0.08709797549379432,0.003916404992644116
0.2467241,0.044042925211365304,0.0019248873759154254,0.03674159613039817,0.010458498217273716,0.11889790594123176,0.01836409327947658,0.08651553554982726,0.003926465170432914
0.2471897,0.043835785791856124,0.0019194461703324207,0.03649907118894741,0.010419684017212633,0.1177559459617225,0.018337715564226646,0.08593103650965836,0.003936306339600974
0.2476552,0.04362732074491792,0.0019142059064288046,0.03625500599799717,0.010381032760737138,0.1166118993900804,0.01831061276656298,0.08534460891449946,0.003945927286631933
0.2481207,0.04341756221222633,0.0019091647883396573,0.03600945977504084,0.010342553776920123,0.11546600786627162,0.018282798875380986,0.08475638282738304,0.003955326896912668
0.2485862,0.04320654227792262,0.0019043210199523515,0.03576249167979325,0.010304256265649493,0.11431851185444886,0.018254287993443027,0.08416648779877549,0.003964504154129212
0.2490517,0.04299429296142239,0.0018996728055433805,0.035514160796845884,0.010266149294816333,0.11316965058236701,0.018225094330579266,0.08357505283255755,0.003973458139627297
0.2495172,0.042780846210341804,0.001895218350410518,0.03526452611851058,0.010228241797570824,0.11201966198178041,0.018195232196894826,0.08298220635238222,0.0039821880317376076
0.2499828,0.042566233893542874,0.0018909558615000392,0.03501364652785678,0.010190542569647121,0.11086878262982665,0.01816471599598651,0.08238807616842046,0.00399069310506588
0.2504483,0.0423504877942991,0.0018868835480287305,0.034761580781947396,0.010153060266758345,0.1097172476914009,0.01813356021817231,0.08179278944450497,0.003998972729747993
0.2509138,0.04213363960358294,0.0018829996221004029,0.03450838749527799,0.010115803402062843,0.10856529086252496,0.01810177943373689,0.08119647266568249,0.004007026370670256
0.2513793,0.04191572091347713,0.0018793022993166175,0.034254125123423955,0.010078780343702845,0.10741314431471412,0.018069388286196128,0.08059925160618417,0.004014853586655087
0.2518448,0.0416967632107118,0.0018757897993813295,0.033998851946900055,0.010041999312416623,0.1062610386403452,0.018036401485583806,0.08000125129782357,0.004022454029612309
0.2523103,0.04147679787032962,0.0018724603466991462,0.03374262605523647,0.01000546837922527,0.10510920279902893,0.018002833801763415,0.07940259599883105,0.00402982744365628
0.2527759,0.04125585614948123,0.001869312170966906,0.03348550533127533,0.009969195463195166,0.10395786406498961,0.01796870005776815,0.07880340916313276,0.004036973664189084
0.2532414,0.04103396918135333,0.0018663435077582902,0.03322754743569133,0.00993318832927722,0.10280724797545517,0.017934015123171963,0.07820381341008194,0.004043892616950038
0.2537069,0.04081116796923144,0.0018635525991012075,0.03296880979173989,0.009897454586223922,0.10165757828006086,0.01789879390749461,0.07760393049464953,0.004050584317031791
0.2541724,0.040587483380699466,0.0018609376940476924,0.03270934957023586,0.009862001684585224,0.10050907689127046,0.01786305135364337,0.07700388127808094,0.004057048867863348
0.2546379,0.04036294614197764,0.0018584970492360978,0.03244922367476576,0.009826836914784257,0.0993619638358181,0.017826802431394163,0.07640378569902553,0.004063286460160424
0.2551034,0.04013758683240046,0.001856228929445364,0.0321884887271361,0.009791967405273772,0.09821645720717449,0.017790062130914656,0.07580376274514533,0.004069297370843543
0.255569,0.03991143587903562,0.00185413160814117,0.03192720105305993,0.00975740012077419,0.09707277311904114,0.017752845456331774,0.07520393042520926,0.00407508196192437
0.2560345,0.03968452355144523,0.0018522033680137737,0.03166541666808395,0.009723141860594066,0.0959311256598762,0.01771516741934604,0.07460440574167947,0.004080640679360796
0.2565,0.039456879956589655,0.0018504425015073483,0.03140319126375793,0.009689199257033662,0.09479172684845538,0.017677043032895128,0.07400530466379616,0.004085974051881293
0.2569655,0.03922853503387461,0.001848847311340618,0.0311405801940481,0.009655578773872305,0.09365478659047093,0.017638487304868857,0.07340674210116763,0.004091082689779096
0.257431,0.038999518550341755,0.0018474161110185808,0.030877638461996187,0.00962228670494007,0.0925205126361719,0.017599515231877885,0.072808831877872,0.004095967283676741
0.2578966,0.0387698600960028,0.0018461472253351,0.030614420706625317,0.00958932917277435,0.09138911053904838,0.017560141793078205,0.07221168670707749,0.0041006286032615425
0.2583621,0.038539589079317295,0.0018450389908661357,0.03035098119009415,0.009556712127361726,0.090260783615562,0.017520381944053653,0.07161541816618798,0.004105067495992626
0.2588276,0.0383087347228141,0.0018440897564533818,0.030087373785100312,0.009524441344965606,0.08913573290592447,0.017480250610758412,0.07102013667252058,0.0041092848857801805
0.2592931,0.038077326058856734,0.0018432978836780555,0.029823651962533993,0.009492522427039908,0.08801415713592571,0.017439762683521525,0.07042595145952202,0.0041132817716377015
0.2597586,0.037845391925552675,0.0018426617473245855,0.0295598687793826,0.009460960799229095,0.08689625267981263,0.0173989330111152,0.06983297055353026,0.004117059226308077
0.2602241,0.037612960962806495,0.001842179735833927,0.029296076866887063,0.009429761710454782,0.08578221352421839,0.01735777639488865,0.06924130075108786,0.004120618394864432
0.2606897,0.03738006160851696,0.0018418502517462234,0.02903232841895038,0.009398930232089077,0.08467223123314224,0.017316307582969037,0.06865104759681354,0.004123960493286737
0.2611552,0.03714672209491753,0.0018416717121325311,0.028768675180798866,0.009368471257214817,0.08356649491397854,0.01727454126453095,0.06806231536183809,0.0041270868070152
0.2616207,0.03691297044505996,0.001841642549015311,0.028505168437896397,0.009338389499972746,0.08246519118459374,0.017232492064135803,0.06747520702281101,0.004129998689481509
0.2620862,0.03667883446944013,0.0018417612097773822,0.028241859005112082,0.009308689494995746,0.08136850414144951,0.017190174536142324,0.06688982424148365,0.004132697560618964
0.2625517,0.0364443417627656,0.0018420261575590262,0.027978797216141615,0.009279375596930121,0.0802766153287697,0.017147603159189298,0.0663062673448749,0.004135184905352535
0.2630172,0.03620951970086381,0.0018424358716429216,0.027716032913182746,0.009250451980044025,0.07918970370874874,0.017104792330751545,0.06572463530602482,0.0041374622720699245
0.2634828,0.03597439543773012,0.001842988847826587,0.027453615436865184,0.009221922637923045,0.07810794563279885,0.01706175636176993,0.06514502572534175,0.004139531271074714
0.2639483,0.035738995902714794,0.0018436835987820106,0.027191593616435347,0.009193791383253002,0.07703151481383301,0.017018509471356243,0.06456753481254741,0.004141393573022714
0.2644138,0.03550334779784756,0.0018445186544021473,0.02693001576019641,0.009166061847690005,0.0759605822995804,0.016975065781573533,0.06399225736922448,0.004143050907342654
0.2648793,0.03526747759529892,0.0018454925621339653,0.02666892964620413,0.009138737481817849,0.07489531644693069,0.016931439312292643,0.0634192867719705,0.004144505060642386
0.2653448,0.03503141153497655,0.0018466038872977288,0.026408382513218955,0.009111821555192816,0.07383588289730311,0.01688764397612554,0.06284871495616144,0.004145757875101745
0.2658103,0.034795175622255675,0.00184785121339221,0.026148421051914988,0.00908531715647598,0.07278244455303633,0.016843693573436277,0.06228063240032762,0.004146811246853243
0.2662759,0.03455879562584178,0.0018492331423855108,0.025889091396346292,0.009059227193653076,0.07173516155479434,0.0167996017874305,0.06171512811114482,0.0041476671243517
0.2667414,0.03432229707576442,0.0018507482949911816,0.025630439115671092,0.00903355439434197,0.07069419125998398,0.016755382179324634,0.06115228960904238,0.0041483275067339224
0.2672069,0.03408570526150059,0.0018523953109293252,0.025372509206134392,0.009008301306187726,0.06965968822217862,0.016711048183596176,0.060592202914430134,0.004148794442169493
0.2676724,0.0338490452302263,0.0018541728491723755,0.025115346083309464,0.008983470297345192,0.06863180417154291,0.016666613103316526,0.060034952534545376,0.004149070026203699
0.2681379,0.03361234178519462,0.0018560795881752596,0.02485899357459859,0.00895906355704896,0.0676106879962532,0.016622090105568053,0.0594806214509207,0.00414915640009361
0.2686034,0.033375619484238714,0.0018581142260896799,0.024603494911993463,0.008935083096270493,0.06659648572490796,0.016577492216947053,0.058929291107473,0.004149055749138268
0.269069,0.03313890263839776,0.001860275480962273,0.02434889272509538,0.008911530748462128,0.06558934050992289,0.016532832319154336,0.058381041399213456,0.004148770301003974
0.2695345,0.03290221531066375,0.0018625620909164446,0.024095229034395427,0.00888840817038763,0.0645893926119049,0.016488123144674977,0.057835950661578026,0.004148302324045584
0.27,0.03266558131484695,0.0018649728143177104,0.023842545244814654,0.00886571684303885,0.063596779385,0.016443377272548795,0.057294095660377534,0.004147654125624751
0.2704655,0.03242902421455767,0.0018675064299224005,0.023590882139504134,0.008843458072638031,0.06261163526320962,0.016398607124233012,0.056755551582366094,0.004146828050426001
0.270931,0.032192567322301864,0.0018701617370096113,0.023340279873904784,0.00882163299172524,0.061634091747670317,0.016353824959558526,0.05622039202642636,0.004145826478771566
0.2713966,0.03195623369868837,0.0018729375554962968,0.02309077797006663,0.00880024256033032,0.0606642773948917,0.01630904287278119,0.05568868899537,0.004144651824935852
0.2718621,0.03172004615174536,0.001875832726035419,0.022842415311227156,0.008779287567228797,0.05970231780594782,0.01626427278872962,0.055160512888351644,0.004143306535460432
0.2723276,0.0314840272363439,0.0018788461100970682,0.022595230136648353,0.008758768631281038,0.058748335616616874,0.016219526459050938,0.054635932493894555,0.004141793087470477
0.2727931,0.031248199253726246,0.0018819765900324758,0.022349260036711914,0.008738686202853995,0.057802450488464364,0.016174815458556042,0.05411501498352626,0.004140113986993528
0.2732586,0.03101258425113655,0.0018852230691208498,0.02210454194827199,0.00871904056532479,0.056864779100864585,0.01613015118166593,0.0535978259060221,0.00413827176728151
0.2737241,0.03077720402155128,0.001888584471598945,0.021861112150264775,0.008699831836665377,0.05593543514395506,0.0160855448389608,0.05308442918225408,0.004136268987136901
0.2741897,0.030542080103506695,0.0018920597426732874,0.021619006259574143,0.008681059971107467,0.05501452931251817,0.016041007453833554,0.05257488710064249,0.004134108229243935
0.2746552,0.03030723378102026,0.0018956478485149522,0.021378259227152422,0.008662724760886805,0.05410216930078398,0.015996549859249323,0.05206926031320705,0.004131792098505721
0.2751207,0.030072686083602775,0.0018993477762367912,0.02113890533439512,0.008644825838065947,0.05319845979814784,0.01595218269461262,0.05156760783221384,0.004129323220388119
0.2755862,0.029838457786357842,0.0019031585338529964,0.02090097818976846,0.008627362676434557,0.052303502485795926,0.0159079164027436,0.05106998702741445,0.004126704239271181
0.2760517,0.029604569410165035,0.0019070791502208918,0.02066451072568836,0.00861033459348632,0.051417396034231615,0.01586376122696475,0.050576453623873294,0.004123937816808964
0.2765172,0.02937104122194309,0.0019111086749648528,0.020429535195649308,0.008593740752471482,0.050540236101695286,0.01581972720829933,0.050087061700378945,0.0041210266302984504
0.2769828,0.02913789323498912,0.001915246178382266,0.02019608317160159,0.008577580164524087,0.049672115333469914,0.01577582418278265,0.04960186368843505,0.00411797337105833
0.2774483,0.02890514520938963,0.0019194907513314713,0.01996418554157521,0.008561851690862921,0.04881312336206469,0.01573206177888717,0.049120910371826636,0.004114780742818343
0.2779138,0.028672816652498972,0.0019238415051016544,0.01973387250754862,0.008546554045065123,0.047963346808268754,0.015688449415062377,0.04864425088675732,0.004111451460119875
0.2783793,0.02844092681948072,0.0019282975712646936,0.019505173583560353,0.008531685795411435,0.04712286928306682,0.015644996297390204,0.04817193272255272,0.00410798824672847
0.2788448,0.028209494713907286,0.0019328581015089932,0.019278117594061433,0.008517245367302015,0.04629177139040841,0.01560171141735674,0.04770400172292553,0.004104393834058862
0.2793103,0.027978539088413232,0.0019375222674553702,0.01905273267250632,0.008503231045741659,0.045470130730821935,0.015558603549740917,0.04724050208779725,0.004100670959613141
0.2797759,0.027748078445397843,0.0019422892604551026,0.018829046260179998,0.008489640977893285,0.044658021905864556,0.015515681250620719,0.046781476375671475,0.004096822365432603
0.2802414,0.027518131037772616,0.001947158291370298,0.01860708510525858,0.00847647317569843,0.04385551652339846,0.01547295285549737,0.04632696550655323,0.004092850796563823
0.2807069,0.027288714869749764,0.0019521285903367767,0.018386875262100918,0.008463725518563493,0.04306268320368367,0.01543042647753788,0.04587700876540876,0.00408875899953945
0.2811724,0.027059847697668095,0.0019571994065097262,0.018168442090768407,0.008451395756110383,0.04227958758627722,0.015388110005936149,0.04543164380615957,0.004084549720874203
0.2816379,0.026831547030853005,0.001962370007792423,0.017951810256770142,0.008439481510990167,0.04150629233772807,0.015346011104392829,0.04499090665620431,0.00408022570557652
0.2821034,0.02660383013250772,0.0019676396805483718,0.017737003731030602,0.008427980281758233,0.04074285716005687,0.01530413720971397,0.04455483172146169,0.0040757896956762985
0.282569,0.02637671402063333,0.001973007729297246,0.01752404579007676,0.00841688944580944,0.03998933880000932,0.015262495530528332,0.044123451791927476,0.0040712444287691624
0.2830345,0.02615021546897559,0.001978473476395062,0.017312959016441504,0.008406206262371626,0.03924579105907159,0.0152210930461232,0.04369679804773781,0.004066592636577677
0.2835,0.025924351007996567,0.0019840362616990355,0.017103765299280142,0.008395927875555776,0.038512264804236106,0.015179936505398395,0.04327490006573133,0.004061837043529928
0.2839655,0.02569913692586975,0.001989695442217616,0.01689648583519661,0.008386051317461094,0.03778880797950563,0.01513903242593801,0.042857785826502376,0.0040569803653558835
0.284431,0.025474589269497038,0.00199545039174619,0.016691141129276,0.008376573511333137,0.037075465618123464,0.01509838709319938,0.042445481721937295,0.004052025307701904
0.2848966,0.025250723845546393,0.0020013005004889768,0.01648775099631995,0.008367491274773157,0.03637227985551727,0.015058006559818605,0.04203801256322554,0.004046974564763785
0.2853621,0.02502755622150871,0.002007245174667614,0.01628633456228148,0.008358801322996687,0.03567928994294373,0.015017896645031965,0.04163540158933767,0.00404183081793865
0.2858276,0.024805101726772576,0.0020132838361169494,0.01608691026589588,0.00835050027213937,0.034996532261821055,0.014978062934212466,0.0412376704759615,0.0040365967344959935
0.2862931,0.024583375453715355,0.0020194159218685365,0.015889495860504334,0.008342584642608007,0.03432404033873592,0.014938510778520795,0.04084483934488786,0.0040312749662681745
0.2867586,0.024362392258809193,0.0020256408837223292,0.015694108416066974,0.008335050862474736,0.03366184486111144,0.01489924529467001,0.04045692677383724,0.004025868148360579
0.2872241,0.024142166763740532,0.0020319581878070737,0.015500764321362092,0.008327895270912149,0.03300997369352241,0.014860271364803381,0.04007394980671868,0.004020378897881716
0.2876897,0.023922713356542006,0.002038367314129895,0.015309479286368237,0.008321114121667132,0.03236845189464394,0.014821593636484718,0.039695923964312325,0.004014809812693448
0.2881552,0.02370404619273576,0.0020448677561155895,0.015120268344825947,0.008314703586571123,0.031737301734819486,0.014783216522800645,0.0393228632553669,0.004009163470181595
0.2886207,0.02348617919648749,0.0020514590201361183,0.014933145856975829,0.008308659759084406,0.031116542714234148,0.014745144202574065,0.03895478018810359,0.004003442426047137
0.2890862,0.02326912606177065,0.002058140625030799,0.014748125512469689,0.00830297865787201,0.030506191581679117,0.014707380620688113,0.03859168578211767,0.003997649213118304
0.2895517,0.02305290025354039,0.0020649121016176842,0.014565220333451388,0.008297656230408713,0.029906262353893005,0.014669929488519756,0.03823358958066924,0.003991786340183785
0.2900172,0.022837515008916776,0.002071772992196606,0.01438444267780417,0.008292688356610588,0.029316766335466052,0.014632794284482218,0.03788049966335425,0.003985856290847396
0.2904828,0.022622983338376774,0.0020787228500443486,0.014205804242561156,0.008288070852490441,0.02873771213929306,0.014595978254675316,0.037532422659146907,0.003979861522404494
0.2909483,0.022409318026954325,0.0020857612389024167,0.014029316067475787,0.00828379947383452,0.02816910570756122,0.014559484413642795,0.03718936375980447,0.003973804464740485
0.2914138,0.022196531635447662,0.002092887732457856,0.013854988538748924,0.008279869919897776,0.02761095033325896,0.014523315545235664,0.03685132673362538,0.003967687519251746
0.2918793,0.021984636501632755,0.0021001019138175625,0.013682831392909475,0.008276277837114994,0.027063246682192055,0.014487474203580469,0.036518313939551385,0.003961513057789308
0.2923448,0.021773644741481732,0.002107403374976522,0.013512853720845368,0.008273018822825029,0.026525992815493595,0.014451962714151329,0.03619032634160444,0.003955283421625648
0.2928103,0.021563568250384867,0.002114791716280398,0.013345063971981796,0.008270088429005439,0.02599918421261433,0.014416783174944513,0.03586736352364875,0.003949000920444916
0.2932759,0.021354418704374812,0.0021222665458828995,0.013179469958603753,0.008267482166014688,0.025482813794780193,0.014381937457754233,0.035549423704468355,0.003942667831356912
0.2937414,0.021146207561351688,0.0021298274791983654,0.013016078860319967,0.008265195506339149,0.024976871948903804,0.01434742720954833,0.035236503753150406,0.003936286397935104
0.2942069,0.02093894606230767,0.002137474138350004,0.012854897228665398,0.008263223888342018,0.02448134655193705,0.014313253853942413,0.03492859920476419,0.003929858829278948
0.2946724,0.020732645232549973,0.0021452061516142574,0.012695930991839579,0.008261562720011262,0.023996222995651937,0.014279418592771006,0.03462570427632606,0.003923387299100748
0.2951379,0.02052731588292106,0.002153023152861746,0.012539185459578083,0.008260207382703668,0.023521484211837175,0.014245922407754153,0.0343278118830404,0.003916873944837284
0.2956034,0.020322968611015083,0.0021609247809952787,0.012384665328154533,0.008259153234881935,0.02305711069789811,0.014212766062257815,0.03403491365480659,0.003910320866786429
0.296069,0.020119613802389653,0.002168910679385392,0.01223237468551056,0.0082583956158418,0.02260308054284811,0.014179950103146294,0.033746999952982186,0.003903730127268933
0.2965345,0.019917261631772133,0.0021769804953038854,0.012082317016511234,0.008257929849426035,0.02215936945367964,0.014147474862724892,0.03346405988739211,0.003897103749815562
0.297,0.019715922064259837,0.0021851338793558088,0.011934495208323494,0.008257751247722208,0.02172595078210359,0.014115340460770846,0.03318608133357396,0.0038904437183797506
0.2974655,0.019515604856513803,0.0021933704849103554,0.011788911555915138,0.008257855114740937,0.021302795551645808,0.014083546806650568,0.03291305095024943,0.0038837519765759134
0.297931,0.01931631955794594,0.0022016899675310997,0.011645567767671883,0.008258236750071396,0.020889872485089837,0.014052093601521164,0.032644954197011765,0.003877030426943552
0.2983966,0.01911807551189975,0.0022100919844060224,0.011504464971129988,0.008258891452510724,0.02048714803225507,0.014020980340614051,0.03238177535221932,0.0038702809302372915
0.2988621,0.018920881856824962,0.002218576193777764,0.011365603718821813,0.008259814523664009,0.02009458639809958,0.013990206315598481,0.03212349753108505,0.003863505304742937
0.2993276,0.018724747527446843,0.002227142254374526,0.011228983994231667,0.008261001271511427,0.019712149571137007,0.013959770617022622,0.031870102703952075,0.0038567053256196465
0.2997931,0.01852968125593104,0.002235789824842038,0.01109460521785922,0.008262447013939163,0.019339797352156914,0.013929672136829859,0.03162157171474533,0.003849882724268267
0.3002586,0.018335691573045126,0.0022445185631770007,0.010962466253387645,0.008264147082230633,0.01897748738323813,0.013899909570947859,0.03137788429959002,0.0038430391877258842
0.3007241,0.018142786809318023,0.0022533281261623893,0.010832565413953579,0.008266096824514568,0.018625175177044817,0.013870481421948005,0.03113901910558765,0.0038361763580865697
0.3011897,0.017950975096198377,0.002262218168805026,0.010704900468515988,0.008268291609166487,0.018282814146395016,0.013841386001772742,0.03090495370974093,0.0038292958319483344
0.3016552,0.01776026436721295,0.0022711883437757955,0.010579468648320909,0.008270726828160001,0.017950355634091496,0.013812621434528393,0.03067566463801909,0.003822399159886236
0.3021207,0.017570662359125966,0.0022802383008528933,0.010456266653459065,0.008273397900364472,0.017627748943004794,0.013784185659340954,0.030451127384555094,0.0038154878459515915
0.3025862,0.01738217661310019,0.0022893676863684795,0.010335290659513266,0.008276300274785523,0.017314941366398162,0.013756076433272302,0.030231316430966347,0.0038085633471972315
0.3030517,0.01719481447586043,0.0022985761426591294,0.010216536324292532,0.008279429433745053,0.017011878218484038,0.013728291334294273,0.03001620526579037,0.003801627073228719
0.3035172,0.017008583100860047,0.0023078633075204634,0.01009999879464994,0.008282780895997521,0.016718502865201587,0.013700827764318097,0.029805766404026914,0.0037946803857814345
0.3039828,0.016823489449451043,0.0023172288136663593,0.009985672713381081,0.008286350219779429,0.016434756755204664,0.013673682952276668,0.02959997140677792,0.003787724598323429
0.3044483,0.016639540292058122,0.0023266722881931617,0.009873552226200096,0.008290133005789157,0.016160579451049466,0.013646853957257062,0.029398790900976638,0.00378076097568394
0.3049138,0.016456742209357014,0.002336193352049317,0.009763630988790213,0.008294124900094423,0.015895908660571022,0.013620337671680756,0.029202194599197116,0.0037737907337075044
0.3053793,0.01627510159345735,0.0023457916195108626,0.009655902173925708,0.008298321596964732,0.01564068026843762,0.013594130824528908,0.02901015131953524,0.003766815038933616
0.3058448,0.01609462464909013,0.0023554666976632025,0.009550358478662204,0.008302718841626259,0.015394828367872317,0.013568229984610127,0.028822629005552512,0.0037598350083019256
0.3063103,0.015915317394799892,0.0023652181858895825,0.009446992131592205,0.00830731243293665,0.01515828529253072,0.013542631563868134,0.02863959474627362,0.003752851708883011
0.3067759,0.01573718566414144,0.002375045675366682,0.00934579490016278,0.008312098225977345,0.01493098164852458,0.013517331820726777,0.028461014796228857,0.003745866157634757
0.3072414,0.015560235106881044,0.0023849487485677135,0.009246758098052286,0.008317072134561104,0.014712846346581158,0.013492326863469772,0.028286854595532495,0.0037388793211844
0.3077069,0.015384471190201787,0.0023949269787734164,0.009149872592603045,0.008322230133652724,0.014503806634328752,0.013467612653652584,0.028117078789988297,0.0037318921156362767
0.3081724,0.015209899199912709,0.0024049799295913334,0.00905512881230688,0.008327568261700996,0.014303788128699398,0.013443185009543814,0.02795165125121366,0.0037249054064052906
0.3086379,0.015036524241661296,0.0024151071544837336,0.008962516754340379,0.008333082622880156,0.014112714848440198,0.01341903960959346,0.02779053509677407,0.0037179200080760997
0.3091034,0.014864351242148724,0.0024253081963045526,0.0088720259921467,0.008338769389239085,0.013930509246725285,0.013395171995925494,0.027633692710320252,0.0037109366842880166
0.309569,0.014693384950347195,0.0024355825868456805,0.008783645683060745,0.008344624802756518,0.013757092243860833,0.013371577577852208,0.02748108576172043,0.0037039561476455932
0.3100345,0.014523629938718625,0.0024459298463929326,0.008697364575974385,0.008350645177300513,0.013592383260075993,0.013348251635407803,0.027332675227180765,0.003696979059654861
0.3105,0.014355090604433872,0.0024563494832920115,0.00861317101903846,0.008356826900490567,0.013436300248392976,0.013325189322898641,0.02718842140934703,0.00369000603068519
0.3109655,0.014187771170591668,0.002466840993524758,0.008531052967398109,0.00836316643546089,0.013288759727569807,0.01330238567246773,0.02704828395738075,0.0036830376199567345
0.311431,0.014021675687436432,0.0024774038602959777,0.008450997990958022,0.00836966032252362,0.013149676815109642,0.013279835597671085,0.026912221887002902,0.0036760743355534198
0.3118966,0.013856808033574138,0.0024880375536311112,0.0083729932821741,0.008376305180731087,0.013018965260330763,0.013257533897063915,0.02678019360049825,0.0036691166344614114
0.3123621,0.013693171917185502,0.0024987415299850156,0.008297025663868007,0.008383097709336531,0.012896537477491622,0.013235475257794867,0.026652156906673333,0.0036621649226330055
0.3128276,0.013530770877235752,0.002509515231862107,0.008223081597061104,0.008390034689152987,0.01278230457896546,0.013213654259206897,0.026528069040761007,0.003655219555075857
0.3132931,0.013369608284680257,0.002520358087448113,0.008151147188824233,0.008397112983810276,0.012676176408459002,0.013192065376443568,0.02640788668426453,0.0036482808359674726
0.3137586,0.013209687343665292,0.002531269510253657,0.008081208200139883,0.008404329540910208,0.012578061574269802,0.01317070298405974,0.02629156598473422,0.0036413490187948605
0.3142241,0.013051011092723195,0.0025422488987699135,0.00801325005377327,0.008411681393080218,0.012487867482576713,0.013149561359635615,0.026179062575469734,0.0036344243065192313
0.3146897,0.012893582405961033,0.002553295636136557,0.007947257842148964,0.008419165658925722,0.012405500370757922,0.013128634687393136,0.026070331595141046,0.0036275068517656085
0.3151552,0.012737403994241931,0.00256440908982225,0.007883216335229704,0.00842677954388154,0.012330865340730865,0.013107917061813539,0.02596532770732153,0.003620596757037189
0.3156207,0.012582478406358061,0.0025755886113178967,0.007821109988394104,0.008434520340962771,0.01226386639230833,0.013087402491254922,0.02586400511992646,0.00361369407495426
0.3160862,0.012428808030194237,0.0025868335358429084,0.00776092295031004,0.00844238543141553,0.01220440645656501,0.013067084901568589,0.025766317604550674,0.003606798808517449
0.3165517,0.012276395093881051,0.0025981431820647103,0.007702639070800508,0.00845037228526808,0.012152387429208789,0.01304695813971298,0.025672218515699317,0.0035999109113950593
0.3170172,0.012125241666936534,0.002609516851831719,0.007646241908698863,0.008458478461783044,0.012107710203951082,0.013027015977363913,0.02558166080990597,0.003593030288234213
0.3174828,0.01197534966139532,0.00262095382992001,0.007591714739690346,0.008466701609811592,0.012070274705870613,0.013007252114519845,0.025494597064732658,0.0035861567949955
0.3179483,0.01182672083292446,0.002632453383793872,0.007539040564136859,0.008475039468050574,0.012039979924765092,0.012987660183100805,0.025410979497646504,0.003579290239310802
0.3184138,0.01167935678192507,0.002644014763380446,0.007488202114881918,0.008483489865203723,0.01201672394848531,0.012968233750539545,0.02533075998476793,0.003572430380863921
