Time,Rectus Femoris right,Rectus Femoris left,Hamstrings right,Hamstrings left,TibilaisÂ Anterior right,TibilaisÂ Anterior left,Gastrocnemius right,Gastrocnemius left
0.0,0.0030708511999271316,0.007781273623471294,0.016859439106966613,-0.001711147246711592,0.08249947435911179,0.002575383338618791,0.018547758110625208,0.002747420889497733
0.0004655,0.003205811436600449,0.007824870647216018,0.019077481391443066,-0.0016249904056682908,0.08425400061900065,0.0028013459102346444,0.018766280732349597,0.002747545007795852
0.000931,0.0033402139870062565,0.00786785833581989,0.021288597352647046,-0.0015368733433373488,0.08599788809200803,0.0030264482170369545,0.018984411929877147,0.002747177187212837
0.0013966,0.003474034481771078,0.007910224636830622,0.02349243525811508,-0.0014467762060248468,0.08773081597327931,0.003250661578409817,0.01920211394181974,0.002746315274636116
0.0018621,0.0036072486384909996,0.007951957618765937,0.025688644420873596,-0.0013546792092401579,0.08945246544323332,0.003473957647460463,0.019419349065432367,0.0027449572908854122
0.0023276,0.0037398322703500724,0.007993045476444001,0.02787687530532452,-0.0012605626422058998,0.09116251977561618,0.003696308422448418,0.019636079671800363,0.0027431014338931727
0.0027931,0.0038717612947484913,0.008033476536316017,0.030056779632727286,-0.0011644068724070537,0.0928606644450148,0.003917686258081279,0.019852268221071397,0.0027407460818580213
0.0032586,0.004003011741936096,0.008073239261798223,0.03222801048621692,-0.0010661923501789038,0.09454658723376619,0.004138063876669408,0.02006787727771834,0.002737889796369
0.0037241,0.004133559763646778,0.008112322258600556,0.03439022241529898,-0.0009658996133334136,0.09621997833819815,0.0043574143791319676,0.020282869525820035,0.0027345313254983883
0.0041897,0.0042633816417294735,0.008150714280049251,0.03654307153976351,-0.0008635092918236029,0.09788053047413606,0.004575711255846772,0.02049720778434791,0.002730669606860907
0.0046552,0.004392453796771505,0.008188404232400661,0.038686215652961715,-0.0007590021124454567,0.09952793898161016,0.004792928397336454,0.020710855022446923,0.0027263037706371797
0.0051207,0.004520752796710154,0.008225381180143546,0.04081931432439032,-0.0006523589035768606,0.10116190192869733,0.005009040104783451,0.020923774374700208,0.0027214331425593915
0.0055862,0.004648255365428447,0.008261634351287137,0.0429420290015293,-0.0005435605999530301,0.10278212021443031,0.005224021100366358,0.021135929156367205,0.0027160572468571654
0.0060517,0.004774938391331258,0.008297153142632201,0.04505402311087914,-0.00043258824747786575,0.10438829767070736,0.005437846537410248,0.021347282878585946,0.0027101758091617736
0.0065172,0.0049007789358979335,0.008331927125022323,0.04715496215814373,-0.00031942300807063026,0.10598014116313433,0.005650492010343723,0.021557799263530866,0.0027037887593668775
0.0069828,0.005025754242207746,0.008365946048572524,0.04924451382750482,-0.00020404616454731432,0.10755736069073124,0.005861933564455662,0.021767442259518373,0.0026968962344440426
0.0074483,0.005149841743434583,0.008399199847872284,0.05132234807993426,-8.643912553603287e-05,0.10911966948443474,0.006072147705444961,0.021976176056052885,0.0026894985812113154
0.0079138,0.005273019071307402,0.008431678647160004,0.053388137250490436,3.341656957423338e-05,0.11066678410432858,0.006281111408756896,0.022183965098806564,0.0026815963590531605
0.0083793,0.005395264064533069,0.008463372765465806,0.055441556144546725,0.0001555392456522647,0.11219842453553358,0.006488802128700048,0.02239077410452609,0.0026731903425900655
0.0088448,0.005516554777178259,0.008494272721719608,0.05748228213290123,0.00027994708681134805,0.11371431428268969,0.006695197807338017,0.02259656807585992,0.002664281524296107
0.0093103,0.005636869487007191,0.0085243692398214,0.059509995245719455,0.00040665813136493353,0.11521418046296318,0.006900276883150336,0.022801312316099588,0.0026548711170627888
0.0097759,0.005756186703772013,0.00855365325367061,0.06152437826526388,0.0005356902667520392,0.11669775389751298,0.007104018299457156,0.023004972443829066,0.002644960556707484
0.0102414,0.005874485177452754,0.008582115912151638,0.0635251168173661,0.000667061224433287,0.11816476920135126,0.007306401512602494,0.023207514407476423,0.0026345515044248636
0.0107069,0.005991743906443809,0.008609748584072647,0.06551189946159872,0.0008007885747584979,0.1196149648715366,0.007507406499891079,0.023408904499762725,0.002623645849179778
0.0111724,0.006107942145683975,0.00863654286305494,0.06748441778010494,0.0009368897218068181,0.12104808337364187,0.007707013767274117,0.023609109372043326,0.0026122457100401474
0.0116379,0.006223059414727213,0.008662490572370406,0.06944236646504519,0.0010753818982003887,0.12246387122644443,0.007905204356779586,0.023808096048536988,0.002600353438448515
0.0121034,0.006337075505751303,0.008687583769724661,0.07138544340462108,0.0012162821598926186,0.12386207908479181,0.008101959853683017,0.02400583194043833,0.00258797162043099
0.012569,0.006449970491501718,0.008711814751983802,0.07331334976764002,0.0013596073809321603,0.12524246182060075,0.008297262393415005,0.024202284859909218,0.0025751030787423443
0.0130345,0.006561724733168037,0.008735176059842798,0.07522579008658568,0.0015053742482037372,0.1266047786019516,0.00849109466820199,0.024397423033944744,0.0025617508749460607
0.0135,0.00667231888819027,0.008757660482433748,0.0771224723391621,0.001653599256147028,0.12794879297024114,0.008683439933437087,0.024591215118109338,0.0025479183114281456
0.0139655,0.006781733917992468,0.008779261061872351,0.07900310802828106,0.0018042987014548581,0.12927427291535898,0.00887428201377785,0.02478363021013868,0.002533608933343531
0.014431,0.006889951095641003,0.00879997109774107,0.0808674122604642,0.0019574886777520076,0.1305809909488536,0.009063605308967925,0.024974637863402867,0.002518826530493918
0.0148966,0.006996952013424776,0.008819784151507455,0.08271510382263278,0.002113185070255992,0.13186872417505693,0.009251394799379637,0.025164208100226237,0.0025035751391359316
0.0153621,0.007102718590354682,0.008838694050876165,0.08454590525726102,0.002271403550421215,0.13313725436014,0.009437636051274626,0.025352311425059487,0.0024878590437185134
0.0158276,0.007207233079579506,0.008856694894073208,0.08635954293587324,0.002432159570567913,0.13438636799907652,0.009622315221779938,0.025538918837499574,0.002471682778548495
0.0162931,0.0073104780757154595,0.00887378105406087,0.08815574713086978,0.0025954683584973317,0.13561585638049745,0.009805419063577363,0.025724001845153246,0.002455051129383337
0.0167586,0.007412436522086452,0.008889947182681913,0.08993425208567196,0.002761344912094584,0.13682551564942413,0.009986934929304291,0.025907532476340055,0.002437969134950034
0.0172241,0.0075130917178721605,0.008905188214731597,0.09169479608317999,0.002929803993920636,0.1380151468678726,0.01016685077566491,0.026089483292630864,0.0024204420883892014
0.0176897,0.007612427325160896,0.008919499371956156,0.0934371215125414,0.003100860125794866,0.13918455607332508,0.010345155167251109,0.02626982740121786,0.0024024755386233697
0.0181552,0.007710427375904215,0.008932876166976524,0.09516097493422913,0.003274527583369663,0.14033355433506622,0.010521837280072855,0.02644853846711221,0.002384075291648548
0.0186207,0.007807076278770156,0.008945314407136092,0.09686610714343027,0.0034508203906985172,0.14146195780838358,0.010696886904798256,0.02662559072516586,0.002365247411748157
0.0190862,0.007902358825891959,0.008956810198271504,0.09855227323174914,0.003629752314799055,0.14256958778663123,0.010870294449703801,0.026800958991914134,0.002345998222628502
0.0195517,0.007996260199509036,0.008967359948405605,0.10021923264723116,0.0038113368602124575,0.14365627075115658,0.011042050943335527,0.026974618677236453,0.0023263343084750253
0.0200172,0.008088765978496962,0.008976960371361838,0.10186674925271594,0.0039955872635606925,0.14472183841908995,0.011212148036882086,0.02714654579583258,0.0023062625149286357
0.0204828,0.008179862144783211,0.008985608490299599,0.1034945913825298,0.004182516488102964,0.14576612778899625,0.011380578006260748,0.027316716978512158,0.0022857899499814705
0.0209483,0.008269535089645317,0.008993301641170166,0.10510253189752859,0.004372137218292779,0.1467889811843883,0.01154733375391749,0.02748510948329542,0.002264923984791466
0.0214138,0.008357771619888134,0.009000037476092992,0.10669034823850143,0.004564461854337029,0.14779024629510099,0.011712408810342346,0.027651701206322963,0.0022436722544151343
0.0218793,0.008444558963896875,0.009005813966652242,0.1082578224779458,0.0047595025067584795,0.14876977621652648,0.011875797335301207,0.027816470692572176,0.002222042658457947
0.0223448,0.00852988477756269,0.00901062940711355,0.1098047413702245,0.0049572709909630475,0.1497274294867102,0.01203749411878541,0.027979397146378107,0.0022000433616417253
0.0228103,0.008613737150077683,0.009014482417560993,0.1113308964001141,0.005157778821813288,0.15066307012130872,0.01219749458168029,0.02814046044175625,0.002177682794288447
0.0232759,0.008696104609596507,0.00901737194695431,0.11283608382975456,0.0053610372082094765,0.1515765676464107,0.01235579477615396,0.028299641132524884,0.0021549696527198912
0.0237414,0.008776976128761863,0.009019297276106338,0.11432010474400962,0.005567057047679697,0.1524677971292218,0.012512391385767468,0.028456920462224578,0.0021319128995725524
0.0242069,0.008856341130091571,0.009020258020580683,0.1157827650942465,0.0057758489209802895,0.15333663920661492,0.012667281725307488,0.028612280373832576,0.0021085217640272502
0.0246724,0.008934189491225103,0.009020254133509558,0.11722387574054335,0.0059874230867080335,0.15418298011154744,0.012820463740342661,0.028765703519269905,0.002084805741952876
0.0251379,0.009010511550027786,0.009019285908331832,0.11864325249233197,0.006201789475925371,0.15500671169734664,0.012971936006504639,0.028917173268699192,0.00206077459596372
0.0256034,0.009085298109551072,0.009017353981451296,0.1200407161474827,0.006418957686799959,0.15580773145986465,0.013121697728494839,0.029066673719611216,0.0020364383553898233
0.026069,0.00915854044284742,0.009014459334815208,0.12141609252983823,0.006638936979259791,0.15658594255750266,0.01326974873881797,0.0292141897056982,0.002011807316159837
0.0265345,0.009230230297638522,0.009010603298413238,0.12276921252520205,0.006861736269665127,0.15734125382910416,0.01341608949624333,0.029359706805511896,0.001986892040595858
0.027,0.009300359900835676,0.009005787552696907,0.12409991211578689,0.0070873641254984516,0.15807357980971573,0.013560721083995034,0.029503211350904494,0.0019617033571197517
0.0274655,0.009368921962911085,0.009000014130919692,0.125408032413128,0.007315828760073703,0.15878284074421456,0.013703645207672418,0.02964469043525024,0.0019362523598704822
0.027931,0.009435909682118906,0.00899328542139792,0.12669341968946551,0.007547138027266066,0.15946896259880136,0.013844864192902021,0.02978413192144563,0.0019105504082319847
0.0283966,0.009501316748564794,0.008985604169692598,0.1279559254075992,0.007781299416263656,0.16013187707035917,0.013984380982722767,0.029921524449685998,0.0018846091262711456
0.0288621,0.009565137348122702,0.008976973480712268,0.1291954062492193,0.008018320046342458,0.16077152159367955,0.01412219913470597,0.030056857445016155,0.0018584404020855027
0.0293276,0.009627366166197613,0.008967396820737038,0.13041172414171587,0.008258206661665962,0.16138783934655893,0.014258322817811886,0.03019012112465272,0.0018320563870603025
0.0297931,0.009687998391332948,0.008956878019363847,0.1316047462834685,0.00850096562611092,0.16198077925276796,0.014392756808984511,0.0303213065050756,0.0018054694950345991
0.0302586,0.009747029718661286,0.008945421271373067,0.13277434516761735,0.008746602918120794,0.16255029598289708,0.01452550648948629,0.030450405408886116,0.0017786924013760957
0.0307241,0.00980445635319709,0.008933031138516562,0.13392039860431607,0.008995124125588406,0.16309634995308112,0.014656577840974462,0.030577410471429145,0.0017517380419644398
0.0311897,0.009860275012970156,0.008919712551227267,0.13504278974146555,0.009246534440769373,0.1636189073216062,0.01478597744132074,0.03070231514717661,0.0017246196120826946
0.0316552,0.009914482931998557,0.008905470810250319,0.13614140708392689,0.009500838655227951,0.1641179399834022,0.014913712460176264,0.030825113715869674,0.0016973505652167176
0.0321207,0.009967077863100015,0.008890311588195775,0.13721614451121086,0.009758041154816969,0.1645934255624256,0.015039790654283755,0.03094580128841709,0.0016699446117621948
0.0325862,0.01001805808054079,0.008874240931012863,0.1382669012936418,0.010018145914693532,0.1650453474019372,0.01516422036253896,0.03106437381254696,0.0016424157176390957
0.0330517,0.01006742238252133,0.008857265259385683,0.13929358210699344,0.0102811564943723,0.16547369455268154,0.015287010500803538,0.031180828078209342,0.0016147781028133669
0.0335172,0.010115170093498103,0.008839391370050256,0.1402960970455959,0.01054707603281809,0.16587846175897533,0.01540817055647184,0.031295161722727,0.0015870462397257355
0.0339828,0.010161301066341116,0.00882062643703283,0.1412743616339139,0.010815907243579666,0.166259649442713,0.015527710582794235,0.03140737323569159,0.0015592348516275663
0.0344483,0.010205815684326748,0.008800978012809324,0.14222829683659757,0.011087652409966502,0.16661726368529964,0.015645641192959962,0.03151746196360257,0.001531358910823785
0.0349138,0.010248714862965523,0.008780454029385832,0.14315782906700747,0.01136231338027036,0.166951316207523,0.015761973553942828,0.03162542811424593,0.0015034336368229255
0.0353793,0.01029000005166453,0.008759062799300056,0.14406289019421592,0.011639891563033515,0.16726182434737674,0.015876719380113292,0.03173127276080991,0.0014754744943943955
0.0358448,0.010329673235224228,0.008736813016543521,0.1449434175484857,0.011920387922365465,0.16754881103585034,0.01598989092662077,0.031834997845734826,0.0014474971915330558
0.0363103,0.010367736935169363,0.008713713757404429,0.14579935392522722,0.012203802973309988,0.16781230477069983,0.01610150098255005,0.0319366061842939,0.0014195176773312398
0.0367759,0.010404194210913783,0.008689774481230934,0.1466306475874343,0.012490136777264599,0.16805233958821467,0.016211562863855916,0.032036101467902194,0.001391552139758333
0.0372414,0.010439048660758858,0.008665005031114626,0.14743725226659768,0.012779388937454577,0.16826895503299596,0.016320090406080016,0.03213348826715055,0.001363617003348055
0.0377069,0.010472304422725221,0.008639415634493906,0.14821912716209545,0.013071558594463987,0.1684621961257624,0.01642709795685403,0.032228772034561516,0.001335728926793601
0.0381724,0.01050396617521753,0.008613016903676933,0.14897623693905832,0.013366644421826364,0.16863211332920255,0.016532600368193193,0.03232195910706423,0.0013079048004508147
0.0386379,0.010534039137522,0.008585819836283733,0.14970855172470732,0.013664644621677971,0.16877876251189425,0.01663661298858409,0.032413056708185464,0.001280161743749569
0.0391034,0.010562529070136514,0.008557835815607002,0.15041604710316098,0.013965556920476711,0.16890220491031627,0.016739151654870874,0.03250207294995396,0.0012525171025135578
0.039569,0.01058944227493336,0.008529076610891098,0.15109870410870913,0.01426937856479002,0.1690025070889795,0.016840232683943947,0.03258901683451543,0.001224988446188715
0.0400345,0.010614785595154766,0.008499554377528699,0.15175650921755077,0.014576106317155188,0.16907974089870767,0.016939872864235504,0.03267389825545564,0.0011975935649804978
0.0405,0.010638566415241654,0.008469281657174524,0.1523894543379955,0.014885736452015774,0.16913398343309896,0.017038089447026297,0.03275672799882922,0.001170350466900289
0.0409655,0.010660792660496226,0.008438271377775548,0.15299753679913053,0.01519826475173783,0.16916531698320042,0.017134900137568264,0.032837517743891535,0.0011432773747211918
0.041431,0.010681472796579095,0.008406536853517093,0.1535807593379576,0.015513686502709777,0.1691738289904277,0.01723032308602773,0.032916280063531186,0.0011163927228434907
0.0418966,0.010700615828841867,0.008374091784684132,0.1541391300850078,0.015831996491529852,0.1691596119977615,0.01732437687825392,0.03299302842440014,0.001089715154070071
0.0423621,0.010718231301496137,0.008340950257437155,0.15467266254844433,0.016153189001285078,0.16912276359925268,0.01741708052637759,0.03306777718673872,0.0010632635162920957
0.0428276,0.01073432929661997,0.008307126743501892,0.15518137559666514,0.016477257807925742,0.16906338638786905,0.01750845345924457,0.033140541603892355,0.0010370568590852313
0.0432931,0.010748920433002929,0.008272636099772215,0.15566529343941832,0.016804196176739335,0.16898158790171758,0.01759851551268903,0.03321133782151685,0.0010111144302167216
0.0437586,0.01076201586483074,0.008237493567825535,0.1561244456074437,0.017133996858927816,0.1688774805686793,0.017687286919651126,0.03328018287646924,0.000985455672063609
0.0442241,0.010773627280210736,0.008201714773350079,0.15655886693065427,0.017466652088292095,0.1687511816494957,0.01777478830014397,0.033347094695380955,0.000960100217942407
0.0446897,0.010783766899539094,0.008165315725483398,0.15696859751487077,0.017802153578027387,0.16860281317934786,0.017861040651074835,0.0334120920929105,0.0009350678883505419
0.0451552,0.010792447473710892,0.008128312816061523,0.15735368271712463,0.01814049251763303,0.16843250190797032,0.0179460653359259,0.0334751947696732,0.0009103786871199006
0.0456207,0.01079968228217391,0.008090722818778205,0.15771417311954422,0.018481659569940266,0.1682403792383421,0.01802988407429994,0.033536423309845284,0.0008860527974828319
0.0460862,0.01080548513082707,0.00805256288825377,0.1580501245018402,0.0188256448682614,0.16802658116399644,0.018112518931336762,0.033595799178440536,0.0008621105780509575
0.0465517,0.010809870349764359,0.008013850559013136,0.1583615978124059,0.019172438013663688,0.16779124820498978,0.01819399230700607,0.033653344718257185,0.000838572558707163
0.0470172,0.010812852790865059,0.007974603744372668,0.15864865913804882,0.01952202807237122,0.1675345253425687,0.018274326925282705,0.03370908314649301,0.0008154594364111579
0.0474828,0.010814447825231149,0.007934840735235628,0.15891137967236865,0.019874403573298106,0.16725656195257366,0.018353545823210186,0.03376303855102669,0.0007927920709190311
0.0479483,0.010814671340472808,0.007894580198796006,0.15914983568279784,0.020229552505716217,0.16695751173761705,0.018431672339858485,0.03381523588636291,0.0007705914804172893
0.0484138,0.010813539737842975,0.007853841177150624,0.15936410847631913,0.02058746231706076,0.16663753265807435,0.01850873010518221,0.03386570096923889,0.0007488788370719294
0.0488793,0.010811069929222024,0.007812643085819387,0.15955428436387492,0.02094811991087696,0.16629678686192703,0.01858474302878536,0.03391446047388934,0.00072767546249316
0.0493448,0.010807279333953663,0.007771005712173586,0.1597204546234821,0.02131151164491109,0.1659354406134991,0.01865973528859889,0.03396154192696723,0.0007070028231164389
0.0498103,0.010802185875533218,0.007728949213772124,0.1598627154620651,0.021677623329349267,0.16555366422112955,0.018733731319477462,0.034006973702117124,0.0006868825255005387
0.0502759,0.010795807978149467,0.007686494116605495,0.1599811679760187,0.022046440225207155,0.16515163196382632,0.018806755801721618,0.034050785014198066,0.0006673363115434063
0.0507414,0.010788164563081161,0.0076436613132473364,0.16007591811051144,0.022417947042874056,0.16472952201694852,0.018878833649531794,0.03409300591315304,0.0006483860536166475
0.0512069,0.010779275044949386,0.00760047206091332,0.16014707661753888,0.022792127940814564,0.1642875163769661,0.018949989999400438,0.03413366727752215,0.0006300537496195363
0.0516724,0.01076915932782691,0.007556947979427168,0.16019475901273486,0.023168966524431133,0.1638258007853466,0.019020250198448545,0.03417280080759703,0.0006123615179535334
0.0521379,0.010757837801205596,0.007513111049093554,0.16021908553094857,0.02354844584509072,0.1633445646516192,0.019089639792712755,0.0342104390182143,0.000595331592418376
0.0526034,0.010745331335822979,0.007468983608477677,0.16022018108059358,0.023930548399318706,0.16284400097566631,0.01915818451538908,0.03424661523118633,0.0005789863170308794
0.053069,0.010731661279349089,0.007424588352091318,0.16019817519677557,0.024315256128163064,0.1623243062692915,0.019225910275039223,0.034281363567367724,0.0005633481407676698
0.0535345,0.010716849451934457,0.007379948327985208,0.16015320199320593,0.024702550416731795,0.16178568047711375,0.019292843143765292,0.03431471893835676,0.0005484396122331292
0.054,0.010700918141620263,0.00733508693524769,0.160085400112909,0.025092412093906342,0.1612283268968365,0.019359009345358648,0.03434671703783144,0.0005342833742538831
0.0544655,0.010683890099611465,0.007290027921409685,0.15999491267773264,0.02548482143223371,0.16065245209894036,0.01942443524342847,0.034377394332520406,0.0005209021584012027
0.054931,0.010665788535413716,0.007244795379756188,0.15988188723667296,0.025879758147999758,0.16005826584584856,0.019489147329515625,0.03440678805280958,0.0005083187794427181
0.0553966,0.010646637111834752,0.00719941374654459,0.15974647571302472,0.026277201401486035,0.1594459810106138,0.0195531722111974,0.03443493618298561,0.0004965561297248643
0.0558621,0.010626459939850907,0.007153907798130275,0.15958883435036855,0.02667712979741226,0.15881581349517457,0.019616536600188673,0.03446187745111799,0.00048563717348750005
0.0563276,0.010605281573339342,0.007108302648000077,0.15940912365740775,0.027079521385566567,0.1581679821482293,0.019679267300445294,0.03448765131858169,0.00047558494111215607
0.0567931,0.010583127003676607,0.007062623743714269,0.15920750835166628,0.02748435366162526,0.15750270868277563,0.01974139119627543,0.03451229796922291,0.0004664225233053866
0.0572586,0.010560021654204086,0.007016896863757857,0.1589841573020608,0.02789160356816375,0.15682021759336218,0.01980293524046487,0.03453585829817071,0.00045817306521870753
0.0577241,0.010535991374560925,0.006971148114302022,0.15873924347035925,0.028301247495860226,0.15612073607309954,0.019863926442422148,0.03455837390029788,0.0004508597605066171
0.0581897,0.010511062434885128,0.006925403925876544,0.158472943851539,0.028713261284893432,0.15540449393047678,0.019924391856349352,0.0345798870583347,0.0004445058453241974
0.0586552,0.010485261519883618,0.006879691049954066,0.15818543941305804,0.029127620226535755,0.15467172350602879,0.019984358569444426,0.03460044073063988,0.00043913459226579857
0.0591207,0.010458615722772213,0.006834036555447038,0.1578769150330531,0.029544299064942693,0.15392265958889984,0.02004385369014071,0.0346200785386331,0.0004347693042463058
0.0595862,0.010431152539086611,0.006788467825118137,0.15754755943748147,0.02996327199913964,0.1531575393333481,0.020102904336389366,0.03463884475389403,0.00043143330832648804
0.0600517,0.010402899860365628,0.006743012551904928,0.15719756513622674,0.030384512685206744,0.1523766021752354,0.02016153762399041,0.03465678428493253,0.00042914994948392804
0.0605172,0.010373885967708047,0.006697698735159482,0.15682712835819207,0.03080799423866243,0.15158008974854603,0.020219780654978054,0.03467394266363494,0.00042794258433103235
0.0609828,0.010344139525204549,0.006652554676803689,0.1564364489854091,0.031233689237045982,0.15076824580197923,0.020277660506066025,0.034690366031391154,0.00042783457478161904
0.0614483,0.010313689573246278,0.0066076089774009285,0.15602573048619311,0.03166156972269951,0.14994131611565847,0.020335204217158585,0.034706101124907435,0.00042884928166758045
0.0619138,0.010282565521711652,0.006562890532144791,0.15559517984737767,0.03209160720574923,0.14909954841800177,0.020392438779932773,0.034721195261709796,0.0004310100583071181
0.0623793,0.010250797143033077,0.00651842852676551,0.1551450075056614,0.032523772667286004,0.14824319230279578,0.020449391126497383,0.03473569632534345,0.0004343402440260481
0.0628448,0.010218414565145193,0.0064742524333548,0.15467542727810132,0.0329580365627447,0.14737249914651696,0.020506088118133942,0.034749652750273724,0.00043886315763367326
0.0633103,0.010185448264316279,0.006430392006109775,0.15418665629178635,0.0333943688254818,0.14648772202594076,0.020562556534124952,0.03476311350649445,0.00044460209085471616
0.0637759,0.010151929057864422,0.006386877276996687,0.15367891491272487,0.03383273887055036,0.14558911563607999,0.020618823060674297,0.0347761280838501,0.00045158030171880536
0.0642414,0.010117888096760053,0.006343738551335237,0.1531524266739798,0.03427311559867122,0.1446769362084914,0.020674914279924735,0.034788746476078304,0.0004598210079090069
0.0647069,0.010083356858116437,0.006301006403304236,0.15260741820308374,0.03471546740039898,0.14375144142998936,0.020730856659077035,0.03480101916457969,0.00046934738007089316
0.0651724,0.010048367137569786,0.006258711671369425,0.15204411914876648,0.03515976216048106,0.14281289036180286,0.02078667653961537,0.03481299710192194,0.00048018253508364146
0.0656379,0.010012951041550667,0.006216885453634302,0.15146276210702592,0.035605967262407896,0.14186154335921206,0.020842400126643207,0.03482473169508545,0.0004923495292946524
0.0661034,0.009977140979448424,0.006175559103114828,0.15086358254657323,0.036054049593151956,0.14089766199169865,0.020898053478333897,0.0348362747884578,0.0005058713517191788
0.066569,0.009940969655670423,0.006134764222938882,0.15024681873368187,0.0365039755480932,0.13992150896364353,0.020953662495499938,0.034847678646584404,0.000520770917206456
0.0670345,0.009904470061597975,0.006094532661471382,0.1496127116564692,0.03695571103612814,0.13893334803560417,0.021009252911284765,0.03485899593668282,0.000537071059573825
0.0675,0.00986767546744089,0.006054896507366011,0.14896150494863822,0.03740922148495978,0.1379334439462029,0.021064850280980752,0.03487027971092818,0.0005547945247103455
0.0679655,0.009830619413992643,0.006015888084544472,0.14829344481270712,0.03786447184656537,0.13692206233465679,0.021120479971976996,0.03488158338851754,0.0005739639636513983
0.068431,0.009793335704288246,0.005977539947104228,0.14760877994275298,0.038321426602839055,0.1358994696639787,0.021176167153840453,0.0348929607375207,0.0005946019256257841
0.0688966,0.009755858395166898,0.0059398848741556865,0.14690776144669723,0.038780049771406346,0.13486593314487832,0.021231936788533808,0.0349044658565255,0.0006167308510768389
0.0693621,0.009718221788741602,0.005902955864589737,0.14619064276815932,0.039240304911607536,0.13382172066039041,0.021287813620773463,0.03491615315608519,0.0006403730646591006
0.0698276,0.009680460423777971,0.005866786131776582,0.1454576796079057,0.039702155130646906,0.13276710069125755,0.021343822168530934,0.0349280773399757,0.0006655507682120804
0.0702931,0.009642609066984565,0.005831409098196748,0.1447091298449206,0.04016556308990467,0.13170234224209326,0.021399986713680923,0.034940293386270416,0.0006922860337127121
0.0707586,0.00960470270421723,0.005796858390005166,0.14394525345712478,0.040630491011408795,0.1306277147683506,0.02145633129279919,0.03495285652824003,0.0007206007962080635
0.0712241,0.009566776531600037,0.0057631678315292305,0.14316631244176783,0.041096900684463415,0.12954348810412042,0.0215128796881133,0.03496582223508501,0.0007505168467299072
0.0716897,0.00952886594656567,0.005730371439701675,0.14237257073552012,0.041564753472430827,0.1284499323907829,0.021569655418609116,0.03497924619250815,0.0007820558251927581
0.0721552,0.009491006538818203,0.005698503418429181,0.14156429413429053,0.04203401031966384,0.12734731800653498,0.02162668173129586,0.03499318428313472,0.0008152392132770044
0.0726207,0.009453234081221435,0.005667598152897589,0.14074175021279747,0.04250463175858525,0.12623591549681534,0.021683981592632264,0.03500769256678754,0.0008500883272987661
0.0730862,0.009415584520616018,0.005637690203814642,0.139905208243921,0.042976577916911084,0.12511599550564773,0.021741577680116354,0.035022827260624445,0.0008866243110681366
0.0735517,0.009378093968568708,0.005608814301591184,0.1390549391178647,0.04344980852501419,0.1239878287079227,0.021799492374041055,0.035038644719145424,0.0009248681287374566
0.0740172,0.009340798692057131,0.005581005340461782,0.13819121526115638,0.04392428292342478,0.12285168574263657,0.021857747749417792,0.03505520141407655,0.0009648405576412922
0.0744828,0.00930373510409352,0.005554298372545748,0.13731431055551674,0.0443999600704644,0.12170783714710537,0.02191636556807014,0.035072553914137675,0.0010065621811297806
0.0749483,0.009266939754290836,0.005528728601849549,0.13642450025662534,0.044876798550009804,0.12055655329217074,0.021975367270899326,0.03509075886470068,0.0010500533813970247
0.0754138,0.00923044931937468,0.005504331378211593,0.1355220609128123,0.04535475657938298,0.11939810431841336,0.022034773970323572,0.035109872967344934,0.001095334332306215
0.0758793,0.009194300593644362,0.005481142191190393,0.13460727028370376,0.04583379201736365,0.11823276007338882,0.022094606442893,0.03512995295931626,0.0011424249922131664
0.0763448,0.00915853047938642,0.0054591966638970904,0.1336804072588485,0.046313862372320325,0.11706079004989965,0.022154885122081837,0.035151055592895525,0.0011913450967899677
0.0768103,0.00912317597724378,0.005438530546773332,0.13274175177635347,0.04679492481045579,0.11588246332531633,0.022215630091259625,0.03517323761468284,0.0012421141518504624
0.0772759,0.009088274176543764,0.005419179711315444,0.13179158474155675,0.04727693616416258,0.11469804850195893,0.022276861076842937,0.03519655574480328,0.001294751426179301
0.0777414,0.009053862245588004,0.005401180143745818,0.13083018794576706,0.047759852940484085,0.11350781364855031,0.022338597441628947,0.035221066656040086,0.0013492759443663276
0.0782069,0.009019977421907376,0.005384567938632397,0.1298578439851005,0.04824363132967696,0.11231202624275097,0.022400858178312097,0.03524682695290166,0.0014057064796480778
0.0786724,0.00898665700248498,0.005369379292457059,0.1288748361794456,0.0487282272138708,0.11111095311478408,0.022463661903184887,0.03527389315062874,0.0014640615467581752
0.0791379,0.0089539383339502,0.005355650497133723,0.12788144849158933,0.04921359617582156,0.10990486039215933,0.022527026850023803,0.03530232165414837,0.0015243593947884256
0.0796034,0.008921858802746832,0.0053434179334769264,0.12687796544653712,0.04969969350775559,0.10869401344550214,0.02259097086416113,0.035332168736981334,0.0015866180000624211
0.080069,0.008890455825278238,0.00533271806462157,0.1258646720510587,0.050186474220301966,0.1074786768354949,0.02265551139674343,0.03536349052010969,0.0016508550590234815
0.0805345,0.008859766838032492,0.005323587429394517,0.12484185371349266,0.050673893051510634,0.10625911426093516,0.022720665499177374,0.03539634295081122,0.0017170879811387889
0.081,0.00882982928769037,0.005316062635638673,0.12380979616384087,0.0511619044759546,0.10503558850791539,0.02278644981776366,0.035430781781467684,0.0017853338818215774
0.0814655,0.008800680621219008,0.005310180353490152,0.12276878537418383,0.05165046271391448,0.10380836140012807,0.02285288058851949,0.03546686254835395,0.0018556095753732569
0.081931,0.008772358275954009,0.0053059773086090506,0.12171910747944716,0.05213952174064419,0.10257769375029904,0.022919973632190213,0.035504640550415426,0.0019279315679473434
0.0823966,0.008744899669672705,0.00530349027536435,0.12066104869854866,0.05262903529571711,0.10134384531275184,0.022987744349450414,0.035544170828041455,0.0020023160505370724
0.0828621,0.008718342190661232,0.005302756069973424,0.11959489525595424,0.0531189568924522,0.1001070747371048,0.023056207716294873,0.03558550814184233,0.0020787788919885536
0.0833276,0.008692723187777984,0.005303811543596596,0.11852093330367043,0.053609239827420725,0.09886763952310215,0.023125378279619694,0.0356287069514378,0.0021573356320413184
0.0837931,0.008668079960516023,0.005306693575387191,0.11743944884369979,0.05409983719003447,0.09762579597658065,0.02319527015299392,0.03567382139426477,0.0022380014743981023
0.0842586,0.008644449749066948,0.005311439065497494,0.11635072765098528,0.05459070187221717,0.09638179916657194,0.023265897012622154,0.035720905264411816,0.002320791279825693
0.0847241,0.008621869724388654,0.005318084928041044,0.1152550551968684,0.05508178657816086,0.09513590288354108,0.02333727209349876,0.0357700119914879,0.0024057195592886676
0.0851897,0.008600376978279405,0.0053266680840117035,0.11415271657308561,0.0555730438341691,0.09388835959876074,0.023409408185754238,0.03582119461953231,0.002492800467117829
0.0856552,0.008580008513460604,0.005337225454159934,0.1130439964163268,0.056064425998589254,0.09263942042482044,0.023482317631194308,0.03587450578597275,0.0025820477942151694
0.0861207,0.008560801233670591,0.00534979395182676,0.11192917883338023,0.05655588527183604,0.09138933507726993,0.023556012320032196,0.035929997700638254,0.0026734749612972127
0.0865862,0.008542791933771826,0.005364410475735887,0.11080854732688764,0.05704737370650846,0.09013835183739446,0.023630503687814466,0.035987722124833255,0.002767095012178646
0.0870517,0.008526017289873728,0.0053811119027444895,0.10968238472173317,0.05753884321760252,0.08888671751612055,0.023705802712540632,0.0360477303504793,0.0028629206070982212
0.0875172,0.008510513849473468,0.00539993508055317,0.10855097309208941,0.058030245592821356,0.08763467741904878,0.023781919911976757,0.03611007317933052,0.0029609640160889864
0.0879828,0.008496318021617039,0.005420916820375655,0.1074145936891432,0.05852153250298449,0.0863824753126108,0.023858865341163046,0.036174800902269086,0.00306123711239496
0.0884483,0.008483466067082862,0.005444093889568709,0.10627352686952322,0.059012655512537135,0.08513035339134632,0.023936648590115586,0.036241963278686624,0.0031637513659364147
0.0889138,0.008471994088590278,0.005469503004222791,0.10512805202445138,0.059503566090160366,0.08387855224629548,0.02401527878172238,0.03631160951595775,0.0032685178368259647
0.0893793,0.00846193802103525,0.005497180821713933,0.10397844750963889,0.05999421561948247,0.08262731083450153,0.02409476456983371,0.0363837882490115,0.0033755471689376933
0.0898448,0.008453333621755665,0.005527163933217298,0.10282499057594793,0.0604845554098918,0.08137686644961802,0.024175114137546895,0.03645854752000639,0.0034848495835315967
0.0903103,0.008446216460828588,0.005559488856182834,0.10166795730083968,0.06097453670745157,0.08012745469361358,0.02425633519568546,0.03653593475811469,0.0035964348729357063
0.0907759,0.008440621911401928,0.005594192026773455,0.10050762252062832,0.06146411070591693,0.07887930944956789,0.024338434981472624,0.036615996759421086,0.0037103123942882846
0.0912414,0.008436585140062925,0.005631309792266184,0.09934425976356046,0.061953228557855684,0.07763266285555075,0.0244214202573991,0.036698779666940844,0.0038264910633425526
0.0917069,0.008434141097245981,0.005670878403416729,0.09817814118373847,0.062441841385873866,0.07638774527957685,0.024505297310285265,0.036784328950762044,0.003944979348336427
0.0921724,0.008433324507682366,0.0057129340067879775,0.09700953749590636,0.06292990029394827,0.07514478529562758,0.024590071950537994,0.036872689388316594,0.004065785263929767
0.0926379,0.00843416986089433,0.005757512637042967,0.0958387179111157,0.06341735637886797,0.07390400966073063,0.024675749511602535,0.036963905044784334,0.004188916365211629
0.0931034,0.008436711401736241,0.005804650209202943,0.09466595007328858,0.06390416074178734,0.07266564329308808,0.024762334849609706,0.03705801925363466,0.0043143797417800585
0.093569,0.008440983120985268,0.005854382510871123,0.093491499996695,0.06439026449989253,0.07142990925124235,0.02484983234321874,0.03715507459731005,0.004442182011896939
0.0940345,0.008447018745984233,0.005906745194422901,0.09231563200436128,0.06487561879818342,0.07019702871426906,0.024938245893656102,0.03725511288805616,0.004572329316720461
0.0945,0.008454851731339207,0.00596177376916318,0.09113860866742665,0.06536017482137271,0.06896722096298549,0.025027578924950195,0.037358175148903,0.004704827314617764
0.0949655,0.00846451524967442,0.006019503593451632,0.08996069074546388,0.06584388380590338,0.06774070336216247,0.025117834384361968,0.037464301594802026,0.004839681175560394
0.095431,0.008476042182447087,0.006079969866796636,0.08878213712778087,0.06632669705208523,0.06651769134372738,0.02520901474301129,0.03757353161392408,0.004976895575605185
0.0958966,0.008489465110824702,0.00614320762191866,0.08760320477571854,0.06680856593635123,0.06529839839094637,0.025301121996698858,0.037685903749123305,0.00511647469146328
0.0963621,0.008504816306627416,0.006209251716783801,0.08642414866596047,0.06728944192363343,0.0640830360235731,0.025394157666923396,0.03780145567957248,0.005258422195159977
0.0968276,0.008522127723338038,0.0062781368266081865,0.08524522173486886,0.06776927657985779,0.06287181378395221,0.02548812280209388,0.03792022420257568,0.005402741248788168
0.0972931,0.008541430987182231,0.00634989743583386,0.08406667482386072,0.06824802158455709,0.06166493922406529,0.025583017978936383,0.03804224521556435,0.005549434499358124
0.0977586,0.008562757388281432,0.006424567830076754,0.08288875662583782,0.06872562874360001,0.06046261789350765,0.025678843304095082,0.03816755369828309,0.005698504073746388
0.0982241,0.008586137871880943,0.006502182088047314,0.08171171363268241,0.0692020500020345,0.05926505332838378,0.02577559841592697,0.038296183695171696,0.0058499515737465415
0.0986897,0.008611603029655666,0.006582774073444284,0.08053579008383104,0.06967723745704243,0.05807244704110923,0.025873282486489853,0.03842816829795029,0.006003778071224592
0.0991552,0.008639183091095813,0.006666377426822186,0.0793612279159372,0.0701511433710027,0.05688499851110687,0.025971894223723216,0.03856353962841425,0.006159984103381684
0.0996207,0.008668907914974927,0.006753025557433011,0.07818826671363334,0.0706237201846586,0.05570290517638451,0.026071431873821584,0.038702328821446016,0.006318569668126815
0.1000862,0.008700806980902476,0.006842751635042634,0.07701714366140167,0.07109492053038574,0.05452636242598139,0.026171893223799994,0.03884456600825072,0.006479534219562153
0.1005517,0.008734909380963189,0.006935588581722511,0.07584809349656264,0.07156469724555564,0.0533555635932704,0.02627327560425123,0.03899028029982286,0.006642876663583548
0.1010172,0.00877124381144531,0.007031569063617226,0.07468134846338965,0.07203300338598989,0.05219069995010259,0.02637557589229426,0.039139499770651225,0.006808595353598757
0.1014828,0.008809838564659864,0.007130725482688538,0.07351713826835703,0.07249979223949958,0.05103196070178025,0.0264787905147134,0.03929225144266924,0.006976688086365855
0.1019483,0.008850721520852938,0.007233089968436645,0.07235569003652852,0.07296501733950392,0.0498795329828445,0.026582915451287575,0.03944856126945813,0.007147152097954318
0.1024138,0.008893920140212959,0.0073386943695995495,0.07119722826909225,0.07342863247872196,0.048733601853662774,0.02668794623830913,0.03960845412070987,0.007319984059831213
0.1028793,0.008939461454974863,0.007447570245831602,0.07004197480204787,0.073890591722931,0.04759435029780179,0.02679387797229136,0.03977195376695716,0.0074951800750750145
0.1033448,0.008987372061622959,0.007559748859362538,0.06889014876605064,0.07435084942478491,0.04646195922017087,0.026900705313864053,0.03993908286457721,0.007672735674719555
0.1038103,0.009037678113194239,0.0076752611666386006,0.06774196654741695,0.07480936023768542,0.045336607445920434,0.027008422491856025,0.04010986294107587,0.007852645814230636
0.1042759,0.009090405311683777,0.007794137809947579,0.0665976417502947,0.07526607912969882,0.044218471720080255,0.027117023307563444,0.040284314380658603,0.008034904870117845
0.1047414,0.009145578900553845,0.007916409109029795,0.06545738516000177,0.07572096139751032,0.0431077267079218,0.027226501139202667,0.04046245641009424,0.008219506636684066
0.1052069,0.009203223657348252,0.008042105052677192,0.06432140470753497,0.07617396268040748,0.042004544996028424,0.027336848946545984,0.04064430708487738,0.008406444322915147
0.1056724,0.00926336388641335,0.008171255290322789,0.06318990543525149,0.07662503897428397,0.04090909709405714,0.02744805927573864,0.04082988327569477,0.00859571054951213
0.1061379,0.009326023411727117,0.008303889123622775,0.062063089463724144,0.07707414664565419,0.03982155143717521,0.027560124264295247,0.041019200655200885,0.008787297346068389
0.1066034,0.009391225569837583,0.00844003549803351,0.06094115595977143,0.07752124244566938,0.038742074389154696,0.027673035646273575,0.04121227368510754,0.008981196148393959
0.107069,0.00945899320291184,0.008579722994385721,0.0598243011056625,0.07796628352412512,0.03767083024610777,0.027786784757623677,0.04140911560359207,0.009177397795989322
0.1075345,0.009529348651896767,0.008722979820458113,0.05871271806949697,0.0784092274434505,0.03660798124084527,0.027901362541709884,0.04160973841302849,0.009375892529670853
0.108,0.00960231374979255,0.008869833802552669,0.05760659697675892,0.07885003219266859,0.035553687547841294,0.028016759555003205,0.041814152868045795,0.009576669989350145
0.1084655,0.00967790981503998,0.009020312377073885,0.05650612488304393,0.07928865620131761,0.03450810728878622,0.02813296597294152,0.04202236846391747,0.00977971921196939
0.108931,0.00975615764502244,0.009174442582114157,0.05541148574795757,0.07972505835332223,0.03347139653871115,0.028249971595954795,0.04223439342528607,0.009985028629594979
0.1093966,0.009837077509683422,0.009332251049047512,0.05432286041018316,0.08015919800080418,0.03244370933266657,0.028367765855652368,0.042450234695226755,0.010192586067671415
0.1098621,0.009920689145260345,0.009493763994133878,0.05324042656371641,0.08059103497782165,0.031425197672938346,0.028486337821169137,0.042669897924653345,0.010402378743437612
0.1103276,0.010007011748135362,0.009659007210136008,0.05216435873526389,0.08102052961402718,0.03041601153678424,0.028605676205667393,0.04289338746207032,0.010614393264507591
0.1107931,0.010096063968803807,0.009828006057951215,0.05109482826280197,0.08144764274823388,0.029416298884673835,0.028725769372990866,0.04312070634367382,0.010828615627617607
0.1112586,0.010187863905960874,0.010000785458260001,0.050032003275292426,0.08187233574188102,0.028426205669014985,0.028846605344467126,0.0433518562838045,0.011045031217541704
0.1117241,0.01028242910070706,0.01017736988319376,0.048976048673550515,0.08229457049239058,0.02744587584334946,0.028968171805854485,0.04358683766575466,0.011263624806177713
0.1121897,0.010379776530872872,0.010357783348023755,0.04792712611226078,0.08271430944640708,0.02647545137200055,0.029090456114429227,0.04382564953293204,0.011484380551805767
0.1126552,0.010479922605463283,0.010542049402873711,0.04688539398313549,0.08313151561291389,0.025515072240155277,0.029213445306208875,0.04406828958038219,0.01170728199852143
0.1131207,0.010582883159222324,0.010730191124458511,0.04585100739921034,0.08354615257621927,0.024564876464363897,0.02933712610330684,0.04431475414667115,0.011932312075845549
0.1135862,0.01068867344731823,0.010922231107851657,0.04482411818027131,0.08395818450880521,0.023625000103439386,0.029461484921413796,0.044565038206129906,0.012159453098512914
0.1140517,0.010797308140149477,0.011118191458284398,0.04380487483940642,0.0843675761840324,0.022695577269739607,0.029586507877400803,0.044819135361461704,0.012388686766441738
0.1145172,0.010908801318272123,0.011318093782979549,0.04279342257067561,0.08477429298869386,0.021776740140814706,0.029712180797039252,0.04507703783671316,0.012619994164885979
0.1149828,0.011023166467448785,0.011521959183023348,0.04178990323789151,0.08517830093541083,0.020868618971402197,0.029838489222832557,0.0453387364706097,0.012853355764772461
0.1154483,0.01114041647381963,0.011729808245278838,0.04079445536450377,0.08557956667486419,0.01997134210575214,0.02996541842195462,0.04560422071025578,0.013088751423224744
0.1159138,0.01126056361919575,0.011941661034344402,0.039807214124578945,0.08597805750785616,0.019085035990264777,0.030092953394290356,0.045873478605199774,0.013326160384275771
0.1163793,0.011383619576475342,0.01215753708456127,0.03882831133486797,0.08637374139719708,0.018209825186422876,0.030221078880573564,0.04614649680186382,0.013565561279771352
0.1168448,0.011509595405183058,0.012377455392073885,0.037857875447952716,0.08676658697941325,0.017345832384001135,0.030349779370617856,0.04642326053833832,0.013806932130466734
0.1173103,0.01163850154713299,0.012601434406947073,0.03689603154646293,0.08715656357627126,0.01649317841453502,0.030479039111636283,0.04670375363954122,0.014050250347318475
0.1177759,0.011770347822215777,0.01282949202534409,0.03594290133835474,0.08754364120611448,0.015651982265031467,0.030608842116645416,0.04698795851274254,0.014295492732973905
0.1182414,0.011905143424310328,0.013061645581769496,0.03499860315324153,0.0879277905950069,0.014822361091903912,0.03073917217294949,0.04727585614345526,0.014542635483460357
0.1187069,0.012042896917320748,0.013297911841380987,0.034063251939768044,0.0883089831876793,0.014004430235114218,0.030870012850700217,0.0475674260916942,0.014791654190076308
0.1191724,0.012183616231339104,0.013538306992374103,0.03313695926401802,0.08868719115827187,0.013198303232504012,0.03100134751152809,0.047862646488605026,0.015042523841486464
0.1196379,0.012327308658934716,0.013782846638443787,0.03221983330894585,0.0890623874208672,0.012404091834298114,0.031133159317240932,0.048161494033466104,0.015295218826022736
0.1201034,0.01247398085157076,0.014031545791326578,0.031311978874822226,0.08943454563980716,0.011621906017762721,0.031265431238585724,0.04846394399106614,0.015549712934193093
0.120569,0.012623638816148945,0.01428441886342722,0.030413497380683937,0.08980364023978674,0.01085185400200115,0.03139814606406965,0.04876997018946159,0.015805979361400144
0.1210345,0.01277628791168317,0.014541479660533268,0.0295244868667775,0.09016964641571744,0.010094042262870067,0.031531286408836276,0.04907954501811821,0.01606399071087128
0.1215,0.01293193284610305,0.014802741374621231,0.028645041997986374,0.09053254014235249,0.009348575547999314,0.031664834723592904,0.04939263942644156,0.016323718996802142
0.1219655,0.013090577673188275,0.015068216576757701,0.027775254068231208,0.09089229818366631,0.00861555689189856,0.03179877330358479,0.0497092229227012,0.01658513564771513
0.122431,0.013252225789634831,0.015337917210098797,0.02691521100583257,0.09124889810198022,0.007895087631134043,0.031933084297612095,0.050029263573353265,0.016848211510034523
0.1228966,0.013416879932254157,0.015611854582991247,0.02606499737982541,0.09160231826682627,0.0071872674195588016,0.03206774971708523,0.05035272800276599,0.01711291685187978
0.1233621,0.013584542175306377,0.01589003936217844,0.025224694407214344,0.09195253786354164,0.006492194243580036,0.03220275144511433,0.05067958139335264,0.01737922136707848
0.1238276,0.01375521392796879,0.016172481566114744,0.02439437996115869,0.09229953690158543,0.005809964437447614,0.03233807124562835,0.051009787486116356,0.01764709417940037
0.1242931,0.013928895931940804,0.01645919055839139,0.023574128580076202,0.09264329622257,0.005140672698548412,0.03247369077251964,0.05134330858161145,0.017916503847013886
0.1247586,0.014105588259186562,0.016750175041277314,0.02276401147765405,0.09298379750799851,0.004484412102691858,0.03260959157880983,0.051680105541326404,0.018187418367166325
0.1252241,0.014285290309816434,0.017045443049378273,0.021964096553755648,0.0933210232867001,0.0038412741193726784,0.03274575512583315,0.05202013778949376,0.018459805181088924
0.1256897,0.014468000810108541,0.01734500194341769,0.021174448406211615,0.09365495694195307,0.003211348626997311,0.03288216279243378,0.05236336331533248,0.018733631179127838
0.1261552,0.01465371781067139,0.0176488584041427,0.02039512834348305,0.09398558271828668,0.002594723928060718,0.03301879588417356,0.0527097386757281,0.019008862706101966
0.1266207,0.014842438684748653,0.017957018426358773,0.019626194398185113,0.09431288572795188,0.0019914867642605843,0.03315563564254668,0.05305921899835594,0.019285465566888437
0.1270862,0.015034160126667036,0.018269487313096473,0.01886770134145876,0.09463685195705095,0.001401722331536061,0.03329266325419779,0.05341175798525204,0.019563405032236428
0.1275517,0.015228878150428062,0.018586269669913717,0.018119700698178243,0.0949574682713162,0.0008255142950184184,0.03342985986013983,0.053767307916836336,0.019842645844809905
0.1280172,0.015426588088444456,0.018907369399337022,0.0173822407629818,0.0952747224215276,0.00026294480388111216,0.033567206564967735,0.054125819656392134,0.020123152225459778
0.1284828,0.015627284590421814,0.01923278969544504,0.016655366617112907,0.09558860304855932,-0.0002859054939231117,0.03370468444606398,0.054487242655005264,0.020404887879725823
0.1289483,0.015830961622386064,0.019562533038597636,0.015939120146059135,0.09589909968804484,-0.0008209574370503317,0.03384227456279156,0.054851524956966456,0.020687816004568624
0.1294138,0.016037612465857227,0.019896601190313654,0.015233540057975583,0.09620620277465099,-0.0013421333362909267,0.03397995796567012,0.055218613205639755,0.020971899295331626
0.1298793,0.016247229717169884,0.020234995188300332,0.014538661902879788,0.09650990364595137,-0.0018493569602444314,0.034117715705530634,0.055588452649799565,0.021257099952933234
0.1303448,0.016459805286940736,0.020577715341637298,0.013854518092604783,0.09681019454589086,-0.0023425535211556454,0.03425552884264419,0.055960987150439026,0.02154337969128869
0.1308103,0.01667533039968363,0.02092476122611791,0.013181137921496928,0.09710706862783339,-0.002821649660923677,0.03439337845582014,0.05633615918805244,0.021830699744961376
0.1312759,0.01689379559357243,0.021276131679750638,0.012518547587845028,0.09740051995718577,-0.003286573437295364,0.0345312456514692,0.05671390987039503,0.022119020877042928
0.1317414,0.01711519072035215,0.021631824798423047,0.011866770216027134,0.09769054351359041,-0.0037372543102542344,0.03466911157262699,0.057094178940723696,0.02240830338726143
0.1322069,0.01733950494539874,0.02199183793173083,0.011225825879361386,0.09797713519267964,-0.004173623128615875,0.03480695740793353,0.057476904786522856,0.0226985071203167
0.1326724,0.017566726747928113,0.022356167678974186,0.010595731623647122,0.09826029180738452,-0.0045956121168403375,0.03494476440056428,0.05786202444871999,0.022989591474441566
0.1331379,0.017796843921354916,0.02272480988532377,0.009976501491382472,0.09854001108879062,-0.005003154862071947,0.035082513857108345,0.05824947363139552,0.023281515410187744
0.1336034,0.01802984357380175,0.023097759638158376,0.00936814654664451,0.09881629168653437,-0.005396186301416632,0.03522018715638935,0.05863918671199201,0.023574237459434884
0.134069,0.01826571212875955,0.023475011263576404,0.008770674900618086,0.09908913316873393,-0.005774642709466515,0.035357765758224406,0.05903109675202779,0.023867715734621084
0.1345345,0.01850443532589997,0.02385655832308333,0.008184091737759379,0.09935853602144987,-0.0061384616860810865,0.035495231212116576,0.059425135508320695,0.024161907938193034
0.135,0.018745998222040556,0.024242393610457266,0.007608399342580179,0.09962450164767189,-0.006487582144433806,0.03563256516587615,0.059821233444727305,0.024456771372273846
0.1354655,0.018990385192263773,0.024632509148794897,0.007043597127038897,0.09988703236582853,-0.006821944299332528,0.03576974937416625,0.060219319744403255,0.024752262948546485
0.135931,0.01923757993119077,0.025026896187740053,0.006489681658524257,0.10014613140781738,-0.007141489655821699,0.03590676570696836,0.060619322322590034,0.02504833919835049
0.1363966,0.019487565454410948,0.025425545200897137,0.005946646688417614,0.10040180291655337,-0.007446160998073787,0.03604359615796356,0.0610211678399333,0.025344956282989797
0.1368621,0.019740324100068332,0.025828445883431576,0.0054144831812198415,0.10065405194303266,-0.007735902378576948,0.03618022285282554,0.06142478171633757,0.02564207000424915
0.1373276,0.019995837530605805,0.02623558714985954,0.004893179344228751,0.10090288444290924,-0.008010659107625483,0.0363166280574213,0.06183008814536181,0.02593963581511678
0.1377931,0.02025408673466808,0.026646957132028935,0.004382720657753035,0.10114830727258177,-0.008270377743119324,0.036452794185915835,0.0622370101091596,0.0262376088307107
0.1382586,0.020515052029164343,0.02706254317729358,0.003883089905848774,0.1013903281847887,-0.008515006080678494,0.03658870380877653,0.06264546939396771,0.026535943839406006
0.1387241,0.020778713061491327,0.027482331846882212,0.0033942672075645912,0.10162895582371026,-0.008744493144078387,0.03672433966067336,0.06305538660614611,0.02683459531416041
0.1391897,0.021045048811917526,0.02790630891446392,0.0029162300486816136,0.10186419971957664,-0.008958789176011514,0.03685968464827038,0.06346668118877186,0.027133517424035185
0.1396552,0.021314037596129085,0.02833445936491121,0.0024489533139344308,0.10209607028278214,-0.009157845629181231,0.0369947218579042,0.06387927143878919,0.027432664045908488
0.1401207,0.02158565706793769,0.0287667673932618,0.001992409319699304,0.10232457879750526,-0.00934161515773281,0.03712943456314484,0.0642930745247174,0.02773198877637826
0.1405862,0.021859884222150794,0.029203216403879958,0.0015465678471358896,0.10254973741483372,-0.009510051609026987,0.0372638062322344,0.06470800650491813,0.02803144494385187
0.1410517,0.02213669539760411,0.029643789009818063,0.0011113961757687626,0.10277155914539389,-0.009663110015760899,0.037397820535399036,0.06512398234642325,0.028330985620819697
0.1415172,0.022416066280356337,0.030088467032378757,0.0006868591174950293,0.10299005785148273,-0.009800746588441102,0.037531461352029546,0.06554091594432437,0.028630563636309753
0.1419828,0.022697971907045814,0.03053723150087809,0.000272919051004322,0.10320524823870085,-0.009922918708213057,0.03766471277772593,0.06595872014172494,0.028930131588520435
0.1424483,0.022982386668408638,0.030990062652609857,-0.0001304640434025045,0.10341714584708472,-0.010029584920051234,0.037797559131201176,0.06637730675025537,0.029229641857628233
0.1429138,0.023269284312957567,0.031446939933011335,-0.0005233325486096211,0.10362576704173738,-0.010120704926313777,0.03792998496103956,0.06679658657115176,0.02952904661876701
0.1433793,0.023558637950820888,0.03190784199603063,-0.0009057311751110059,0.10383112900295798,-0.01019623958066538,0.038061975052304575,0.06721646941689784,0.02982829785517532
0.1438448,0.023850420057740223,0.032372746704696004,-0.00127770692507728,0.10403324971587169,-0.010256150882371902,0.03819351443299146,0.0676368641334299,0.03012734737150792
0.1443103,0.024144602479226167,0.032841631131887566,-0.0016393090560780478,0.10423214795956386,-0.010300401970969935,0.03832458838031917,0.0680576786229038,0.03042614680730744
0.1447759,0.024441156434870326,0.03331447156131207,-0.0019905890444731197,0.10442784329572291,-0.010328957121314222,0.038455182426856326,0.06847881986702295,0.030724647650632028
0.1452414,0.024740052522812406,0.0337912434886814,-0.0023316005484859304,0.10462035605679812,-0.010341781739005448,0.038585282366475425,0.06890019395092556,0.031022801251834414
0.1457069,0.025041260724360703,0.034271921623095544,-0.0026623993709724105,0.10480970733367859,-0.010338842356200546,0.03871487426012951,0.06932170608762876,0.031320558837487765
0.1461724,0.02534475040876434,0.03475647988863104,-0.002983043421898487,0.10499591896290073,-0.010320106627807227,0.03884394444144534,0.06974326064302713,0.03161787152445345
0.1466379,0.0256504903381354,0.035244891426135495,-0.003293592680539338,0.10517901351339144,-0.01028554332806417,0.03897247952212735,0.07016476116144214,0.031914690334085415
0.1471034,0.025958448672519122,0.03573712859522906,-0.0035941091574134567,0.10535901427275625,-0.010235122347507952,0.039100466397166946,0.07058611039171889,0.032210966206565925
0.147569,0.026268592975110288,0.036233162976513224,-0.0038846568559645035,0.1055359452331222,-0.010168814690327611,0.03922789224985124,0.07100721031386566,0.032506650015367046
0.1480345,0.026580890217613857,0.036732965373987216,-0.004165301734003877,0.10570983107654727,-0.010086592472107438,0.03935474455656609,0.0714279621662314,0.03280169258183212
0.1485,0.026895306785748006,0.03723650581767202,-0.004436111664926878,0.10588069716000845,-0.009988428917958333,0.03948101109138746,0.07184826647321557,0.03309604468987151
0.1489655,0.027211808484887887,0.037743753566441746,-0.0046971563987152735,0.10604856949998176,-0.009874298361037759,0.03960667993045535,0.07226802307350444,0.03338965710076672
0.149431,0.027530360545848516,0.03825467711106185,-0.004948507522739025,0.10621347475662692,-0.009744176241457948,0.03973173945612451,0.07268713114882698,0.03368248056807674
0.1498966,0.027850927630805263,0.0387692441774336,-0.005190238422369834,0.10637544021758921,-0.00959803910558161,0.039856178360886466,0.07310548925322341,0.03397446585264065
0.1503621,0.028173473839350583,0.03928742173004396,-0.005422424241419126,0.10653449378143127,-0.009435864605704019,0.03997998565105783,0.07352299534281849,0.03426556373767012
0.1508276,0.02849796271468557,0.039809175975620156,-0.005645141842412984,0.1066906639407062,-0.00925763150011992,0.04010315065023038,0.07393954680609142,0.03455572504392549
0.1512931,0.028824357249944848,0.04033447236698795,-0.00585846976671646,0.1068439797646835,-0.00906331965357341,0.04022566300247891,0.07435504049463329,0.03484490064496873
0.1517586,0.02915261989465321,0.040863275607132814,-0.006062488194519616,0.10699447088173976,-0.008852910038088605,0.040347512675323036,0.0747693727543827,0.03513304148248647
0.1522241,0.029482712561312276,0.04139554965346311,-0.0062572789046975745,0.10714216746142613,-0.008626384734178691,0.04046868996243935,0.07518243945733007,0.03542009858167609
0.1526897,0.02981459663211543,0.04193125772227446,-0.006442925234556779,0.10728710019622703,-0.00838372693243059,0.040589185486120255,0.07559413603368047,0.03570602306668775
0.1531552,0.030148232965789144,0.04247036229341447,-0.006619512039479586,0.10742930028302529,-0.008124920935462255,0.04070899019947601,0.07600435750446453,0.03599076617611495
0.1536207,0.030483581904558757,0.043012825115146945,-0.006787125652479204,0.10756879940428968,-0.007849952160249092,0.040828095388377,0.07641299851458729,0.0362742792785262
0.1540862,0.030820603281236737,0.04355860720921486,-0.006945853843676902,0.1077056297090016,-0.00755880714081571,0.04094649267313345,0.07681995336630415,0.03655651388802986
0.1545517,0.031159256426431168,0.044107668876101076,-0.007095785779713301,0.10783982379333691,-0.007251473531288693,0.04106417400991097,0.07722511605311362,0.036837421679864236
0.1550172,0.031499500175872094,0.044659969700485615,-0.007237011983105496,0.10797141468111908,-0.006927940109305697,0.04118113169188076,0.07762838029405544,0.03711695450600487
0.1554828,0.031841292877853214,0.045215468556898106,-0.0073696242915616125,0.10810043580405992,-0.00658819677977572,0.041297358350104604,0.07802963956840316,0.03739506441078041
0.1559483,0.032184592400786374,0.045774123615563454,-0.007493715817264374,0.10822692098180385,-0.006232234578985087,0.041412846954155126,0.0784287871507394,0.03767170364648877
0.1564138,0.03252935614086619,0.04633589234843875,-0.007609380906135134,0.10835090440179192,-0.005860045679043261,0.04152759081247226,0.07882571614640206,0.03794682468900477
0.1568793,0.032875541029842074,0.04690073153543891,-0.007716715097089735,0.10847242059896178,-0.005471623392662279,0.04164158357245729,0.07922031952728915,0.038220380253370004
0.1573448,0.03322310354289534,0.04746859727084848,-0.007815815081297497,0.10859150443529962,-0.005066962178263295,0.041754819220306126,0.07961249016801063,0.038492323309356
0.1578103,0.03357199970661897,0.04803944496991654,-0.007906778661454502,0.10870819107925918,-0.004646057645403359,0.041867292080583686,0.08000212088237414,0.0387626070969908
0.1582759,0.033922185107098,0.04861322937563182,-0.007989704711082306,0.10882251598506265,-0.004208906560515242,0.041978996815541715,0.08038910446019212,0.03903118514203952
0.1587414,0.03427361489808869,0.04918990456567459,-0.008064693133863024,0.10893451487189731,-0.0037555068529529357,0.042089928424182604,0.08077333370439659,0.039298011271429095
0.1592069,0.034626243809295236,0.04976942395954201,-0.008131844823021647,0.10904422370302114,-0.0032858576213351948,0.04220008224107202,0.08115470146844767,0.03956303962860754
0.1596724,0.03498002615474305,0.05035174032584318,-0.008191261620766286,0.10915167866478999,-0.0027999591401794495,0.04230945393490345,0.08153310069402127,0.03982622468882814
0.1601379,0.03533491584124799,0.050936805789759905,-0.008243046277796894,0.10925691614561905,-0.0022978128668183274,0.04241803950681792,0.08190842444896061,0.04008752127434888
0.1606034,0.03569086637698158,0.05152457184066893,-0.00828730241289279,0.10935997271489131,-0.0017794214485909508,0.04252583528848221,0.0822805659654761,0.04034688456953784
0.161069,0.036047830880132435,0.05211498933992146,-0.008324134472589164,0.10946088510182654,-0.0012447887303011493,0.04263283793992855,0.08264941867857696,0.04060427013587565
0.1615345,0.036405762087664446,0.05270800852877562,-0.00835364769095258,0.10955969017432488,-0.0006939197619346241,0.042739044447158835,0.08301487626471779,0.04085963392684656
0.162,0.03676461236417254,0.053303579036477554,-0.008375948049465278,0.10965642491779948,-0.00012682080662701302,0.04284445211951568,0.08337683268064253,0.04111293230271042
0.1624655,0.03712433371083685,0.05390164988848679,-0.008391142237028056,0.10975112641401306,0.00045650065112529613,0.042949058586823054,0.08373518220240848,0.04136412204514835
0.162931,0.03748487777447581,0.05450216951484154,-0.008399337610091276,0.10984383181993282,0.0010560358970198398,0.04305286179629854,0.08408981946457288,0.04161316037177533
0.1633966,0.03784619585669894,0.055105085758659626,-0.008400642152923505,0.10993457834661854,0.0016717749782765355,0.04315586000923967,0.0844406394995245,0.04186000495051351
0.1638621,0.03820823892315963,0.05571034588477065,-0.008395164438027177,0.11002340323815818,0.0023037066947482654,0.04325805179748652,0.08478753777694359,0.04210461391382029
0.1643276,0.03857095761290834,0.05631789658847491,-0.008383013586710555,0.11011034375066545,0.002951818589821967,0.043359436039662955,0.08513041024337305,0.04234694587276574
0.1647931,0.03893430224784676,0.05692768400442466,-0.008364299229825104,0.11019543713135377,0.003616096941118641,0.0434600119171987,0.08546915336188471,0.04258695993095436
0.1652586,0.03929822284228345,0.057539653715622974,-0.008339131468677308,0.11027872059770084,0.004296526751000711,0.0435597789101343,0.08580366415182404,0.04282461569828745
0.1657241,0.03966266911259168,0.05815375076253526,-0.00830762083612383,0.11036023131671746,0.004993091736895207,0.043658736792711046,0.0861338402286171,0.04305987330456336
0.1661897,0.040027590486970355,0.058769919652308565,-0.008269878257858774,0.11044000638433353,0.005705774321441321,0.043756885628747855,0.08645957984362372,0.04329269341291418
0.1666552,0.04039293611530907,0.05938810436809288,-0.008226015013901742,0.11051808280491376,0.006434555622471012,0.04385422576680724,0.08678078192402207,0.04352303723307828
0.1671207,0.04075865487915821,0.0600082483784589,-0.008176142700295284,0.11059449747091439,0.0071794154428316045,0.04395075783515235,0.08709734611270994,0.04375086653450854
0.1675862,0.04112469540180524,0.06063029464690582,-0.008120373191020257,0.11066928714269188,0.007940332260059727,0.044046482736497174,0.08740917280820881,0.043976143659316666
0.1680517,0.041491006058458166,0.06125418564145271,-0.008058818600137522,0.1107424884284742,0.0087172832159164,0.044141401642551696,0.08771616320455668,0.0441988315350535
0.1685172,0.04185753498653733,0.06187986334430681,-0.007991591244164285,0.11081413776450429,0.009510244105793611,0.04423551598836374,0.08801821933117575,0.044418893687325385
0.1689828,0.04222423009607654,0.06250726926160208,-0.007918803604693336,0.11088427139536526,0.010319189368003068,0.04432882746645868,0.0883152440927006,0.04463629425224628
0.1694483,0.04259103908023466,0.06313634443320149,-0.007840568291263266,0.11095292535449604,0.011144092072958123,0.04442133802077834,0.08860714130875184,0.04485099798872517
0.1699138,0.0429579094259187,0.06376702944255662,-0.007756998004487718,0.11102013544490523,0.011984923912259932,0.04451304984042005,0.08889381575364051,0.04506297029058792
0.1703793,0.0433247884245188,0.06439926442661846,-0.0076682054994515175,0.11108593722009039,0.012841655187698897,0.04460396535317678,0.08917517319598771,0.04527217719853245
0.1708448,0.04369162318275587,0.06503298908579341,-0.007574303549381519,0.11115036596516908,0.013714254800182436,0.04469408721887929,0.08945112043824363,0.04547858541191601
0.1713103,0.04405836063364182,0.06566814269393818,-0.007475404909599786,0.11121345667822777,0.014602690238600032,0.04478341832254155,0.08972156535609005,0.04568216230037274
0.1717759,0.044424947547552086,0.06630466410838706,-0.00737162228176664,0.11127524405189365,0.015506927568636397,0.0448719617673111,0.08998641693770978,0.045882875915259726
0.1722414,0.044791330543410175,0.06694249178000482,-0.007263068278420844,0.11133576245513505,0.016426931421543587,0.044959720867226535,0.09024558532290643,0.04608069500092923
0.1727069,0.045157456099983215,0.06758156376325768,-0.007149855387823991,0.11139504591529491,0.01736266498288275,0.045046699139784985,0.09049898184205775,0.04627558900582455
0.1731724,0.04552327056728781,0.06822181772629524,-0.007032095939115902,0.11145312810036155,0.018314089981246104,0.04513290029832306,0.09074651905488555,0.04646752809339662
0.1736379,0.04588872017810518,0.06886319096103591,-0.006909902067787544,0.11151004230148084,0.01928116667696968,0.04521832824421537,0.09098811078902444,0.046656483152838345
0.1741034,0.046253751059604414,0.06950562039324856,-0.006783385681477769,0.11156582141571349,0.020263853850847297,0.04530298705889572,0.09122367217837202,0.04684242580963338
0.174569,0.046618309245072785,0.07014904259262325,-0.006652658426099942,0.11162049792904019,0.021262108792856,0.045386880995706175,0.09145311970120212,0.04702532843591622
0.1750345,0.04698234068575179,0.07079339378282436,-0.006517831652304396,0.11167410389961734,0.02227588729090336,0.045470014471579875,0.0916763712180229,0.04720516416064009
0.1755,0.04734579126277765,0.07143860985151991,-0.006379016382282479,0.11172667094128488,0.02330514361960675,0.045552392058563436,0.09189334600916106,0.047381906879549456
0.1759655,0.04770860679922461,0.07208462636038115,-0.006236323276917846,0.11177823020732805,0.02434983052911482,0.04563401847518529,0.09210396481205416,0.04755553126495324
0.176431,0.04807073307224972,0.07273137855504681,-0.00608986260329046,0.11182881237449353,0.025409899233981223,0.04571489857767677,0.0923081498582329,0.04772601277529526
0.1768966,0.048432115825337164,0.0733788013750472,-0.005939744202538539,0.1118784476272613,0.02648529940210081,0.04579503735105279,0.09250582490997615,0.047893327664517794
0.1773621,0.04879270078064034,0.07402682946368282,-0.005786077458083506,0.1119271656423723,0.02757597914371848,0.04587443990005956,0.09269691529662151,0.048057452991214195
0.1778276,0.049152433651419386,0.07467539717785268,-0.005628971264222801,0.11197499557361186,0.028681885000521015,0.0459531114399971,0.09288134795051474,0.04821836662756624
0.1782931,0.049511260154571954,0.07532443859782699,-0.005468533995095276,0.1120219660368479,0.02980296193482248,0.046031057287424446,0.09305905144258143,0.048376047268062154
0.1787586,0.04986912602325437,0.07597388753695901,-0.005304873474023735,0.11206810509532297,0.030939153318853815,0.04610828285075612,0.09322995601750406,0.04853047443799084
0.1792241,0.050225977019590286,0.07662367755133062,-0.005138096943239113,0.11211344024519872,0.03209040092416765,0.04618479362075825,0.09339399362848815,0.048681628501708256
0.1796897,0.050581758947463515,0.07727374194932621,-0.004968311033990705,0.11215799840135135,0.033256644911169336,0.046260595160952545,0.09355109797160266,0.04882949067067155
0.1801552,0.05093641766539181,0.07792401380112934,-0.0047956217370467595,0.11220180588341695,0.034437823818785226,0.04633569309793623,0.09370120451968074,0.04897404301123637
0.1806207,0.05128989909947819,0.07857442594813645,-0.004620134373589665,0.11224488840208653,0.03563387455427927,0.046410093111625764,0.09384425055576899,0.049115268452212875
0.1810862,0.051642149256436475,0.07922491101228181,-0.004441953566509869,0.11228727104565116,0.036844732383228745,0.04648380092543168,0.0939801752061153,0.04925315079217593
0.1815517,0.05199311423668759,0.07987540140526794,-0.004261183212102551,0.1123289782667984,0.03807033091966959,0.04655682229637247,0.09410891947268527,0.049387674706525074
0.1820172,0.052342740247523147,0.08052582933769505,-0.004077926452170979,0.11237003386966136,0.039310602116421865,0.04662916300513471,0.09423042626519808,0.04951882575428993
0.1824828,0.05269097361633225,0.08117612682808256,-0.003892285646540393,0.11241046099712254,0.040565476255605436,0.046700828846086936,0.0943446404326727,0.04964659038467689
0.1829483,0.05303776080388754,0.08182622571177607,-0.0037043623459861574,0.11245028211837382,0.041834881939355896,0.04677182561725461,0.09445150879447495,0.049770955943352534
0.1834138,0.05338304841768573,0.08247605764973265,-0.003514257265579874,0.11248951901673487,0.04311874608075068,0.04684215911026346,0.0945509801708568,0.049891910678459474
0.1838793,0.0537267832253375,0.08312555413717856,-0.0033220702584570603,0.11252819277773206,0.04441699389495539,0.04691183510025816,0.09464300541297879,0.05000944374635995
0.1843448,0.05406891216800148,0.08377464651213459,-0.0031279002900099673,0.11256632377744054,0.04572954889060017,0.04698085933580327,0.09472753743240728,0.05012354521710229
0.1848103,0.05440938237385636,0.0844232659638055,-0.0029318454125090523,0.11260393167109164,0.0470563328613961,0.04704923752877293,0.09480453123007777,0.050234206079605416
0.1852759,0.054748141171605036,0.0850713435408315,-0.002734002740156569,0.11264103538194802,0.04839726587800119,0.0471169753442358,0.0948739439247163,0.050341418246556094
0.1857414,0.055085136104004305,0.0857188101594001,-0.0025344684245756574,0.11267765309044771,0.049752266280145285,0.04718407839034115,0.09493573478071039,0.05044517455901417
0.1862069,0.05542031494141396,0.08636559661121768,-0.002333337630738242,0.1127138022236185,0.051121250669023094,0.04725055220821241,0.09498986523542235,0.05054546879072059
0.1866724,0.0557536256953587,0.08701163357133937,-0.002130704513334953,0.11274949944476276,0.05250413389996394,0.04731640226185433,0.09503629892593732,0.050642295652103986
0.1871379,0.056085016632096536,0.08765685160585687,-0.0019266621935902061,0.11278476064341238,0.0539008290753871,0.04738163392808059,0.09507500171523947,0.05073565079398156
0.1876034,0.05641443628618727,0.08830118117944379,-0.0017213027365254533,0.11281960092555268,0.05531124753805125,0.04744625248646863,0.09510594171781038,0.050825530810950585
0.188069,0.05674183347405449,0.08894455266275943,-0.0015147171286734856,0.11285403460411338,0.056735298864606806,0.04751026310934932,0.09512908932464383,0.050911933244466676
0.1885345,0.05706715730753465,0.08958689633971229,-0.001306995256246482,0.1128880751897243,0.05817289085946011,0.04757367085183906,0.09514441722767143,0.05099485658560529
0.189,0.05739035720740626,0.09022814241458552,-0.0010982258837602828,0.11292173538173372,0.05962392954895845,0.04763648064192252,0.0951519004435935,0.05107430027750283
0.1894655,0.05771138291689207,0.09086822101902751,-0.000888496633117141,0.11295502705948798,0.06108831917590453,0.04769869727059473,0.09515151633710962,0.05115026471747366
0.189931,0.058030184515127044,0.09150706221891146,-0.0006778939631489989,0.1129879612738718,0.06256596219440895,0.047760325382072276,0.0951432446435425,0.05122275125879947
0.1903966,0.058346712430584514,0.09214459602106823,-0.00046650314962315523,0.1130205482391108,0.06405675926508865,0.04782136946408363,0.09512706749084796,0.051291762212187536
0.1908621,0.058660917454452545,0.09278075237989841,-0.00025440826571205026,0.11305279732483896,0.065560609250619,0.04788183383824965,0.09510296942100363,0.051357300846894584
0.1913276,0.05897275075395229,0.09341546120387005,-4.169216292876622e-05,0.11308471704843533,0.06707740921164658,0.047941722650565066,0.09507093741076796,0.05141937139151319
0.1917931,0.059282163885589975,0.0940486523619098,0.0001715635474703025,0.11311631506763513,0.06860705440306916,0.048001039861991966,0.09503096089180058,0.05147797903441797
0.1922586,0.059589108808333936,0.09468025568969589,0.00038527851261432774,0.11314759817342082,0.07014943827068908,0.04805978923917586,0.09498303177013492,0.051533129923868444
0.1927241,0.05989353789670758,0.09531020099586139,0.0005993736556773636,0.11317857228319854,0.07170445244824546,0.048117974345294766,0.09492714444499266,0.051584831167765494
0.1931897,0.060195403953789466,0.09593841806811662,0.0008137711930671492,0.11320924243426499,0.07327198675483058,0.04817559853105181,0.09486329582693019,0.051633090833058136
0.1936552,0.06049466022411134,0.09656483667929915,0.0010283946511425788,0.11323961277756929,0.07485192919269494,0.04823266492582161,0.09479148535530726,0.051677917944797556
0.1941207,0.060791260406445495,0.09718938659335975,0.0012431688824591318,0.11326968657177452,0.07644416594544524,0.04828917642896053,0.09471171501506875,0.05171932248483536
0.1945862,0.06108515866647336,0.09781199757129305,0.0014580200815416543,0.1132994661776235,0.0780485813766388,0.048345135701290405,0.0946239893528316,0.051757315390163754
0.1950517,0.061376309649327956,0.0984325993770212,0.0016728758001839624,0.11332895305261405,0.07966505802877745,0.048400545156765354,0.09452831549227017,0.051791908550895854
0.1955172,0.06166466849200393,0.09905112178323927,0.001887664962274796,0.11335814774598924,0.08129347662270368,0.04845540695433074,0.09442470314879475,0.051823114807885
0.1959828,0.06195019083562971,0.09966749457723068,0.0021023178781497034,0.1133870498940489,0.08293371605740092,0.04850972298998286,0.09431316464351933,0.051850947949982566
0.1964483,0.062232832837597556,0.10028164756666146,0.0023167662584684928,0.11341565821578939,0.08458565341019987,0.04856349488903776,0.09419371491651546,0.05187542271093457
0.1969138,0.06251255118354786,0.10089351058536086,0.002530943227617956,0.1134439705088782,0.08624916393739258,0.04861672399861699,0.0940663715393498,0.05189655476591756
0.1973793,0.0627893030992051,0.1015030134990962,0.002744783336639669,0.11347198364596985,0.08792412107525567,0.04866941138035786,0.09393115472690351,0.051914360727715075
0.1978448,0.06306304636206306,0.10211008621134916,0.0029582225756827614,0.11349969357136958,0.089610396441484,0.04872155780335537,0.09378808734847295,0.05192885814253635
0.1983103,0.0633337393129174,0.10271465866910053,0.00317119838598164,0.1135270952980499,0.09130785983703628,0.0487731637373427,0.09363719493815084,0.05194006548547996
0.1987759,0.06360134086724357,0.10331666086862992,0.003383649671358697,0.11355418290502456,0.0930163792483931,0.04882422934611688,0.09347850570448894,0.051948002155645975
0.1992414,0.06386581052641858,0.10391602286133703,0.003595516809252067,0.1135809495350841,0.0947358208502282,0.04887475448121565,0.09331205053944361,0.05195268847090109
0.1997069,0.06412710838878471,0.10451267475958992,0.0038067416612684968,0.11360738739289593,0.09646604900849307,0.04892473867585145,0.09313786302660658,0.05195414566230191
0.2001724,0.0643851951605538,0.105106546742607,0.004017267583261395,0.113633487743472,0.09820692628391352,0.04897418113910808,0.09295597944872404,0.051952395868182
0.2006379,0.06464003216655041,0.10569756906237768,0.004227039434934139,0.11365924091100714,0.09995831343589719,0.04902308075040522,0.09276643879450777,0.05194746212790865
0.2011034,0.06489158136079234,0.10628567204962694,0.004436003588968725,0.113684636278091,0.10172006942684958,0.049071436054235966,0.09256928276474208,0.05193936837531558
0.201569,0.06513980533690664,0.1068707861198281,0.004644107939679865,0.11370966228529722,0.10349205142689569,0.04911924525518254,0.0923645557776907,0.05192813943181795
0.2020345,0.06538466733837955,0.10745284177926777,0.004851301911194689,0.11373430643115301,0.10527411481900306,0.049166506213215326,0.0921523049738076,0.05191380099921615
0.2025,0.06562613126863899,0.1080317696311663,0.005057536465158259,0.11375855527249334,0.10706611320450184,0.04921321643928029,0.09193258021975508,0.051896379652194874
0.2029655,0.06586416170096819,0.10860750038185742,0.005262764107965147,0.11378239442520491,0.10886789840899623,0.04925937309117966,0.0917054341117322,0.05187590283052424
0.203431,0.06609872388824999,0.10917996484703073,0.005466938897517376,0.1138058085653663,0.11067932048866172,0.04930497296975087,0.09147092197811574,0.05185239883097014
0.2038966,0.0663297837725409,0.10974909395804211,0.005670016449509029,0.11382878143079354,0.11250022773692053,0.04935001251534802,0.09122910188141511,0.05182589679892078
0.2043621,0.06655730799447417,0.11031481876829756,0.00587195394323785,0.11385129582300095,0.11433046669148857,0.049394487804630474,0.09098003461954207,0.051796426719736825
0.2048276,0.06678126390249071,0.11087707045971766,0.006072710126944128,0.11387333360958923,0.11616988214178575,0.049438394547662724,0.09072378372639543,0.051764019409832634
0.2052931,0.06700161956189668,0.11143578034929044,0.006272245322677167,0.11389487572707244,0.11801831713670155,0.04948172808532953,0.0904604154717601,0.05172870650749592
0.2057586,0.06721834376374558,0.11199087989572122,0.006470521430689644,0.11391590218415529,0.11987561299270753,0.04952448338707007,0.09018999886051889,0.05169052046345334
0.2062241,0.06743140603354288,0.1125423007061881,0.006667501933360215,0.11393639206547251,0.12174160930230916,0.04956665504893452,0.08991260563117533,0.05164949453118935
0.2066897,0.0676407766397701,0.11308997454321207,0.006863151898644767,0.11395632353579989,0.12361614394282935,0.049608237291965826,0.08962831025368563,0.051605662757025106
0.2071552,0.06784642660222533,0.11363383333164963,0.00705743798305679,0.11397567384474717,0.12549905308551648,0.04964922396090969,0.08933718992659703,0.05155905996996458
0.2076207,0.06804832770017631,0.11417380916581557,0.007250328434177361,0.11399441933194202,0.1273901712049695,0.04968960852325487,0.08903932457349126,0.05150972177131427
0.2080862,0.06824645248032193,0.11470983431674231,0.00744179309269522,0.11401253543271317,0.12928933108887247,0.049729384068606185,0.08873479683873096,0.0514576845240832
0.2085517,0.06844077426455729,0.1152418412395822,0.0076318033939774274,0.11402999668428068,0.13119636384803043,0.04976854330839191,0.08842369208250835,0.05140298534216935
0.2090172,0.06863126715753703,0.11576976258115848,0.007820332369171028,0.1140467767324599,0.1331110989266983,0.04980707857590719,0.08810609837519505,0.05134566207933869
0.2094828,0.06881790605403121,0.11629353118767034,0.008007354645836144,0.11406284833888537,0.13503336411319475,0.04984498182669474,0.08778210649099337,0.05128575331800258
0.2099483,0.06900066664606694,0.11681308011255749,0.008192846448110929,0.1140781833887593,0.13696298555079345,0.04988224463926375,0.08745180990088905,0.051223298357799006
0.2104138,0.06917952542984919,0.11732834262452979,0.008376785596408842,0.11409275289912882,0.1388997877488849,0.04991885821614797,0.08711530476490725,0.05115833720398297
0.2108793,0.06935445971245333,0.11783925221576703,0.008559151506648759,0.11410652702769528,0.14084359359440238,0.04995481338530324,0.08677268992367401,0.05109091055563089
0.2113448,0.06952544761828208,0.11834574261029383,0.008739925189018493,0.11411947508215738,0.142794224363507,0.04999010060184519,0.08642406688928626,0.05102105979366388
0.2118103,0.06969246809527957,0.11884774777253415,0.00891908924627233,0.11413156553009009,0.14475149973352605,0.050024709950127276,0.08606953983549427,0.0509488269686942
0.2122759,0.06985550092089525,0.11934520191604925,0.009096627871563198,0.11414276600935991,0.14671523779513987,0.05005863114615924,0.0857092155872003,0.05087425478869955
0.2127414,0.07001452670779137,0.11983803951246204,0.009272526845810094,0.1141530433390769,0.1486852550648119,0.05009185354036583,0.08534320360927734,0.05079738660652945
0.2132069,0.07016952690928756,0.12032619530057007,0.009446773534601407,0.11416236353108344,0.15066136649745648,0.05012436612068555,0.08497161599471147,0.05071826640724826
0.2136724,0.07032048382453718,0.12080960429564816,0.009619356884634715,0.11417069180197957,0.15264338549933779,0.05015615751600872,0.08459456745207057,0.05063693879531957
0.2141379,0.07046738060343101,0.12128820179894145,0.00979026741969361,0.11417799258568358,0.15463112394119266,0.05018721599995403,0.08421217529230168,0.05055344898163684
0.2146034,0.07061020125122422,0.12176192340734897,0.009959497236162091,0.1141842295465266,0.15662439217156926,0.05021752949498235,0.0838245594148583,0.05046784277040526
0.215069,0.07074893063288404,0.12223070502329782,0.010127039998077042,0.11418936559287861,0.15862299903037178,0.050247085576846234,0.08343184229315846,0.05038016654587964
0.2155345,0.0708835544771562,0.12269448286480886,0.010292890931719353,0.11419336289130305,0.1606267518626011,0.050275871479372965,0.0830341489593737,0.05029046725896319
0.216,0.07101405938034967,0.12315319347575474,0.010457046819744312,0.11419618288123626,0.16263545653228,0.050303874099579045,0.08263160698854807,0.05019879241367155
0.2164655,0.0711404328098398,0.12360677373631196,0.010619505994852023,0.11419778629018693,0.16464891743654939,0.050331080003113336,0.0822243464820466,0.050105190053466066
0.216931,0.07126266310729149,0.12405516087360877,0.010780268332998782,0.11419813314945068,0.16666693751992298,0.05035747543002579,0.08181250005033171,0.05000970874746016
0.2173966,0.0713807394916044,0.12449829247257005,0.01093933524615047,0.11419718281033359,0.16868931828868555,0.050383046300858464,0.0813962027950666,0.04991239757650233
0.2178621,0.07149465206158308,0.12493610648696014,0.011096709674579333,0.11419489396087812,0.17071585982541998,0.050407778223055096,0.08097559229054443,0.04981330611913892
0.2183276,0.07160439179833535,0.1253685412506234,0.011252396078705637,0.11419122464308466,0.1727463608036489,0.05043165649768529,0.08055080856444218,0.04971248443746017
0.2187931,0.07170995056740197,0.12579553548892128,0.011406400430485842,0.11418613227062117,0.17478061850257706,0.05045466612647937,0.08012199407789813,0.04960998306283248
0.2192586,0.07181132112062079,0.12621702833036422,0.011558730204349199,0.11417957364701377,0.17681842882192128,0.05047679181916945,0.07968929370491266,0.04950585298152037
0.2197241,0.07190849709772806,0.12663295931843588,0.011709394367684756,0.11417150498431104,0.17885958629681734,0.050498018001132156,0.07925285471107159,0.04940014562020108
0.2201897,0.07200147302769938,0.12704326842360628,0.01185840337088097,0.11416188192221587,0.18090388411279543,0.05051832882132827,0.07881282673159251,0.049292912831375005
0.2206552,0.07209024432983284,0.12744789605553036,0.012005769136920353,0.11415065954767842,0.1829511141208189,0.050537708160534246,0.0783693617486951,0.04918420687867519
0.2211207,0.07217480731457686,0.12784678307542768,0.012151505050531742,0.11413779241494444,0.1850010668523829,0.050556139639860366,0.07792261406829715,0.04907408042207914
0.2215862,0.07225515918410534,0.1282398708086389,0.012295625946903055,0.1141232345660536,0.18705353153467352,0.05057360662954996,0.07747274029603869,0.04896258650302676
0.2220517,0.07233129803264299,0.12862710105735348,0.012438148099957596,0.11410693955178199,0.18910829610578814,0.05059009225805386,0.07701989931263703,0.04884977852944825
0.2225172,0.0724032228465439,0.12900841611350372,0.012579089210197184,0.11408886045302273,0.19116514723001946,0.050605579421374086,0.07656425224857469,0.04873571026070643
0.2229828,0.07247093350412669,0.12938375877181926,0.012718468392115555,0.11406894990259842,0.19322387031320518,0.050620050792670526,0.07610596245812251,0.04862043579245754
0.2234483,0.07253443077526985,0.1297530723430357,0.012856306161185469,0.11404716010749825,0.1952842495181456,0.050633488832124,0.07564519549269942,0.04850400954143467
0.2239138,0.07259371632077098,0.1301163006672506,0.012992624420423114,0.1140234428715323,0.1973460677800925,0.05064587579704927,0.07518211907357,0.04838648623015769
0.2243793,0.07264879269147385,0.13047338812741902,0.013127446446533332,0.11399774961839412,0.19940910682231414,0.050657193752250924,0.07471690306388051,0.04826792087157335
0.2248448,0.07269966332716729,0.1308242796629796,0.013260796875639358,0.11397003141512319,0.2014731471717443,0.05066742458061521,0.07424971944003386,0.0481483687536287
0.2253103,0.07274633255525997,0.13116892078360307,0.013392701688600817,0.11394023899595744,0.20353796817472647,0.050676549993930564,0.07378074226240348,0.048027885423781065
0.2257759,0.07278880558923514,0.13150725758305376,0.01352318819592393,0.11390832278656612,0.20560334801286714,0.05068455154392954,0.07331014764538567,0.04790652667344714
0.2262414,0.07282708852688889,0.13183923675315637,0.013652285022267945,0.11387423292865173,0.20766906371901592,0.05069141063354452,0.07283811372678936,0.04778434852239383
0.2267069,0.07286118834835592,0.13216480559785948,0.013780022090551883,0.11383791930491063,0.20973489119339225,0.0506971085283694,0.0723648206365628,0.0476614072030732
0.2271724,0.07289111291392598,0.1324839120473882,0.013906430605665761,0.11379933156434043,0.2118006052198812,0.05070162636831925,0.07189045046485523,0.04753775914490408
0.2276379,0.07291687096165421,0.13279650467247775,0.014031543037790516,0.113758419147882,0.21386597948252176,0.05070494517947962,0.07141518722941216,0.047413460958502573
0.2281034,0.07293847210476842,0.13310253269867944,0.014155393105330968,0.11371513131438402,0.21593078658221146,0.05070704588613704,0.07093921684230195,0.0472885694198641
0.228569,0.07295592682887664,0.13340194602073094,0.014278015757466367,0.11366941716687634,0.21799479805365143,0.05070790932298174,0.07046272707597173,0.047163141454499506
0.2290345,0.07296924648897804,0.13369469521698177,0.014399447156323148,0.11362122567913908,0.22005778438255527,0.05070751624747389,0.06998590752863043,0.04703723412152807
0.2295,0.07297844330628134,0.1339807315638659,0.01451972465877479,0.11357050572255277,0.22211951502314375,0.05070584735236384,0.06950894958895715,0.04691090459773041
0.2299655,0.07298353036483475,0.13426000705041183,0.014638886797873686,0.11351720609321486,0.22417975841594642,0.05070288327835695,0.06903204640013362,0.04678421016156416
0.230431,0.07298452160797218,0.1345324743927815,0.01475697326392014,0.11346127553930654,0.226238282005931,0.05069860462691307,0.06855539282319993,0.046657208177145464
0.2308966,0.07298143183458076,0.1347980870488273,0.01487402488517353,0.11340266278869315,0.2282948522609816,0.05069299197317044,0.06807918539973291,0.04652995607819919
0.2313621,0.07297427669519536,0.13505679923265726,0.014990083608210684,0.11334131657674051,0.23034923469074678,0.050686025878983604,0.06760362231384723,0.046402511351980535
0.2318276,0.07296307268792604,0.135308565929197,0.015105192477936494,0.11327718567432847,0.23240119386587907,0.050677686906064466,0.0671289033535193,0.046274931523170665
0.2322931,0.07294783715422463,0.13555334290873614,0.015219395617251642,0.11321021891604245,0.23445049343768803,0.05066795562921533,0.06665522987123476,0.04614727413774836
0.2327586,0.07292858827449675,0.13579108674144716,0.015332738206382361,0.11314036522852236,0.23649689615823008,0.050656812649642585,0.06618280474396036,0.04601959674683976
0.2332241,0.07290534506356534,0.13602175481186266,0.015445266461876975,0.11306757365894803,0.23854016390085594,0.05064423860833961,0.06571183233244228,0.045891956890547814
0.2336897,0.07287812736599215,0.13624530533329776,0.015557027615274109,0.11299179340363938,0.240580057681239,0.05063021419952747,0.06524251843983288,0.04576441208176321
0.2341552,0.07284695585126268,0.13646169736220373,0.015668069891447402,0.11291297383674952,0.24261633767890511,0.05061472018414208,0.06477507026964906,0.04563701978995837
0.2346207,0.07281185200883998,0.13667089081243866,0.015778442486631624,0.11283106453902805,0.24464876325928558,0.05059773740335668,0.06430969638306536,0.04550983742496637
0.2350862,0.0727728381430923,0.1368728464694429,0.01588819554613523,0.11274601532663256,0.24667709299631443,0.05057924679212875,0.06384660665554559,0.045382922320746755
0.2355517,0.07272993736809849,0.13706752600430624,0.015997380141744417,0.11265777627996518,0.24870108469559093,0.050559229392760786,0.06338601223281706,0.04525633171914034
0.2360172,0.07268317360233521,0.13725489198771632,0.01610604824882382,0.11256629777251215,0.25072049541812863,0.050537666368464775,0.06292812548619206,0.045130122753615366
0.2364828,0.0726325715632491,0.13743490790377658,0.016214252723119195,0.11247153049966381,0.2527350815047122,0.050514539016920795,0.062473159967241385,0.045004352433007336
0.2369483,0.07257815676171678,0.13760753816368412,0.016322047277267382,0.11237342550749303,0.25474459860088167,0.05048982878382029,0.0620213303618255,0.044879077625255274
0.2374138,0.07251995549639481,0.1377727481192571,0.016429486457019,0.1122719342214702,0.25674880168256425,0.05046351727638537,0.061572852443489014,0.04475435504113713
0.2378793,0.0724579948479615,0.13793050407630122,0.016536625617179175,0.11216700847509344,0.25874744508237274,0.05043558627685594,0.061127943026224346,0.0446302412180069
0.2383448,0.0723923026732519,0.13808077330780558,0.016643520897271655,0.11205860053841356,0.26074028251658915,0.05040601775593666,0.06068681991661047,0.04450679250353616
0.2388103,0.07232290759928725,0.13822352406695743,0.016750229196931563,0.11194666314643303,0.26272706711285404,0.05037479388619671,0.06024970186533252,0.04438406503946236
0.2392759,0.07224983901719999,0.13835872559996573,0.01685680815103193,0.11183114952735985,0.26470755143858327,0.05034189705541516,0.05981680851808822,0.044262114745345894
0.2397414,0.07217312707605554,0.13848634815868333,0.01696331610454924,0.11171201343069703,0.26668148753013526,0.05030730987986541,0.059388360365887155,0.044140997302337864
0.2402069,0.07209280267657252,0.13860636301301704,0.01706981208717328,0.11158920915514926,0.26864862692275393,0.05027101521753212,0.058964578694748554,0.04402076813695986
0.2406724,0.07200889746474308,0.1387187424631158,0.017176355787666624,0.11146269157632908,0.2706087206813126,0.05023299618125459,0.058545685534803125,0.0439014824048974
0.2411379,0.0719214438253552,0.13882345985132744,0.017283007527979167,0.11133241617424511,0.2725615194318843,0.05019323615179035,0.058131903608804644,0.04378319497480821
0.2416034,0.07183047487541917,0.13892048957391512,0.017389828237123147,0.11119833906055537,0.2745067733941632,0.050151718790792776,0.057723456280056776,0.04366596041214697
0.242069,0.07173602445750017,0.1390098070925257,0.017496879424814187,0.11106041700556947,0.27644423241475974,0.05010842805369632,0.057320567499761284,0.04354983296300805
0.2425345,0.0716381271329587,0.13909138894540296,0.017604223154883913,0.11091860746498301,0.27837364600139036,0.050063348202502814,0.05692346175379434,0.043434866537988094
0.243,0.07153681817510012,0.13916521275833937,0.017711922018469824,0.11077286860632869,0.28029476335798204,0.0500164638184618,0.05653236400891832,0.0433211146960707
0.2434655,0.07143213356223445,0.139231257255359,0.017820039106988386,0.11062315933512831,0.2822073334207092,0.04996775981463778,0.05614749965843675,0.043208630628535694
0.243931,0.07132410997064703,0.1392895022691256,0.017928637984897786,0.11046943932073015,0.28411110489497987,0.04991722144835676,0.055769094467300336,0.04309746714289579
0.2443966,0.07121278476748043,0.1393399287510677,0.01803778266225709,0.11031166902181624,0.28600582629338517,0.04986483433352457,0.05539737451667158,0.04298767664686409
0.2448621,0.07109819600352783,0.13938251878121383,0.01814753756708909,0.11014980971156464,0.28789124597462556,0.04981058445280917,0.05503256614795525,0.042879311132355866
0.2453276,0.07098038240593779,0.13941725557772908,0.018257967517554312,0.10998382350245145,0.2897671121834253,0.04975445816967935,0.054674895906301556,0.04277242215952902
0.2457931,0.07085938337082939,0.1394441235061454,0.018369137693944278,0.10981367337067795,0.2916331730914473,0.04969644224029208,0.05432459048358831,0.042667060840867875
0.2462586,0.07073523895581717,0.13946310808827628,0.018481113610502097,0.10963932318020778,0.29348917683921755,0.049636523825220956,0.05398187666088853,0.042563277825315174
0.2467241,0.07060798987244389,0.13947419601080707,0.018593961087078944,0.1094607377063992,0.2953348715790684,0.04957469050101798,0.05364698125042967,0.04246112328245768
0.2471897,0.07047767747851928,0.13947737513355388,0.01870774622063508,0.10927788265921629,0.2971700055191071,0.049510930271600945,0.05332013103705111,0.04236064688677111
0.2476552,0.07034434377036176,0.13947263449738348,0.01882253535659418,0.1090907247060029,0.2989943269682143,0.04944523157945878,0.053001552719167365,0.04226189780193028
0.2481207,0.07020803137494018,0.13945996433178975,0.018938395060059825,0.10889923149380251,0.30080758438207655,0.04937758331666717,0.052691472849245066,0.042164924665190555
0.2485862,0.07006878354191162,0.13943935606212307,0.019055392086903045,0.10870337167120629,0.3026095264102547,0.0493079748357068,0.05239011777380218,0.04206977557184676
0.2490517,0.06992664413555129,0.13941080231647085,0.019173593354729675,0.10850311490971172,0.3043999019442903,0.04923639596007683,0.05209771357293792,0.04197649805977583
0.2495172,0.06978165762657002,0.1393742969321876,0.01929306591373639,0.10829843192457406,0.3061784601668498,0.0491628369946962,0.05181448599940197,0.041885139094069476
0.2499828,0.0696338690838147,0.13932983496207385,0.01941387691746416,0.10808929449513337,0.30794495060190585,0.04908728873608556,0.05154066041721147,0.04179574505176332
0.2504483,0.06948332416584728,0.13927741268020213,0.01953609359345804,0.10787567548460036,0.30969912316595233,0.049009742482322455,0.05127646173982408,0.04170836170666879
0.2509138,0.06933006911239722,0.1392170275873886,0.019659783213842277,0.107657548859285,0.3114407282202499,0.04893019004276266,0.05102211436787551,0.04162303421431414
0.2513793,0.06917415073568403,0.13914867841630718,0.019785013065819926,0.10743488970725266,0.31316951662409326,0.048848623747520366,0.05077784212649002,0.04153980709700085
0.2518448,0.06901561641160556,0.13907236513624344,0.019911850422106317,0.10720767425639409,0.3148852397890911,0.0487650364567,0.05054386820217245,0.041458724228981655
0.2523103,0.0688545140707892,0.13898808895748624,0.02004036251130593,0.1069758798918964,0.31658764973444636,0.04867942156937243,0.050320415079290644,0.04137982882176587
0.2527759,0.06869089218950361,0.13889585233535529,0.02017061648824237,0.10673948517310454,0.3182764991432231,0.048591773032288225,0.050107704476158,0.041303163409557815
0.2532414,0.06852479978042875,0.13879565897386548,0.020302679404251178,0.1064984698497644,0.3199515414195825,0.048502085348320734,0.04990595728072628,0.04122876983483348
0.2537069,0.0683562863832834,0.13868751382902977,0.020436618177445392,0.1062528148776406,0.3216125307469695,0.048410353584631464,0.04971539348590017,0.04115668923406052
0.2541724,0.06818540205530918,0.1385714231118036,0.020572499562963673,0.10600250243350434,0.32325922214722913,0.04831657338055045,0.04953623212448535,0.0410869620235661
0.2546379,0.06801219736161064,0.13844739429067435,0.020710390123211023,0.10574751592948825,0.3248913715406316,0.04822074095516405,0.049368691203782775,0.041019627885557006
0.2551034,0.06783672336535108,0.13831543609389957,0.020850356198102087,0.10548784002680718,0.3265087358067822,0.04812285311460274,0.04921298763984183,0.04095472575429611
0.255569,0.06765903161780354,0.13817555851139757,0.020992463875317162,0.10522346064884508,0.32811107284639307,0.04802290725902142,0.04906933719138576,0.04089229380243881
0.2560345,0.06747917414825648,0.13802777279629327,0.021136778960581307,0.10495436499360954,0.3296981416438926,0.047920901389265094,0.04893795439342226,0.04083236942753319
0.2565,0.06729720345377288,0.13787209146612278,0.021283366947977087,0.10468054154555673,0.3312697023308488,0.04781683411321315,0.04881905249055233,0.040774989238687144
0.2569655,0.06711317248880122,0.13770852830369928,0.02143229299030189,0.10440198008678991,0.3328255162501827,0.04771070465179586,0.04871284336999041,0.04072018904340579
0.257431,0.06692713465463682,0.137537098357643,0.021583621869481005,0.10411867170763536,0.33436534602114665,0.047602512844677626,0.04861953749430887,0.04066800383460214
0.2578966,0.06673914378873147,0.13735781794257712,0.021737417967047888,0.10383060881659968,0.33588895560504295,0.04749225915560205,0.048539343833919425,0.040618467777784176
0.2583621,0.0665492541538494,0.13717070463899025,0.02189374523470325,0.10353778514971324,0.3373961103716577,0.04737994467739452,0.04847246979930425,0.040571614198421264
0.2588276,0.06635752042706784,0.1369757772927661,0.022052667164964544,0.10324019577926401,0.33888657716638315,0.047265571136618736,0.04841912117300915,0.040527475569492794
0.2592931,0.06616399768862105,0.1367730560143805,0.022214246761917363,0.10293783712192599,0.3403601243780029,0.0471491408978832,0.048379502041411,0.04048608349922218
0.2597586,0.06596874141058649,0.13656256217776494,0.0223785465120802,0.10263070694628659,0.34181652200711043,0.047030656967794376,0.04835381472627155,0.04044746871899925
0.2602241,0.06577180744541308,0.13634431841883599,0.022545628355393827,0.10231880437977621,0.34325554173513195,0.04691012299855309,0.04834225971608973,0.04041166107149456
0.2606897,0.06557325201429219,0.1361183486336886,0.022715553656346418,0.10200212991500318,0.34467695699392153,0.046787543291190524,0.048345035597264434,0.040378689498969327
0.2611552,0.06537313169537244,0.13588467797645132,0.022888383175245344,0.10168068541549675,0.3460805430358949,0.04666292279844029,0.048362338985080494,0.040348582031785415
0.2616207,0.06517150341181993,0.13564333285680072,0.02306417703964641,0.10135447412085953,0.3474660770046635,0.04653626712724308,0.048394364454530436,0.0403213657771205
0.2620862,0.0649684244197261,0.13539434093713232,0.023242994715951166,0.10102350065133053,0.34883333800612915,0.04640758254088037,0.048441304470985214,0.040297066907893975
0.2625517,0.06476395229586521,0.1351377311293858,0.023424894981182637,0.10068777101175916,0.3501821071799972,0.046276875960733495,0.04850334932072708,0.04027571065190994
0.2630172,0.06455814492530351,0.13487353359152326,0.02360993589494972,0.10034729259498974,0.35151216777166194,0.04614415496766507,0.048580687041357665,0.04025732128122393
0.2634828,0.06435106048886173,0.13460177972365972,0.023798174771610288,0.10000207418465624,0.3528233052044158,0.04600942780301997,0.048673503352094215,0.04024192210174025
0.2639483,0.06414275745043231,0.13432250216384517,0.02398966815264284,0.0996521259573859,0.35411530715193146,0.04587270336924437,0.04878198158396663,0.04022953544304684
0.2644138,0.0639332945441526,0.13403573478349848,0.024184471779236435,0.0992974594844108,0.35538796361096553,0.045733991230123124,0.0489063026099281,0.04022018264849443
0.2648793,0.06372273076143527,0.13374151268249265,0.024382640565108443,0.09893808773258594,0.356641066974228,0.045593301610637176,0.04904664477489227,0.04021388406552648
0.2653448,0.06351112533785704,0.1334398721838901,0.024584228569559604,0.09857402506481253,0.3578744121033637,0.04545064539644477,0.04920318382571001,0.040210659036266264
0.2658103,0.063298537739907,0.13313085082832765,0.02478928897077566,0.09820528723986484,0.35908779640199034,0.045306034132991294,0.04937609284109923,0.04021052588836716
0.2662759,0.06308502765159578,0.1328144873680495,0.02499787403938479,0.09783189141161987,0.360281019888735,0.04515948002425342,0.04956554216154104,0.04021350192613196
0.2667414,0.06287065496092678,0.1324908217605877,0.025210035112279868,0.09745385612768859,0.3614538852702134,0.04501099593112382,0.04977169931915591,0.04021960342190722
0.2672069,0.06265547974623054,0.132159895162089,0.0254258225667145,0.09707120132744879,0.36260619801389116,0.04486059536944255,0.04999472896757325,0.04022884560775839
0.2676724,0.062439562262363184,0.1318217499202871,0.02564528579468153,0.09668394833947935,0.363737766420768,0.04470829250768168,0.050234792811808274,0.04024124266743173
0.2681379,0.062222962926769786,0.13147642956711952,0.025868473177582757,0.09629211987839703,0.3648484016978269,0.04455410216428946,0.050492049538159986,0.04025680772860868
0.2686034,0.06200574230541354,0.13112397881098742,0.026095432061198298,0.09589574004109677,0.36593791803019093,0.04439803980470073,0.050766654744144435,0.04027555285545859
0.269069,0.06178796109857169,0.13076444352865804,0.026326208730964022,0.09549483430239834,0.367006132652936,0.04424012153802,0.05105876086847738,0.04029748904149526
0.2695345,0.06156968012649898,0.13039787075680978,0.026560848387565488,0.09508942951010198,0.3680528659225095,0.044080364113383876,0.05136851712112051,0.0403226262027426
0.27,0.061350960314959437,0.13002430868322126,0.02679939512285667,0.09467955387945692,0.3690779413877107,0.04391878491600936,0.051696069413405314,0.04035097317121461
0.2704655,0.06113186268062741,0.1296438066376076,0.027041891896111808,0.09426523698704703,0.3700811858601927,0.04375540196293478,0.052041560288248405,0.040382537688714304
0.270931,0.0609124483163586,0.12925641508210742,0.02728838051061878,0.09384650976409803,0.3710624294844483,0.043590233898460146,0.052405128850472014,0.04041732640095646
0.2713966,0.06069277837633218,0.12886218560142523,0.027538901590622333,0.09342340448921174,0.37202150580724436,0.043423299989293826,0.05278691069724324,0.040455344852018404
0.2718621,0.06047291406106553,0.12846117089263462,0.02779349455862543,0.09299595478053244,0.3729582518464712,0.04325462011941255,0.053187037848645764,0.04049659747912315
0.2723276,0.06025291660230342,0.12805342475464668,0.02805219761305686,0.09256419558735066,0.37387250815937445,0.04308421478464206,0.053605638678397696,0.040541087607758895
0.2727931,0.060032847247783634,0.12763900207734893,0.02831504770631338,0.09212816318115019,0.37476411891013933,0.04291210508696548,0.05404283784473008,0.04058881744713856
0.2732586,0.05981276724588159,0.1272179588304192,0.028582080523184544,0.09168789514610405,0.37563293193679653,0.04273831272856708,0.05449875622144133,0.04063978808600297
0.2737241,0.059592737830136036,0.12679035205181827,0.028853330459668536,0.09124343036902505,0.3764787988174199,0.04256286000561907,0.05497351082914423,0.04069399948877107
0.2741897,0.05937282020365807,0.12635623983596578,0.02912883060218734,0.09079480902877633,0.37730157493558675,0.0423857698018187,0.055467214766723456,0.0407514504920403
0.2746552,0.059153075523425656,0.12591568132160175,0.029408612707209566,0.09034207258514763,0.37810111954507214,0.04220706558168293,0.05597997714302303,0.04081213880144026
0.2751207,0.0589335648844657,0.12546873667933628,0.029692707181289364,0.08988526376720238,0.37887729583374513,0.04202677138360747,0.05651190300878416,0.040876060988842236
0.2755862,0.05871434930392623,0.12501546709888928,0.029981143061529717,0.08942442656110113,0.3796299709866346,0.041844911812696624,0.05706309328885504,0.04094321248992739
0.2760517,0.0584954897050417,0.12455593477602102,0.03027394799647832,0.08895960619740667,0.38035901624812934,0.04166151203337049,0.05763364471469518,0.041013587602115965
0.2765172,0.05827704690099548,0.12409020289915397,0.030571148227463946,0.08849084913787583,0.38106430698327737,0.04147659776175559,0.05822364975719834,0.04108717948285993
0.2769828,0.058059081578684016,0.12361833563568507,0.030872768570381088,0.08801820306174332,0.38174572273814616,0.04129019525786495,0.0588331965598591,0.041163980148301124
0.2774483,0.05784165428238815,0.12314039811798758,0.031178832397930362,0.0875417168515039,0.38240314729920716,0.041102331317573716,0.05946236887230971,0.04124398047229702
0.2779138,0.0576248253973571,0.12265645642910168,0.031489361622321965,0.08706144057819883,0.38303646875170577,0.040913033264396076,0.06011124598425446,0.04132717018581613
0.2783793,0.05740865513331097,0.12216657758811358,0.031804376678449174,0.0865774254862135,0.38364557953697853,0.0407223289410696,0.06077990265982925,0.04141353787670495
0.2788448,0.05719320350786704,0.12167082953522432,0.03212389650753869,0.0860897239775936,0.38423037650867803,0.04053024670095286,0.0614684090724141,0.04150307098982794
0.2793103,0.05697853032989503,0.12116928111651121,0.032447938541284575,0.08559838959588746,0.3847907609878651,0.040336815399242366,0.062176830739926636,0.041595755827582195
0.2797759,0.056764695182805906,0.12066200206838697,0.03277651868647198,0.08510347700952307,0.3853266388169284,0.0401420643840149,0.06290522846062438,0.04169157755078805
0.2802414,0.05655175740777872,0.12014906300176337,0.03310965131009703,0.08460504199472714,0.38583792041228926,0.039946023487100905,0.06365365824944379,0.041790520179956554
0.2807069,0.05633977608692989,0.11963053538592679,0.033447349224988696,0.0841031414179946,0.38632452081584895,0.03974872301479471,0.06442217127490432,0.041892566596934876
0.2811724,0.05612881002642937,0.11910649153213403,0.03378962367593859,0.08359783321811605,0.38678635974513564,0.03955019373840689,0.06521081379660582,0.041997698546929994
0.2816379,0.055918917739568315,0.11857700457693658,0.03413648432634409,0.08308917638777065,0.38722336164210575,0.03935046688466405,0.06601962710334754,0.042105896640911106
0.2821034,0.055710157429783295,0.11804214846524129,0.03448793924537039,0.08257723095469119,0.38763545572055463,0.039149574125960984,0.06684864745189799,0.04221714035839066
0.282569,0.055502586973641965,0.11750199793311576,0.03484399489563644,0.08206205796240765,0.3880225760120902,0.03894754757047007,0.067697906006445,0.04233140805058367
0.2830345,0.05529626390379549,0.11695662849034696,0.03520465612143004,0.08154371945057515,0.3883846614106218,0.03874441975211277,0.06856742877875706,0.04244867694394474
0.2835,0.05509124539190262,0.11640611640276172,0.035569926137456916,0.08102227843489172,0.38872165571531414,0.038540223620397746,0.06945723656908794,0.04256892314408179
0.2839655,0.05488758823153019,0.11585053867431813,0.03593980651812876,0.08049779888661118,0.389033507671956,0.03833499253013021,0.07036734490785741,0.042692121640045655
0.284431,0.05468534882103444,0.11528997302897744,0.03631429718739481,0.07997034571165648,0.3893201710126904,0.03812876023099694,0.07129776399814129,0.04281824630899406
0.2848966,0.054484583146427096,0.11472449789236643,0.03669339640912176,0.07943998472933919,0.38958160449405,0.037921560857031286,0.07224849865900404,0.0429472699212285
0.2853621,0.05428534676423006,0.11415419237324088,0.0370771007780266,0.07890678265069186,0.38981777193324,0.03771342891596273,0.07321954826970724,0.04307916414560237
0.2858276,0.0540876947843222,0.11357913624476211,0.037465405211166744,0.07837080705642152,0.39002864224260814,0.037504399278456016,0.0742109067148267,0.04321389955529786
0.2862931,0.05389168185278151,0.11299940992559929,0.03785830293999165,0.07783212637449527,0.39021418946223824,0.03729450716724498,0.07522256233031098,0.0433514456339695
0.2867586,0.053697362134726,0.11241509446087103,0.03825578550296017,0.07729080985737133,0.39037439279060565,0.03708378814616672,0.07625449785051362,0.0434917707822512
0.2872241,0.053504789297156644,0.1118262715029407,0.038657842738727306,0.07674692755889238,0.3905092366132308,0.03687227810910191,0.0773066903562317,0.0436348423246244
0.2876897,0.0533140164918055,0.11123302329208035,0.03906446277990419,0.07620055031086005,0.39061871052927144,0.036660013268827035,0.07837911122378215,0.043780626516643835
0.2881552,0.05312509633799266,0.1106354326370183,0.03947563204739452,0.07565174969931102,0.3907028093759969,0.036447030145784154,0.07947172607514771,0.043929088552518446
0.2886207,0.05293808090549587,0.11003358289538577,0.03989133524531074,0.07510059804051641,0.3907615332510946,0.03623336555677356,0.08058449472922319,0.04408019257304427
0.2890862,0.052753021697437154,0.10942755795407762,0.040311555356472996,0.07454716835672599,0.3907948875327651,0.03601905660357443,0.08171737115419306,0.044233901673886494
0.2895517,0.05256996963319089,0.10881744220954247,0.04073627363849418,0.07399153435167875,0.39080288289756815,0.03580414066149837,0.08287030342107099,0.044390177914207955
0.2900172,0.052388975031318744,0.10820332054801671,0.041165469620454156,0.07343377038590097,0.3907855353359866,0.035588655367880626,0.08404323365843164,0.044548982325641036
0.2904828,0.05221008759253693,0.10758527832571647,0.0415991211001668,0.07287395145181212,0.3907428661656808,0.03537263861051331,0.08523609800836578,0.04471027492160003
0.2909483,0.0520333563827215,0.1069634013490009,0.04203720414204335,0.07231215314865858,0.3906749020424056,0.03515612851602528,0.08644882658368942,0.04487401470693059
0.2914138,0.05185882981595753,0.10633777585451966,0.04247969307555551,0.07174845165729463,0.3905816749685629,0.03493916343821279,0.08768134342643819,0.0450401596878928
0.2918793,0.051686555637637896,0.10570848848935695,0.042926560494301824,0.07118292371482945,0.39046322229936137,0.034721781946325025,0.08893356646767876,0.045208666882474005
0.2923448,0.051516580907616995,0.10507562629118408,0.04337777725568057,0.07061564658915817,0.3903195867465564,0.034504022813308534,0.0902054074886699,0.04537949233102722
0.2928103,0.05134895198342509,0.10443927666843239,0.0438333124811725,0.07004669805339447,0.390150816379745,0.03428592500401412,0.0914967720834057,0.045552591107230554
0.2932759,0.05118371450354864,0.1037995273804983,0.04429313355723632,0.06947615636022209,0.38995696462519464,0.03406752766336979,0.09280755962257527,0.04572791732936288
0.2937414,0.051020913370782545,0.1031564665179924,0.044757206136820216,0.06890410021618139,0.38973809026219036,0.03384887010452325,0.09413766321897266,0.045905424171890676
0.2942069,0.05086059273566025,0.10251018248304383,0.045225494141492004,0.06833060875590728,0.38949425741688953,0.033629991796957234,0.09548696969439187,0.04608506387736101
0.2946724,0.05070279597996797,0.101860763969672,0.04569795976419061,0.06775576151633368,0.38922553555367667,0.033410932354581244,0.09685535954804182,0.046266787768595455
0.2951379,0.05054756570034917,0.10120829994423637,0.04617456347260104,0.0671796384108797,0.3889319994640161,0.03319173152380292,0.09824270692651581,0.04645054626117996
0.2956034,0.05039494369200581,0.1005528796259757,0.04665526401315497,0.06660231970363188,0.3886137292528001,0.0329724291715824,0.09964887959535054,0.04663628887624587
0.296069,0.050244970932502624,0.0998945924676473,0.04714001841565861,0.06602388598353635,0.3882708103221956,0.03275306527347293,0.1010737389122089,0.04682396425353679
0.2965345,0.05009768756568056,0.09923352813627681,0.04762878199854965,0.06544441813861432,0.3879033333529958,0.03253367990165095,0.10251713980172025,0.04701352016475645
0.297,0.049953132885685335,0.09856977649402779,0.04812150837478458,0.06486399733021361,0.387511394283484,0.032314313212939,0.1039789307320126,0.04720490352719223
0.2974655,0.04981134532111692,0.09790342757920048,0.0486181494583577,0.06428270496730865,0.38709509428582495,0.03209500543682506,0.10545895369297016,0.04739806041760952
0.297931,0.04967236241930579,0.09723457158736772,0.04911865547145309,0.06370062268086059,0.38665453974000036,0.03187579686348212,0.10695704417625063,0.04759293608641223
0.2983966,0.04953622083072234,0.09656329885265566,0.04962297495223019,0.06311783229824917,0.38618984220531444,0.0316567278317918,0.1084730311570962,0.047789474972065524
0.2988621,0.04940295629352653,0.09588969982917607,0.05013105476324399,0.06253441581778724,0.38570111838949667,0.03143783871737614,0.11000673707797202,0.047987620715777626
0.2993276,0.049272603618266325,0.09521386507261645,0.050642840100500124,0.06195045538332876,0.3851884901154348,0.031219169920641377,0.11155797783406597,0.04818731617643769
0.2997931,0.049145196672734315,0.09453588522199388,0.05115827450314538,0.06136603325898112,0.3846520842855719,0.031000761854837685,0.11312656276068223,0.048388503445807814
0.3002586,0.04902076836699277,0.09385585098157792,0.05167729986379358,0.06078123180393165,0.3840920328440026,0.03078265493413901,0.114712294622561,0.04859112386396701
0.3007241,0.048899350638577976,0.09317385310298708,0.052199856439486436,0.060196133447398555,0.3835084727363026,0.030564889561747313,0.1163149696051562,0.04879511803500529
0.3011897,0.04878097443789439,0.0924899823674633,0.05272588286328942,0.05961082066371569,0.38290154586712344,0.030347506118026113,0.11793437730790188,0.04900042584296585
0.3016552,0.048665669713809506,0.09180432956832744,0.053255316156522035,0.05902537594756053,0.38227139905558427,0.030130544948668465,0.11957030073949794,0.04920698646803351
0.3021207,0.048553465399460205,0.09111698549361882,0.053788091741622225,0.05843988178933379,0.38161818398849107,0.029914046352904938,0.1212225163152456,0.04941473840296763
0.3025862,0.04844438939828139,0.09042804090892048,0.05432414345564471,0.05785442065069895,0.38094205717141266,0.029698050571757267,0.12289079385646226,0.049623619469778016
0.3030517,0.04833846857026788,0.08973758654037166,0.05486340356439321,0.05726907494028936,0.3802431798776457,0.029482597776343412,0.12457489659200567,0.04983356683664268
0.3035172,0.04823572871848082,0.08904571305786788,0.05540580277718645,0.056683926989590565,0.3795217180951014,0.029267728056239475,0.12627458116193607,0.050044517035066995
0.3039828,0.04813619457580976,0.08835251105844838,0.05595127026225771,0.056099059029004375,0.3787778424711473,0.029053481407903807,0.1279895976233444,0.05025640597728338
0.3044483,0.048039889792001564,0.08765807104987022,0.05649973366278765,0.0555145531641017,0.37801172825544216,0.028839897723168348,0.129719689458374,0.05046916897389144
0.3049138,0.04794683692096753,0.08696248343436748,0.05705111911356959,0.05493049135207028,0.3772235552407977,0.02862701677780215,0.13146459358446255,0.05068274075173783
0.3053793,0.04785705740837979,0.086265838492594,0.05760535125830638,0.05434695537836359,0.3764135077021101,0.028414878220151825,0.13322404036682947,0.0508970554720352
0.3058448,0.0477705715795683,0.08556822636774719,0.05816235326753732,0.053764026833556564,0.3755817743333991,0.028203521559863474,0.1349977536332354,0.05111204674871938
0.3063103,0.047687398627729666,0.08486973704987003,0.05872204685719358,0.05318178709041388,0.3747285481830001,0.02799298615669068,0.1367854506910381,0.051327647667043924
0.3067759,0.047607556602459015,0.08417046036032816,0.05928435230778023,0.052600317281176374,0.3738540265869556,0.027783311209392897,0.13858684234656943,0.05154379080241108
0.3072414,0.047531062398616215,0.08347048593645846,0.059849188484182685,0.05201969827507078,0.37295841110066136,0.027574535744728644,0.1404016329268577,0.051760408239438116
0.3077069,0.0474579317455375,0.08276990321638489,0.06041647285609517,0.05144001065604819,0.37204190742882404,0.02736669860654758,0.14222952030371855,0.051977431591257985
0.3081724,0.047388179196603764,0.08206880142399732,0.060986121519068404,0.05086133470075638,0.3711047253537926,0.027159838444985512,0.1440701959202373,0.05219479201905348
0.3086379,0.047321818119176365,0.08136726955408821,0.061558049216173485,0.050283750356751394,0.37014707866232843,0.026953993705766104,0.14592334481966476,0.05241242025182389
0.3091034,0.04725886068491105,0.08066539635764144,0.06213216936027885,0.04970733722095349,0.3691691850708782,0.026749202619613117,0.14778864567674874,0.05263024660638316
0.309569,0.04719931786046051,0.07996327032726724,0.06270839405693605,0.04913217451835283,0.3681712661494139,0.026545503191776704,0.14966577083152108,0.05284820100758848
0.3100345,0.047143199398575676,0.07926097968277622,0.06328663412787054,0.048558341080970124,0.3671535472439045,0.026342933191677367,0.1515543863255611,0.05306621300879815
0.3105,0.04709051382961546,0.07855861235688481,0.06386679913507262,0.04798591532707774,0.36611625739748094,0.026141530142670958,0.1534541519407551,0.0532842118125572
0.3109655,0.04704126845347465,0.07785625598104434,0.06444879740548393,0.04741497524068648,0.36505962927035884,0.025941331311937935,0.15536472124057146,0.05350212629150961
0.311431,0.04699546933193884,0.07715399787138487,0.06503253605627408,0.04684559835130377,0.36398389905858014,0.02574237370050003,0.15728574161386924,0.05371988500953525
0.3118966,0.04695312128147546,0.07645192501476566,0.06561792102070223,0.046277861713968346,0.36288930641163436,0.025544694033367038,0.1592168543212585,0.05393741624310971
0.3123621,0.04691422786646931,0.07575012405492358,0.06620485707455753,0.045711841889567076,0.36177609434901903,0.02534832874981649,0.16115769454402917,0.054154648002884845
0.3128276,0.04687879139291088,0.07504868127871102,0.06679324786317302,0.04514761492543926,0.36064450917579544,0.025153313993808556,0.16310789143566487,0.054371508055487475
0.3132931,0.04684681290254559,0.07434768260241537,0.06738299592900655,0.04458525633627366,0.3594948003971968,0.02495968560453862,0.1650670681759569,0.05458792394553313
0.3137586,0.04681829216749165,0.07364721355815233,0.06797400273978267,0.044024841085303516,0.3583272206323427,0.024767479107129727,0.16703484202773294,0.05480382301785138
0.3142241,0.046793227685334074,0.07294735928032559,0.06856616871718885,0.043466443565804876,0.3571420255271129,0.02457672970346688,0.1690108243962139,0.055019132439918975
0.3146897,0.046771616674702046,0.07224820449214492,0.06915939326611918,0.04291013758290304,0.35593947366623246,0.02438747226317529,0.17099462089101294,0.055233779224496425
0.3151552,0.04675345507133657,0.0715498334921955,0.06975357480445812,0.04235599633569228,0.3547198264846167,0.024199741314744526,0.17298583139079032,0.05544769025246358
0.3156207,0.046738737524654794,0.07085233014105036,0.07034861079339627,0.04180409239967352,0.35348334817802385,0.02401357103680037,0.174984050110579,0.055660792295849026
0.3160862,0.04672745739481727,0.07015577784791861,0.07094439776827015,0.04125449770951453,0.35223030561306506,0.02382899524952625,0.17698886567179659,0.05587301204104791
0.3165517,0.04671960675030409,0.06946025955732216,0.07154083136991726,0.040707283542137,0.3509609682366179,0.02364604740623599,0.17899986117495909,0.05608427611222242
0.3170172,0.04671517636600537,0.06876585773579472,0.0721378063765373,0.04016252050013441,0.3496756079846891,0.02346476058509962,0.18101661427511267,0.056294511094879165
0.3174828,0.04671415572183126,0.06807265435859824,0.07273521673605013,0.039620278495524575,0.3483744991907737,0.023285167481023848,0.18303869725999916,0.05650364355961679
0.3179483,0.046716533001846465,0.06738073089645295,0.07333295559894028,0.039080626733840135,0.3470579184937533,0.02310730039768879,0.18506567713096908,0.056711600086037636
0.3184138,0.04672229509393345,0.06669016830227868,0.07393091535157742,0.03854363369856022,0.34572614474537855,0.02293119123974249,0.18709711568665566,0.05691830728681628
0.3188793,0.046731427589988675,0.06600104699794694,0.07452898765000161,0.03800936713588618,0.3443794589173764,0.02275687150515473,0.18913256960942193,0.0571236918319178
0.3193448,0.04674391478665555,0.06531344686104414,0.0751270634541615,0.03747789403986431,0.3430181440082211,0.022584372277731492,0.1911715905545926,0.05732768047295824
0.3198103,0.04675973968659745,0.0646274472116479,0.07572503306259297,0.03694928063785805,0.3416424849496046,0.02241372421979136,0.1932137252424808,0.05753020006769915
0.3202759,0.04677888400031378,0.06394312679911912,0.07632278614752559,0.03642359237637235,0.3402527685126407,0.022244957565004997,0.19525851555321963,0.05773117760466831
0.3207414,0.04680132814850183,0.06326056378891327,0.07692021179040331,0.03590089390723266,0.33884928321383334,0.022078102111398698,0.1973054986244075,0.05793054022789812
0.3212069,0.04682705126496668,0.06257983574941448,0.07751719851780546,0.035381249074120935,0.33743231922083783,0.021913187214522973,0.19935420695157455,0.0581282152617733
0.3216724,0.04685603120008141,0.06190101963879602,0.07811363433775355,0.03486472089947085,0.33600216825804136,0.02175024178078681,0.2014041684914765,0.05832413023597934
0.3221379,0.04688824452479888,0.0612241917919108,0.07870940677638866,0.034351371571724465,0.3345591235119867,0.02158929426095836,0.20345490676821998,0.05851821291054274
