Time,Rectus Femoris right,Rectus Femoris left,Hamstrings right,Hamstrings left,TibilaisÂ Anterior right,TibilaisÂ Anterior left,Gastrocnemius right,Gastrocnemius left
0.0,0.00017016265529233376,-0.0016374848570518336,-0.00042911586768414533,1.0030410488670418e-05,-0.0003293027087185697,0.0007169356511937978,-0.000326204230774971,-0.002150835600637904
0.0004655,0.00018543113711544924,-0.0015586617837036174,-0.00040128626584487904,7.675691757633286e-05,-0.00011007379364825535,0.0008121055245180347,-0.00030415320371913877,-0.0018844888513152478
0.000931,0.0002007213608745594,-0.001479875652852746,-0.0003733965391090814,0.00014346270268351553,0.00010935671473126334,0.0009074828491303017,-0.0002821173895022872,-0.0016189890509294101
0.0013966,0.00021603152462161622,-0.0014011365580032145,-0.0003454497496976019,0.00021013835601325058,0.00032896225773569495,0.0010030593792464293,-0.0002600992412869601,-0.0013543732467585484
0.0018621,0.00023135982211075902,-0.0013224545818555165,-0.00031744897103610413,0.0002767744570470417,0.0005487162246202872,0.0010988268657200655,-0.0002381011959000149,-0.0010906782233799203
0.0023276,0.00024670444332269376,-0.0012438397933391147,-0.00028939728689686867,0.00034336157722351544,0.0007685919598515018,0.0011947770583147974,-0.00021612567285332181,-0.0008279404894268168
0.0027931,0.00026206357498897764,-0.001165302244658643,-0.00026129779054089036,0.0004098902826230164,0.0009885627703820207,0.0012909017079493965,-0.00019417507336959934,-0.0005661962644480546
0.0032586,0.00027743540111579865,-0.0010868519683559041,-0.00023315358386103924,0.00047635113665685946,0.0012086019329251329,0.0013871925689139888,-0.0001722517794140121,-0.0003054814658791062
0.0037241,0.00029281810350686175,-0.001008498974389662,-0.0002049677765270165,0.0005427347027599672,0.0014286827012245542,0.0014836414010550056,-0.00015035815273214801,-4.583169613381588e-05
0.0041897,0.00030820986228500906,-0.0009302532472351394,-0.00017674348513278695,0.0006090315470856342,0.0016487783133157436,0.0015802399719268105,-0.00012849653389498535,0.00021271777017452874
0.0046552,0.00032360885641221385,-0.0008521247430050435,-0.00014848383234711385,0.0006752322412011731,0.0018688619987747815,0.0016769800589079315,-0.00010666924135144913,0.0004701319988742317
0.0051207,0.0003390132642075963,-0.000774123386593839,-0.00012019194606775775,0.0007413273647832043,0.002088906985950882,0.0017738534512798613,-8.487857048914579e-05,0.0007263764087300614
0.0055862,0.0003544212638631217,-0.0006962590688468956,-9.187095857983834e-05,0.0008073075083113633,0.0023088865091786155,0.0018708519522664523,-6.312679270384811e-05,0.0009814167837839814
0.0060517,0.00036983103395665725,-0.0006185416437560421,-6.352400571879697e-05,0.0008731632757592105,0.00252877381596593,0.001967967381032027,-4.141615447828256e-05,0.001235219285534036
0.0065172,0.00038524075396208484,-0.0005409809256829753,-3.515422603834599e-05,0.0009388852872811407,0.002748542174154086,0.0020651915746364518,-1.9748876470747553e-05,0.0014877504649439225
0.0069828,0.0004006486047561909,-0.000463586686611895,-6.764759983746254e-06,0.0010044641818941044,0.00296816487904571,0.0021625163899455595,1.8728473859351853e-06,0.0017389772742759692
0.0074483,0.00041605276912207807,-0.000386368653432658,2.1641250929281156e-05,0.0010698906201529665,0.0031876152604972674,0.0022599337054953865,2.344685077466239e-05,0.001988867078740399
0.0079138,0.0004314514322488637,-0.0003093365052556668,5.006066492973511e-05,0.0011351552868183459,0.003406866689972396,0.0023574354233087767,4.497099587303864e-05,0.0022373876679539595
0.0083793,0.0004468427822274461,-0.00023249987075962692,7.84903408003586e-05,0.001200248893515812,0.0036258925875526683,0.0024550134706629503,6.644317422069435e-05,0.002484507267201231
0.0088448,0.0004622250105421329,-0.00015586832557322607,0.00010692713868028195,0.0012651621813853386,0.0038446664289024934,0.0025526598018067097,8.786130757453614e-05,0.0027301945484921627
0.0093103,0.00047759631255793917,-7.945138969170799e-05,0.00013536792086107867,0.0013298859237199374,0.004063161752184963,0.0026503663996260566,0.0001092233487515531,0.0029744186414096445
0.0097759,0.0004929548880033747,-3.2585249292442774e-06,0.00016380955257604284,0.001394410928592408,0.004281352164925524,0.002748125277257186,0.00013052728245881815,0.003217149143741136
0.0102414,0.0005082989414485544,7.270086759205665e-05,0.0001922489027825098,0.0014587280414691667,0.0044992113508204885,0.0028459284796460795,0.00015177112611033697,0.003458356131888591
0.0107069,0.0005236266827784788,0.00014841744991571907,0.00022068284493705306,0.0015228281478101326,0.004716713076487521,0.0029437680850542603,0.0001729529306304068,0.0036980101710512112
0.0111724,0.0005389363276613387,0.00022388194968631398,0.0002491082577634001,0.001586702175653695,0.0049338311981554465,0.0030416362065105785,0.00019407078124315328,0.003936082325175977
0.0116379,0.0005542260980117067,0.0002990851625460299,0.0002775220260129179,0.0016503410981858215,0.005150539668290857,0.003139524993209129,0.00021512279824791616,0.00417254416667145
0.0121034,0.0005694942224484822,0.0003740179544917605,0.000305921041217527,0.0017137359362924044,0.005366812542159162,0.0032374266318535663,0.0002361071377801596,0.004407367785880949
0.012569,0.0005847389367474524,0.0004486712641921212,0.00033430220243491185,0.0017768777610939787,0.005582623984317796,0.0033353333479481896,0.00025702199255758513,0.004640525800311646
0.0130345,0.0005999584842883367,0.000523036105263862,0.0003626624169859039,0.001839757696461962,0.005797948275039396,0.0034332374070363265,0.000277865592611137,0.004871991363616541
0.0135,0.0006151511164961744,0.0005971035685072061,0.00039099860118392153,0.0019023669215155776,0.006012759816662884,0.0035311311158867384,0.0002986362060005989,0.0051017381743263595
0.0139655,0.0006303150932769183,0.000670864824099699,0.00041930768105635547,0.001964696673098622,0.006227033139870544,0.0036290068236290132,0.0003193321395144935,0.005329740484328575
0.014431,0.000645448683447091,0.0007443111237481995,0.00044758659305779215,0.002026738248235227,0.006440742909889332,0.003726856922839126,0.0003399517393540031,0.0055559731070907465
0.0148966,0.0006605501651573653,0.000817433802798677,0.0004758322847749718,0.002088483006563762,0.0066538639326148945,0.0038246738505764884,0.00036049339180063803,0.005780411425625404
0.0153621,0.0006756178263099224,0.0008902242823035009,0.0005040417156233836,0.002149922372748011,0.0068663711606568555,0.0039224500893739085,0.00038095552386738024,0.006003031400193785
0.0158276,0.0006906499649694459,0.0009626740710459129,0.0005322118575354032,0.0022110478388647397,0.007078239699304115,0.004020178168181941,0.0004013366039330363,0.00622380957574577
0.0162931,0.0007056448897676079,0.0010347747675213766,0.0005603396956398813,0.0022718509667667727,0.0072894448124090514,0.004117850663269131,0.0004216351423595332,0.006442723089093433
0.0167586,0.0007206009203009035,0.0011065180618754966,0.000588422228933089,0.002332323390420674,0.007499961928189612,0.004215460199079698,0.0004418496920918928,0.006659749675815731
0.0172241,0.000735516387521695,0.0011778957377982001,0.0006164564709409324,0.002392456818218116,0.007709766644948338,0.0043129994490501995,0.0004619788492406243,0.006874867676891925
0.0176897,0.0007503896341223255,0.0012488996743738854,0.0006444394503723427,0.002452243035260017,0.007918834736707398,0.004410461136386731,0.0004820212536462727,0.007088056045061472
0.0181552,0.0007652190149121657,0.0013195218478872577,0.0006723682117637499,0.002511673905612519,0.008127142158758769,0.004507838034804202,0.000501975589425869,0.007299294350908145
0.0186207,0.0007800028971874568,0.0013897543335845998,0.0007002398161145538,0.0025707413745338754,0.008334665053128652,0.004605122969229227,0.000521840585501034,0.007508562788666209
0.0190862,0.0007947396610938121,0.001459589307390254,0.0007280513415134986,0.0026294374706713084,0.008541379753955355,0.004702308816468176,0.0005416150161074982,0.007715842181746396
0.0195517,0.0008094276999812441,0.0015290190475781135,0.0007557998837558576,0.0026877543082268938,0.008747262792779894,0.00479938850584194,0.0005612977012858085,0.007921113987979471
0.0200172,0.0008240654207515858,0.0015980359363979317,0.0007834825569513358,0.0027456840890915392,0.008952290903748748,0.004896355019788979,0.0005808875073530035,0.008124360304575097
0.0204828,0.0008386512441981753,0.0016666324616562648,0.0008110964941225834,0.002803219104946137,0.00915644102872825,0.004993201394438201,0.0006003833473550434,0.008325563872793715
0.0209483,0.0008531836053376793,0.0017348012182518576,0.0008386388477942165,0.002860351739329028,0.009359690322330208,0.005089920720153257,0.0006197841814997896,0.00852470808232918
0.0214138,0.0008676609537339379,0.0018025349096652942,0.0008661067905722299,0.002917074469668952,0.009562016156848343,0.0051865061420497864,0.0006390890175703311,0.008721776975399897
0.0218793,0.000882081753813722,0.0018698263494027212,0.0008934975157136917,0.002973379869282741,0.009763396127105157,0.005282950860487131,0.0006582969113184658,0.008916755250546273
0.0223448,0.0008964444851743121,0.0019366684623934587,0.0009208082376865977,0.0030292606093370285,0.00996380805520884,0.005379248131536006,0.0006774069668381473,0.009109628266132343
0.0228103,0.0009107476428828177,0.0020030542863413033,0.0009480361927197669,0.0030847094607733216,0.010163229995219847,0.005475391267423612,0.0006964183369187164,0.009300382043549448
0.0232759,0.0009249897377671763,0.0020689769730293274,0.0009751786393426569,0.003139719296195753,0.010361640237726752,0.005571373636957641,0.00071533022337774,0.00948900327011989
0.0237414,0.0009391692966987823,0.0021344297895779813,0.0010022328589149667,0.003194283091720862,0.010559017314331082,0.00566718866593059,0.0007341418773732769,0.009675479301698481
0.0242069,0.0009532848628667027,0.002199406119656296,0.001029196156145902,0.0032483939287887313,0.010755340002040857,0.00576282983750581,0.0007528525996953914,0.009859798164969914
0.0246724,0.0009673349960434485,0.0022638994646459877,0.0010560658596029731,0.003302044995934806,0.010950587327572687,0.005858290692586632,0.000771461741036732,0.01004194855943982
0.0251379,0.000981318272842271,0.0023279034447583015,0.0010828393222102116,0.0033552295905217066,0.011144738571562368,0.00595356483016988,0.0007899687022419938,0.010221919859117388
0.0256034,0.0009952332869659463,0.002391411800103439,0.0011095139217357044,0.0034079411204303365,0.011337773272684001,0.006048645907685049,0.0008083729345360792,0.010399702113887334
0.026069,0.0010090786494470125,0.002454418391712503,0.0011360870612683724,0.0034601731057095886,0.011529671231677613,0.006143527641320374,0.0008266739397307811,0.010575286050568962
0.0265345,0.0010228529888794177,0.002516917202511944,0.0011625561696839422,0.003511919180183942,0.011720412515285408,0.00623820380633697,0.0008448712704098207,0.010748663073660084
0.027,0.001036554951641534,0.0025789023382506143,0.0011889187021000892,0.00356317309301825,0.011909977460096604,0.006332668237372208,0.0008629645300920872,0.010919825265763619
0.0274655,0.0010501832021104955,0.0026403680283796213,0.0012151721403207373,0.0036139287102390227,0.012098346676300843,0.006426914828733467,0.000880953373372955,0.011088765387694767
0.027931,0.0010637364228678174,0.0027013086268852884,0.0012413139932695109,0.0036641800162115147,0.012285501051350097,0.006520937534683375,0.0008988375060435648,0.011255476878266876
0.0283966,0.0010772133148962682,0.0027617186130756252,0.0012673417974123442,0.0037139211150719197,0.012471421753528882,0.0066147303697176515,0.0009166166851879654,0.011419953853754286
0.0288621,0.001090612597767962,0.00282159259232079,0.0012932531171692386,0.0037631462321139615,0.012656090235432595,0.0067082874088365855,0.0009342907192580178,0.011582191107030775
0.0293276,0.0011039330098236574,0.0028809252967480856,0.0013190455453151598,0.0038118497151291824,0.012839488237353744,0.006801602787811169,0.0009518594681259544,0.011742184106382662
0.0297931,0.001117173308343261,0.002939711585892079,0.0013447167033700585,0.0038600260357002517,0.013021597790575858,0.006894670703444867,0.0009693228431144921,0.01189992899399617
0.0302586,0.0011303322697075423,0.0029979464473004654,0.0013702642419779918,0.003907669790446686,0.013202401220574898,0.006987485413831916,0.0009866808070044017,0.012055422584119324
0.0307241,0.001143408689551081,0.0030556249970962977,0.0013956858412753222,0.003954775702222437,0.01338188115012805,0.007080041238613031,0.0010039333740194444,0.01220866236089932
0.0311897,0.0011564013829064804,0.0031127424804972006,0.001420979211247968,0.0040013386212648825,0.013560020502329781,0.007172332559229368,0.001021080609788598,0.012359646475896827
0.0316552,0.0011693091843398915,0.0031692942722921715,0.0014461420920776783,0.004047353526294867,0.013736802503515031,0.00726435381917549,0.0010381226312855094,0.012508373745279036
0.0321207,0.001182130948077903,0.0032252758772765757,0.0014711722544773183,0.00409281552556751,0.013912210686089374,0.007356099524252111,0.0010550596067451191,0.012654843646693444
0.0325862,0.001194865548125862,0.0032806829306459007,0.0014960675000151439,0.00413771985787362,0.014086228891266048,0.007447564242819324,0.0010718917555574208,0.012799056315824658
0.0330517,0.0012075118783777018,0.0033355111983488445,0.0015208256614280486,0.004182061893491623,0.014258841271709767,0.007538742606051043,0.001088619348138336,0.012941012542636542
0.0335172,0.0012200688527173606,0.003389756577400276,0.0015454446029237738,0.004225837135089996,0.014430032294087234,0.0076296293081913194,0.001105242705777718,0.013080713767302559
0.0339828,0.0012325354051118819,0.003443415096154595,0.001569922220472085,0.004269041218580259,0.014599786741524337,0.00772021910681322,0.0011217622004645342,0.013218162075827513
0.0344483,0.001244910489696289,0.003496482914539999,0.0015942564420849334,0.004311669913920615,0.01476808971597002,0.007810506823080912,0.001138178254689314,0.013353360195364542
0.0349138,0.0012571930808503212,0.0035489563242541385,0.0016184452280856426,0.004353719125870405,0.01493492664046681,0.007900487342015568,0.0011544913412239836,0.013486311489231828
0.0353793,0.0012693821732671126,0.0036008317489216435,0.0016424865713671871,0.004395184894695603,0.015100283261327915,0.007990155612765656,0.0011707019828792447,0.01361701995163413
0.0358448,0.0012814767820138978,0.003652105744213966,0.001666378497639626,0.004436063396825666,0.015264145650220825,0.008079506648882129,0.0011868107522396757,0.0137454902020951
0.0363103,0.0012934759425848267,0.003702774997932022,0.0016901190656667718,0.004476350945462136,0.01542650020615715,0.008168535528598964,0.0012028182713767468,0.013871727479606884
0.0367759,0.0013053787109459807,0.003752836330052078,0.0017137063674921747,0.004516043991139429,0.015587333657388448,0.008257237395119469,0.0012187252115399465,0.013995737636504203
0.0372414,0.0013171841635726993,0.003802286692735357,0.00173713852865449,0.004555139122238226,0.015746633063207692,0.008345607456908688,0.0012345322928262231,0.01411752713207045
0.0377069,0.0013288913974793437,0.0038511231703018145,0.0017604137083923012,0.004593633065451942,0.015904385815656067,0.008433640987992189,0.0012502402838279437,0.014237103025883624
0.0381724,0.0013404995302416446,0.0038993429791685094,0.0017835300998384563,0.004631522686206686,0.01606057964113483,0.008521333328261478,0.0012658500012595753,0.014354472970910009
0.0386379,0.0013520077000117921,0.003946943467752991,0.0018064859302039874,0.0046688049890351606,0.016215202601922052,0.008608679883786241,0.0012813623095632976,0.014469645206353448
0.0391034,0.0013634150655264397,0.0039939221163420874,0.0018292794609516736,0.004705477117904949,0.016368243097594163,0.008695676127133605,0.0012967781204937527,0.01458262855026806
0.039569,0.0013747208061077856,0.004040276536926456,0.0018519089879593237,0.004741536356501633,0.016519689866352313,0.008782317597694494,0.0013120983926821468,0.014693432391942162
0.0400345,0.001385924121657903,0.004086004473001238,0.0018743728416728523,0.004776980128467181,0.016669531986253497,0.008868599902017205,0.0013273241311799065,0.014802066684061125
0.0405,0.001397024232646475,0.004131103799333124,0.0018966693872492248,0.0048118059975940895,0.016817758876346355,0.008954518714148214,0.0013424563869821042,0.01490854193465691
0.0409655,0.0014080203800920857,0.004175572521694129,0.0019187970246893518,0.004846011667975755,0.016964360297711513,0.00904006977598022,0.0013574962565308809,0.015012869198851966
0.041431,0.0014189118255372142,0.004219408776562333,0.0019407541889610107,0.0048795949841136,0.017109326354406273,0.00912524889760739,0.0013724448811991172,0.015115060070405128
0.0418966,0.001429697851017073,0.0042626108307898475,0.0019625393501118806,0.004912553930981493,0.017252647494313364,0.009210051957687693,0.0013873034467546308,0.015215126673067056
0.0423621,0.0014403777590224324,0.004305177081238262,0.0019841510133727885,0.004944886634047996,0.01739431450989352,0.009294474903812163,0.0014020731828052115,0.015313081651752701
0.0428276,0.001450950872456569,0.004347106054381805,0.0020055877192512606,0.004976591359256927,0.017534318538841864,0.009378513752880839,0.0014167553622248285,0.015408938163538223
0.0432931,0.001461416534586477,0.004388396405878491,0.0020268480436154744,0.005007666512966745,0.01767265106464829,0.009462164591485103,0.0014313513005613564,0.015502709868489768
0.0437586,0.0014717741089884959,0.004429046920109508,0.0020479305977687064,0.005038110641849211,0.01780930391706244,0.009545423576296038,0.0014458623554261785,0.015594410920331422
0.0442241,0.001482022979488498,0.004469056509687128,0.002068834028514367,0.005067922432747789,0.017944269272464092,0.009628286934458429,0.0014602899258660369,0.015684055956959684
0.0446897,0.0014921625500968116,0.004508424214931385,0.0020895570182117257,0.005097100712496209,0.018077539654140197,0.009710750963989876,0.0014746354517175015,0.015771660090811712
0.0451552,0.001502192244938054,0.004547149203315814,0.0021100982848224464,0.005125644447697631,0.018209107932469864,0.009792812034184556,0.0014889004129444309,0.015857238899094614
0.0456207,0.0015121115081760752,0.00458523076888249,0.002130456581948084,0.005153552744464768,0.018338967325019023,0.009874466586021065,0.0015030863289587993,0.015940808413882943
0.0460862,0.0015219198039342118,0.0046226683316265985,0.0021506306988586937,0.005180824848121326,0.01846711139654679,0.009955711132573772,0.0015171947579252633,0.016022385112091583
0.0465517,0.0015316166162110804,0.004659461436850807,0.002170619460512736,0.00520746014286508,0.018593534058926012,0.010036542259427074,0.0015312272960498353,0.016101985905331132
0.0470172,0.0015412014487921485,0.004695609754489694,0.0021904217275684605,0.005233458151392854,0.018718229570980727,0.010116956625091971,0.0015451855768530457,0.01617962812965285
0.0474828,0.0015506738251573262,0.004731113078404525,0.0022100363963869574,0.0052588185344876436,0.018841192538243363,0.010196950961424284,0.001559071270427966,0.01625532953519016
0.0479483,0.0015600332883848255,0.004765971325648757,0.0022294623990270685,0.0052835410905681095,0.018962417912634512,0.010276522074043825,0.0015728860826834693,0.016329108275703726
0.0484138,0.0015692794010515225,0.004800184535704635,0.002248698703232352,0.005307625755200662,0.019081900992068045,0.010355666842753727,0.0015866317545731126,0.016400982898036917
0.0488793,0.0015784117451300502,0.004833752869691337,0.0022677443124102994,0.005331072600574414,0.019199637419984136,0.010434382221959084,0.0016003100613100206,0.016470972331488545
0.0493448,0.0015874299218828392,0.004866676609545137,0.0022865982656039927,0.0053538818349393655,0.01931562318481274,0.010512665241083954,0.0016139228115681435,0.01653909587710959
0.0498103,0.0015963335517533142,0.004898956157172074,0.0023052596374563998,0.005376053802008247,0.01942985461936989,0.010590513004985718,0.0016274718466702677,0.01660537319693065
0.0502759,0.0016051222742544384,0.004930592033573652,0.00232372753816749,0.005397588980322524,0.019542328400189084,0.010667922694365678,0.0016409590397631513,0.01666982430312668
0.0507414,0.0016137957478548,0.004961584877946056,0.0023420011134443522,0.0054184879825830805,0.01965304154678992,0.010744891566174728,0.001654386294980155,0.016732469547125473
0.0512069,0.0016223536498624228,0.00499193544675339,0.0023600795444444897,0.005438751554946126,0.01976199142088599,0.010821416954012798,0.0016677555465917384,0.016793329608666186
0.0516724,0.0016307956763064856,0.0050216446127754,0.002377962047712457,0.005458380576284823,0.01986917572553389,0.010897496268520712,0.001681068758144203,0.016852425484814172
0.0521379,0.0016391215418171319,0.005050713364130125,0.0023956478751100186,0.005477376057417098,0.019974592504225074,0.010973126997763014,0.0016943279215870333,0.016909778478938146
0.0526034,0.0016473309795035525,0.005079142803271912,0.0024131363137399834,0.005495739140300062,0.02007824013992207,0.011048306707600201,0.0017075350563891976,0.0169654101896557
0.053069,0.0016554237408305215,0.005106934145965218,0.0024304266858638968,0.005513471097191429,0.020180117354040506,0.011123033042048779,0.0017206922086447551,0.017019342499753006
0.0535345,0.0016633995954935545,0.005134088720234552,0.002447518348813748,0.005530573329778261,0.020280223205378107,0.011197303723627546,0.0017338014501680997,0.017071597565084473
0.054,0.001671258331292859,0.005160607965290962,0.0024644106948978513,0.005547047368273344,0.020378557088991778,0.011271116553688464,0.0017468648775791663,0.017122197803457966
0.0544655,0.001678999754006231,0.005186493430435388,0.002481103151301042,0.005562894870479455,0.020475118735023622,0.011344469412730472,0.0017598846113789223,0.017171165883511075
0.054931,0.0016866236872610575,0.0052117467739392275,0.0024975951799793175,0.005578117620821731,0.020569908207476586,0.011417360260694702,0.001772862795015451,0.017218524713583847
0.0553966,0.0016941299724055761,0.005236369761902417,0.0025138862775490357,0.005592717529348364,0.020662925902940343,0.011489787137239579,0.0017858015939409275,0.01726429743059323
0.0558621,0.0017015184683795402,0.005260364267089369,0.0025299759751707786,0.00560669663069975,0.020754172549267834,0.011561748161994364,0.0017987031946597762,0.017308507388914512
0.0563276,0.0017087890515844423,0.005283732267743054,0.0025458638384279774,0.005620057083046218,0.02084364920420264,0.011633241534789696,0.0018115698037682924,0.01735117814927491
0.0567931,0.0017159416157534384,0.005306475846377532,0.002561549467200391,0.005632801166994443,0.020931357253957363,0.011704265535863753,0.0018244036469859998,0.017392333467664504
0.0572586,0.0017229760718211105,0.005328597188549198,0.0025770324955325325,0.005644931284462629,0.02101729841174297,0.01177481852604264,0.0018372069681790023,0.01743199728426967
0.0577241,0.0017298923477931914,0.0053500985816070075,0.002592312591497151,0.005656449957524609,0.021101474716248982,0.011844898946893508,0.0018499820283755938,0.01747019371243413
0.0581897,0.001736690388616369,0.005370982413421973,0.002607389457053867,0.005667359827223011,0.021183888530074434,0.011914505320848949,0.0018627311047743889,0.017506947027652587
0.0586552,0.0017433701560482713,0.005391251171096217,0.0026222628279030796,0.005677663652351667,0.021264542538109527,0.011983636251301076,0.0018754564897452452,0.017542281656601894
0.0591207,0.001749931628527727,0.005410907439651943,0.002636932473335262,0.005687364308207496,0.021343439745867946,0.012052290422663803,0.0018881604898232536,0.01757622216621452
0.0595862,0.0017563748010453804,0.005429953900700736,0.0026513981960757486,0.005696464785312141,0.021420583477769786,0.01212046660040181,0.0019008454246960892,0.01760879325279893
0.0600517,0.0017626996850147298,0.005448393331093638,0.0026656598321251118,0.005704968188103693,0.02149597737537497,0.012188163631024835,0.0019135136261850135,0.01764001973121145
0.0605172,0.001768906308143654,0.005466228601552547,0.0026797172505952194,0.0057128777335988985,0.021569625395566963,0.01225538044204602,0.001926167437219829,0.01766992652408401
0.0609828,0.0017749947143064872,0.005483462675283522,0.002693570353541068,0.0057201967500262706,0.02164153180868633,0.012322116041903017,0.0019388092108080998,0.01769853865111208
0.0614483,0.0017809649634167022,0.0055000986065726655,0.0027072190757884687,0.005726928675430584,0.02171170119661359,0.012388369519840677,0.0019514413089989622,0.017725881218406965
0.0619138,0.001786817131300257,0.005516139539365309,0.002720663384757686,0.0057330770562492505,0.02178013845080068,0.012454140045754077,0.0019640661018418626,0.017751979407916663
0.0623793,0.0017925513095696573,0.005531588705829276,0.002733903280283121,0.005738645545861085,0.02184684877025012,0.012519426869990767,0.001976685966340575,0.017776858466919235
0.0628448,0.0017981676054987842,0.005546449424903043,0.0027469387944291344,0.005743637903107978,0.021911837659440873,0.012584229323111068,0.0019893032854028463,0.017800543697592635
0.0633103,0.0018036661418985211,0.005560725100829653,0.002759769991302117,0.005748057990789978,0.021975110926199633,0.012648546815605203,0.0020019204467860196,0.017823060446664873
0.0637759,0.0018090470569932255,0.005574419221677211,0.002772396966858924,0.005751909774134338,0.022036674679516262,0.012712378837566023,0.002014539842038976,0.017844434095148333
0.0642414,0.0018143105042980844,0.005587535357846836,0.0027848198487118066,0.005755197319239151,0.02209653532730197,0.012775724958316007,0.0020271638654407215,0.017864690048162084
0.0647069,0.0018194566524973941,0.005600077160568908,0.002797038795929986,0.005757924791492266,0.02215469957408875,0.01283858482598716,0.0020397949129359384,0.017883853724846015
0.0651724,0.0018244856853237988,0.005612048360388399,0.002809053998838033,0.005760096453966272,0.022211174418668492,0.012900958167052527,0.0020524353810678106,0.01790195054837056
0.0656379,0.0018293978014385225,0.0056234527656400515,0.002820865678811234,0.0057617166657903856,0.022265967151670278,0.012962844785808173,0.0020650876659084236,0.017919005936045812
0.0661034,0.0018341932143126404,0.0056342942609141685,0.0028324740880681463,0.005762789880500093,0.022319085353074086,0.013024244563804787,0.002077754161987035,0.01793504528953362
0.066569,0.0018388721521094187,0.005644576805513716,0.0028438795094605494,0.00576332064436541,0.022370536889659287,0.013085157459228206,0.0020904372612165142,0.01795009398516627
0.0670345,0.0018434348575677604,0.005654304431903439,0.0028550822562609973,0.005763313594698588,0.022420329912385975,0.013145583506228508,0.0021031393518182425,0.01796417736437519
0.0675,0.0018478815878867827,0.005663481244151725,0.002866082671948196,0.005762773458142075,0.0224684728537073,0.013205522814197361,0.002115862817245786,0.01797732072423301
0.0679655,0.0018522126146115377,0.005672111416365938,0.002876881129990432,0.005761705048937515,0.022514974424810902,0.013264975566993452,0.0021286100351076503,0.01798954930811213
0.068431,0.001856428223519879,0.005680199191122009,0.002887478033627286,0.00576011326717663,0.02255984361278754,0.013323942022115978,0.002141383376089436,0.01800088829646312
0.0688966,0.0018605287145104677,0.005687748877889025,0.0028978738156498645,0.005758003097034773,0.022603089677725056,0.013382422509826332,0.002154185202875719,0.018011362797715886
0.0693621,0.0018645144014918969,0.005694764851449605,0.0029080689381797884,0.005755379604988044,0.022644722149726026,0.01344041743221827,0.002167017869071983,0.0180209978393067
0.0698276,0.0018683856122729146,0.005701251550316811,0.0029180638924471763,0.00575224793801481,0.02268475082584758,0.013497927262237069,0.0021798837181269005,0.018029818358834063
0.0702931,0.0018721426884537146,0.005707213475148321,0.0029278591985678437,0.005748613321782561,0.022723185766962074,0.013554952542648263,0.0021927850822552756,0.01803784919534619
0.0707586,0.0018757859853182589,0.005712655187158602,0.0029374554053199302,0.005744481058820997,0.022760037294537457,0.013611493884956742,0.0022057242813619286,0.018045115080763015
0.0712241,0.0018793158717275887,0.005717581306529815,0.0029468530899201518,0.005739856526682279,0.022795315987336393,0.013667551968277047,0.0022187036219668073,0.018051640631435394
0.0716897,0.0018827327300140735,0.005721996510822208,0.00295605285779985,0.005734745176089367,0.02282903267803308,0.013723127538155853,0.002231725396131599,0.01805745033984404
0.0721552,0.0018860369558765465,0.0057259055333846905,0.0029650553423809975,0.005729152529073354,0.022861198449746958,0.013778221405347582,0.0022447918803881134,0.018062568566440746
0.0726207,0.0018892289582762608,0.0057293131617662954,0.002973861204852296,0.005723084177100695,0.02289182463249225,0.013832834444544253,0.0022579053346687074,0.018067019531634247
0.0730862,0.0018923091593335986,0.005732224236129239,0.002982471133945495,0.005716545779191225,0.022920922799542522,0.01388696759306081,0.0022710680012390195,0.018070827307922963
0.0735517,0.0018952779942254716,0.0057346436476642185,0.002990885845712019,0.005709543060027852,0.02294850476370942,0.013940621849477293,0.0022842821036332998,0.018074015812176724
0.0740172,0.0018981359110833357,0.00573657633700863,0.0029991060832999946,0.005702081808058793,0.022974582573535154,0.01399379827223935,0.0022975498455926387,0.018076608798069535
0.0744828,0.0019008833708917523,0.005738027292668363,0.003007132616731736,0.005694167873593217,0.022999168509398742,0.014046497978218673,0.0023108734100064214,0.01807862984866529
0.0749483,0.0019035208473874245,0.005739001549443849,0.00301496624268174,0.00568580716689115,0.023022275079536567,0.014098722141235009,0.002324254957857355,0.018080102369158187
0.0754138,0.0019060488269586357,0.005739504186861018,0.0030226077842552337,0.005677005656248471,0.02304391501597843,0.014150471990541527,0.002337696627170468,0.018081049579769495
0.0758793,0.0019084678085450248,0.0057395403276078736,0.003030058090767293,0.005667769366077776,0.023064101270400875,0.014201748809275242,0.0023512005319664977,0.018081494508802243
0.0763448,0.0019107783035376157,0.005739115135977332,0.0030373180375225435,0.005658104374985918,0.023082847009900098,0.014252553932874277,0.002364768761220132,0.01808145998585528
0.0768103,0.001912980835679029,0.0057382338163170675,0.003044388525595442,0.005648016813848942,0.02310016561268704,0.014302888747463646,0.002378403377823599,0.018080968635198046
0.0772759,0.0019150759409637763,0.0057369016114870485,0.003051270481611129,0.005637512863885186,0.023116070663707675,0.01435275468821122,0.002392106417556109,0.018080042869307332
0.0777414,0.0019170641675385328,0.005735123801325511,0.0030579648575268428,0.005626598754727282,0.023130575950191603,0.014402153237655486,0.0024058798880596515,0.018078704882567125
0.0782069,0.0019189460756022616,0.005732905701124091,0.0030644726304138786,0.005615280762493814,0.023143695457131963,0.014451085924006669,0.002419725767821656,0.01807697664513251
0.0786724,0.001920722237306069,0.005730252660112836,0.0030707948022400786,0.0056035652078613735,0.02315544336269973,0.014499554319422781,0.0024336460051649906,0.01807487989695854
0.0791379,0.0019223932366526477,0.0057271700599558035,0.003076932399652857,0.005591458454137755,0.023165834033595414,0.014547560038262238,0.0024476425172458107,0.01807243614199471
0.0796034,0.0019239596693951721,0.005723663313257928,0.003082886473762758,0.005578966905336967,0.0231748820203412,0.014595104735314647,0.002461717189059716,0.01806966664254579
0.080069,0.001925422142935524,0.0057197378620837975,0.003088658099927587,0.005566097004256737,0.023182602052516686,0.014642190104011441,0.0024758718724567095,0.018066592413799498
0.0805345,0.0019267812762217274,0.0057153991764889766,0.0030942483775371296,0.005552855230559138,0.023189009033941655,0.014688817874618086,0.0024901083851654442,0.01806323421852145
0.081,0.0019280376996444807,0.005710652753064424,0.0030996584297985083,0.00553924809885493,0.02319411803780935,0.014734989812409598,0.0025044285098272186,0.018059612561917765
0.0814655,0.0019291920549326894,0.005705504113494545,0.0031048894035221922,0.00552528215679219,0.023197944301774097,0.014780707715831148,0.0025188339930402055,0.018055747686665617
0.081931,0.0019302449950479035,0.00569995880312935,0.0031099424689086793,0.00551096398314979,0.023200503222997035,0.014825973414645649,0.0025333265444143637,0.018051659568111868
0.0823966,0.0019311971840775802,0.00569402238957118,0.0031148188193358254,0.0054963001859362655,0.023201810353153655,0.014870788768070376,0.0025479078356374757,0.018047367909639893
0.0828621,0.0019320492971270982,0.0056877004612763725,0.003119519671146802,0.005481297400494602,0.023201881393406877,0.014915155662904956,0.002562579499552754,0.01804289213820453
0.0833276,0.0019328020202104622,0.005680998626172247,0.003124046263438639,0.005465962287613453,0.023200732189349132,0.014959076011653302,0.002577343129248448,0.018038251400034917
0.0837931,0.0019334560501396477,0.0056739225102897025,0.0031283998578513004,0.005450301531645303,0.02319837872591687,0.015002551750642364,0.0025922002771598877,0.01803346455650487
0.0842586,0.0019340120944125547,0.005666477756411709,0.003132581738357244,0.00543432183863211,0.023194837122280668,0.015045584838140695,0.0026071524541843834,0.01802855018017028
0.0847241,0.0019344708710995408,0.005658670022737943,0.003136593211051411,0.005418029934438944,0.023190123626713927,0.015088177252479925,0.0026222011288094087,0.018023526550972967
0.0851897,0.0019348331087285365,0.005650504981565764,0.0031404356039415955,0.005401432562896212,0.023184254611443127,0.015130330990182314,0.002637347726254467,0.018018411652610183
0.0856552,0.0019350995461687459,0.005641988317987685,0.0031441102667391463,0.005384536483951018,0.023177246567482244,0.015172048064097518,0.002652593627627034,0.01801322316906888
0.0861207,0.0019352709325129599,0.00563312572860545,0.003147618570649949,0.0053673484718282805,0.023169116099453862,0.015213330501551716,0.0026679401690929442,0.01800797848132381
0.0865862,0.0019353480269585146,0.005623922920260804,0.003150961908165639,0.0053498753132021635,0.02315987992039933,0.015254180342512167,0.0026833886410615754,0.0180026946641984
0.0870517,0.0019353315986869425,0.005614385608782996,0.0031541416928549766,0.005332123805378401,0.023149554846580246,0.015294599637770181,0.0026989402873861534,0.01799738848338713
0.0875172,0.0019352224267423694,0.0056045195177530085,0.003157159359155304,0.005314100754488093,0.023138157792273115,0.015334590447145328,0.0027145963045795024,0.017992076392638164
0.0879828,0.0019350212999087154,0.0055943303772845124,0.0031600163621639758,0.005295812973693514,0.02312570576455913,0.015374154837713639,0.0027303578410455254,0.017986774531094797
0.0884483,0.0019347290165857513,0.0055838239228214875,0.0031627141774296544,0.005277267281406487,0.023112215858110796,0.01541329488206246,0.002746225996326687,0.01798149872079407
0.0889138,0.0019343463846640584,0.00557300589395246,0.0031652543007433327,0.005258470499519852,0.023097705249976827,0.015452012656574438,0.0027622018203677717,0.01797626446432084
0.0893793,0.0019338742213989301,0.005561882033241285,0.003167638247928928,0.005239429451652532,0.023082191194366906,0.015490310239743062,0.0027782863127961597,0.01797108694261543
0.0898448,0.0019333133532832417,0.005550458085074434,0.003169867554633285,0.005220150961408666,0.023065691017437565,0.015528189710522108,0.0027944804222188695,0.01796598101293273
0.0903103,0.0019326646159193175,0.0055387397945247325,0.0031719437761154215,0.005200641850651287,0.023048222112080567,0.015565653146711227,0.0028107850455366106,0.017960961206950628
0.0907759,0.001931928853889814,0.0055267329062315485,0.0031738684870348307,0.005180908937790973,0.02302980193271513,0.01560270262337988,0.0028272010272750933,0.017956041729025363
0.0912414,0.0019311069206276379,0.00551444316329744,0.0031756432812386696,0.005160959036089944,0.023010447990085135,0.015639340211331714,0.0028437291589338415,0.017951236454591415
0.0917069,0.001930199678284921,0.005501876306201321,0.003177269771547669,0.005140798951982018,0.022990177846062637,0.015675567975611444,0.0028603701783527537,0.017946558928703376
0.0921724,0.0019292079976010708,0.005489038071728235,0.003178749589540559,0.005120435483408865,0.022969009108458973,0.015711387974056145,0.0028771247690966414,0.01794202236471724
0.0926379,0.0019281327577699142,0.005475934191915831,0.0031800843853368246,0.005099875418172943,0.02294695942584463,0.015746802255892776,0.00289399355985796,0.01793763964310843
0.0931034,0.0019269748463059408,0.005462570393017675,0.0031812758273775826,0.005079125532307487,0.022924046482379074,0.015781812860383646,0.0029109771238779343,0.01793342331042377
0.093569,0.0019257351589096552,0.005448952394483511,0.0031823256022043534,0.005058192588463895,0.02290028799265164,0.015816421815521377,0.0029280759783862458,0.017929385578364654
0.0940345,0.0019244145993320355,0.005435085907956602,0.0031832354142354853,0.005037083334316847,0.022875701696534505,0.01585063113677489,0.0029452905840594338,0.01792553832299848
0.0945,0.0019230140792381078,0.005420976636288257,0.0031840069855399718,0.005015804500987486,0.02285030535404887,0.01588444282588773,0.0029626213444981465,0.017921893084095596
0.0949655,0.0019215345180696524,0.005406630272569636,0.0031846420556083813,0.0049943628014849605,0.022824116740245495,0.015917858869729982,0.0029800686057233675,0.01791846106458892
0.095431,0.0019199768429070674,0.005392052499180869,0.0031851423811206014,0.004972764929166607,0.02279715364010079,0.015950881239204913,0.0029976326556917306,0.01791525313015359
0.0958966,0.0019183419883304312,0.005377248986857514,0.003185509735710108,0.004951017556217029,0.02276943384342978,0.01598351188821123,0.003015313723830053,0.017912279808903933
0.0963621,0.001916630896279812,0.005362225393774308,0.0031857459097244635,0.004929127332146272,0.02274097513981742,0.01601575275266192,0.0030331119805892034,0.017909551291205177
0.0968276,0.0019148445159148917,0.0053469873646461346,0.0031858527099818006,0.004907100882307278,0.022711795313569736,0.01604760574956038,0.0030510275370174396,0.017907077429597087
0.0972931,0.0019129838034739868,0.005331540529846117,0.00318583195952305,0.004884944806432798,0.022681912138686602,0.016079072776134448,0.003069060444353339,0.017904867738826852
0.0977586,0.0019110497221325688,0.005315890504540694,0.0031856854973597326,0.004862665677191877,0.022651343373857998,0.016110155709028885,0.0030872106936384244,0.017902931395988437
0.0982241,0.0019090432418614074,0.0053000428878415586,0.003185415178217154,0.0048402700387661065,0.02262010675748588,0.016140856403556655,0.0031054782153495937,0.017901277240765758
0.0986897,0.001906965339284467,0.005284003261974299,0.003185022872272882,0.004817764405445817,0.02258822000273424,0.016171176693009343,0.0031238628790514235,0.017899913775777147
0.0991552,0.0019048169975366953,0.005267777191463597,0.0031845104648903955,0.004795155260246428,0.022555700792609858,0.01620111838802689,0.0031423644930684436,0.017898849167018744
0.0996207,0.0019025992061218319,0.005251370222334807,0.0031838798563478283,0.004772449053545197,0.022522566775076535,0.016230683276026746,0.0031609828041774635,0.017898091244404675
0.1000862,0.0019003129607703638,0.0052347878813317214,0.0031831329615617295,0.004749652201738595,0.022488835558205366,0.016259873120692367,0.003179717497320088,0.017897647502402234
0.1005517,0.0018979592632977303,0.005218035675150326,0.003182271709805784,0.004726771085920585,0.02245452470536369,0.01628868966152092,0.0031985681953355678,0.017897525100760533
0.1010172,0.0018955391214628774,0.005201119089688294,0.003181298044424434,0.004703812050582027,0.022419651730445318,0.016317134613429866,0.0032175344587141784,0.017897730865331547
0.1014828,0.001893053548827252,0.0051840435893099855,0.003180213922541353,0.004680781402331456,0.022384234093144724,0.01634520966642203,0.00323661578537136,0.01789827128898257
0.1019483,0.0018905035646143112,0.005166814616126701,0.0031790213147626914,0.00465768540863749,0.02234828919427804,0.016372916485308614,0.0032558116104428486,0.017899152532599504
0.1024138,0.0018878901935696218,0.005149437589291917,0.003177722204875013,0.004634530296593139,0.02231183437115368,0.016400256709489535,0.00327512130610107,0.01790038042618051
0.1028793,0.0018852144658216348,0.005131917904311223,0.0031763185895378188,0.004611322251702245,0.022274886892995508,0.01642723195279039,0.00329454418139308,0.01790196047001986
0.1033448,0.0018824774167432077,0.005114260932366679,0.0031748124779705346,0.004588067416688312,0.02223746395642135,0.016453843803355385,0.003314079482100323,0.01790389783598193
0.1038103,0.0018796800868139598,0.005096472019655271,0.0031732058916338047,0.004564771890325933,0.022199582680979584,0.01648009382359562,0.003333726390620509,0.017906197368865423
0.1042759,0.00187682352148354,0.0050785564867411245,0.0031715008639049197,0.0045414417262950165,0.02216126010474632,0.016505983550192144,0.003353484025871894,0.017908863587857798
0.1047414,0.0018739087710359025,0.005060519627921144,0.003169699439747192,0.004518082932057955,0.022122513179985637,0.016531514494153087,0.0033733514432202475,0.017911900688079848
0.1052069,0.0018709368904546865,0.005042366710603692,0.003167803675373057,0.004494701467759907,0.02208335876887496,0.016556688140924262,0.003393327634428798,0.01791531254222022
0.1056724,0.0018679089392897943,0.005024102974699904,0.0031658156379006782,0.004471303245152316,0.022043813639297846,0.01658150595055246,0.00341341152763141,0.017919102702259587
0.1061379,0.0018648259815252696,0.005005733632027242,0.003163737405003827,0.004447894126539824,0.02200389446070589,0.0166059693579007,0.0034336019873292497,0.017923274401284033
0.1066034,0.0018616890854485774,0.004987263865724845,0.003161571064554778,0.004424479923750714,0.02196361780005157,0.01663007977291468,0.003453897814411168,0.017927830555387055
0.107069,0.0018584993235213868,0.0049686988296802435,0.0031593187142599914,0.004401066397131067,0.021923000117793544,0.016653838580939582,0.0034742977461980065,0.017932773765659524
0.1075345,0.0018552577722519526,0.004950043647967017,0.003156982461288332,0.004377659254562739,0.0218820577639757,0.01667724714308656,0.0034948004565110214,0.01793810632026682
0.108,0.001851965512069181,0.004931303414292958,0.0031545644218916127,0.004354264150505316,0.021840806974381278,0.01670030679664817,0.0035154045557646008,0.01794383019661224
0.1084655,0.0018486236271984561,0.004912483191458358,0.0031520667210172444,0.004330886685062106,0.021799263866762942,0.016723018855562058,0.0035361085910834158,0.017949947063585818
0.108931,0.0018452332055392967,0.004893588010824042,0.0031494914919128476,0.004307532403070251,0.021757444437149626,0.016745384610922235,0.0035569110464441357,0.017956458283897306
0.1093966,0.001841795338544902,0.004874622871788805,0.0031468408757226933,0.004284206793214997,0.021715364556230767,0.016767405331537217,0.003577810342841793,0.017963364916492336
0.1098621,0.0018383111211036497,0.004855592741275951,0.003144117021075921,0.004260915287168174,0.021673039965818423,0.01678908226453437,0.0035988048384808734,0.017970667719050284
0.1103276,0.0018347816514226003,0.004836502553228638,0.0031413220836665396,0.00423766325875092,0.021630486275387613,0.016810416636009583,0.003619892828991147,0.017978367150562686
0.1107931,0.0018312080309130653,0.004817357208113733,0.0031384582258252806,0.004214456023120714,0.02158771895869491,0.016831409651721425,0.0036410725476682523,0.01798646337399075
0.1112586,0.0018275913640782846,0.004798161572433899,0.0031355276160834455,0.004191298835982818,0.021544753350475433,0.01685206249782883,0.003662342165738997,0.0179949562590006
0.1117241,0.0018239327584032544,0.0047789204782476115,0.0031325324287289607,0.004168196892826225,0.021501604643217914,0.016872376341671182,0.0036836997926513195,0.018003845384774748
0.1121897,0.0018202333242467283,0.004759638722696793,0.003129474843354883,0.004145155328184256,0.021458287884017668,0.01689235233258963,0.0037051434763888127,0.018013130042898246
0.1126552,0.0018164941747354042,0.004740321067541751,0.0031263570444006413,0.004122179214919967,0.021414817971506933,0.016911991602788282,0.003726671203809703,0.01802280924031787
0.1131207,0.0018127164256603024,0.004720972238703107,0.0031231812206863017,0.004099273563536533,0.021371209652862082,0.016931295268233934,0.0037482809010101325,0.018032881702372574
0.1135862,0.0018089011953753352,0.004701596925810456,0.0031199495649401436,0.004076443321512783,0.02132747752088708,0.016950264429592667,0.00376997043371158,0.018043345875893447
0.1140517,0.0018050496046980707,0.004682199781757546,0.0031166642733198116,0.0040536933726641146,0.021283636011172648,0.01696890017320177,0.003791737607672249,0.018054199932371343
0.1145172,0.0018011627768127073,0.004662785422263804,0.0031133275449272916,0.004031028536528972,0.021239699399330514,0.01698720357207514,0.0038135801691221993,0.018065441771190138
0.1149828,0.0017972418371752742,0.0046433584254421244,0.0031099415813179566,0.00400845356778111,0.021195681798302335,0.01700517568694031,0.0038354958052220067,0.018077069022923657
0.1154483,0.001793287913421087,0.004623923331372884,0.0031065085860039194,0.003985973155667828,0.021151597155742788,0.017022817567305153,0.003857482144544709,0.018089079052694145
0.1159138,0.0017893021352744824,0.004604484641684222,0.003103030763951926,0.003963591923474352,0.021107459251476425,0.017040130252552205,0.003879536757580749,0.018101468963589988
0.1163793,0.0017852856344608582,0.004585046819138677,0.0030995103210760566,0.0039413144280145175,0.021063281695027768,0.017057114773058484,0.0039016571572656426,0.018114235600140388
0.1168448,0.0017812395446210431,0.004565614287226308,0.0030959494637254814,0.003919145159147887,0.021019077923224275,0.017073772151338575,0.003923840799530048,0.018127375551844415
0.1173103,0.0017771650012280073,0.004546191429764444,0.0030923503981675543,0.0038970885393234326,0.02097486119787159,0.01709010340320876,0.00394608508387193,0.018140885156751784
0.1177759,0.0017730631415059292,0.004526782590504205,0.003088715330066515,0.00387514892314987,0.020930644603500602,0.017106109538969894,0.0039683873539504986,0.018154760505092547
0.1182414,0.0017689351043516217,0.004507392072743925,0.0030850464639580917,0.0038533305969927598,0.02088644104518579,0.017121791564606807,0.003990744898201607,0.01816899744295273
0.1187069,0.0017647820302583187,0.004488024138949629,0.0030813460027202897,0.003831637778598461,0.02084226324643426,0.017137150483001972,0.004013154950474301,0.01818359157599291
0.1191724,0.0017606050612418197,0.004468683010382659,0.00307761614704067,0.0038100746167450475,0.020798123747144757,0.01715218729516121,0.004035614690688226,0.01819853827320673
0.1196379,0.0017564053407689798,0.0044493728667346355,0.0030738590948804164,0.003788645190920279,0.020754034901635965,0.017166903001449088,0.004058121245511596,0.018213832670716426
0.1201034,0.0017521840136885307,0.004430097845769841,0.0030700770409355306,0.0037673535110267047,0.02071000887674322,0.017181298602831633,0.004080671689059465,0.018229469675602676
0.120569,0.0017479422261642051,0.004410862042975211,0.0030662721760954985,0.0037462035171139645,0.02066605764998277,0.01719537510212389,0.004103263043612045,0.018245443969766184
0.1210345,0.0017436811256101327,0.004391669511218023,0.0030624466868998204,0.0037251990791383337,0.02062219300778256,0.01720913350523976,0.004125892280352835,0.01826175001381867
0.1215,0.0017394018606284615,0.004372524260411426,0.0030586027549928093,0.0037043439967495186,0.020578426543778734,0.017222574822441536,0.004148556320126352,0.01827838205100105
0.1219655,0.0017351055809491716,0.004353430257187902,0.0030547425565771074,0.0036836419991046893,0.020534769657177165,0.017235700069586475,0.004171252034215236,0.018295334111126587
0.122431,0.0017307934373720474,0.004334391424580755,0.0030508682618663853,0.0036630967447097073,0.020491233551179645,0.01724851026936767,0.004193976245136489,0.01831260001454683
0.1228966,0.001726466581710777,0.00431541164171369,0.0030469820345377075,0.0036427118212874927,0.02044782923147484,0.01726100645254635,0.004216725727456613,0.01833017337613824
0.1233621,0.0017221261667391527,0.004296494743498541,0.003043086031184056,0.003622490745673441,0.020404567504794368,0.01727318965917278,0.004239497208625382,0.018348047609307326
0.1238276,0.001717773346139346,0.004277644520341171,0.003039182400767483,0.003602436963737786,0.020361458977534466,0.017285060939792707,0.004262287369827942,0.018366215930012322
0.1242931,0.001713409274452223,0.004258864717855559,0.0030352732840733666,0.0035825538503347736,0.020318514054443734,0.017296621356636337,0.004285092846854966,0.01838467136079967
0.1247586,0.001709035107029655,0.004240159036586056,0.0030313608131662074,0.0035628447092784874,0.020275742937377404,0.017307871984786727,0.004307910230990529,0.018403406734853765
0.1252241,0.0017046519999887677,0.004221531131737777,0.0030274471108473833,0.00354331277334516,0.020233155624118437,0.017318813913324533,0.0043307360699173965,0.018422414700058568
0.1256897,0.0017002611101680693,0.004202984612915085,0.0030235342901152574,0.003523961204301768,0.02019076190726575,0.017329448246446076,0.0043535668686394274,0.018441687723069825
0.1261552,0.0016958635950853704,0.0041845230438680835,0.0030196244536280057,0.0035047930929607025,0.020148571373189816,0.017339776104551695,0.0043763990904207885,0.01846121809339669
0.1266207,0.001691460612897421,0.004166149942247021,0.0030157196931695166,0.0034858114592602667,0.020106593401055823,0.017349798625301477,0.004399229157741673,0.018480997927491704
0.1270862,0.00168705332236116,0.00414786877936449,0.003011822089118691,0.003467019252370767,0.020064837161914706,0.017359516964635436,0.004422053453270211,0.018501019172848042
0.1275517,0.001682642882796478,0.004129682979965277,0.003007933709922458,0.003448419350825897,0.02002331161786232,0.017368932297755497,0.004444868320850251,0.018521273612103085
0.1280172,0.0016782304540503721,0.004111595922003685,0.0030040566115728277,0.0034300145626791115,0.01998202552126689,0.017378045820066784,0.004467670066504663,0.018541752867147383
0.1284828,0.0016738171964623709,0.004093610936428158,0.0030001928370882616,0.0034118076256846727,0.019940987414064942,0.017386858748076005,0.004490454959453811,0.018562448403238018
0.1289483,0.0016694042708310921,0.004075731306972988,0.0029963444159996516,0.0033938012075029928,0.01990020562712567,0.017395372320244917,0.0045132192331488255,0.018583351533115335
0.1294138,0.001664992838381785,0.004057960269956924,0.0029925133638411716,0.003375997905929919,0.019859688279683804,0.01740358779779688,0.004535959086319283,0.018604453421121967
0.1298793,0.001660584060734706,0.004040301014088505,0.0029887016816462684,0.0033584002491495618,0.01981944327884078,0.017411506465474593,0.004558670684034903,0.018625745087322898
0.1303448,0.0016561790998741639,0.004022756680277961,0.0029849113554490303,0.0033410106960102505,0.019779478319134174,0.017419129632247104,0.004581350158780877,0.018647217411625214
0.1308103,0.0016517791181180526,0.00400533036145554,0.0029811443557911828,0.0033238316363231927,0.019739800882175168,0.017426458631964233,0.004603993611546472,0.018668861137896176
0.1312759,0.0016473852780876884,0.0039880251023961255,0.002977402637234926,0.0033068653911833587,0.019700418236353916,0.01743349482395692,0.004626597112926577,0.01869066687807796
0.1317414,0.0016429987426777586,0.00397084389955003,0.0029736881378818374,0.003290114213312113,0.019661337436612594,0.017440239593582353,0.004649156704235886,0.018712625116297524
0.1322069,0.001638620675026179,0.00395378970087982,0.002970002778898057,0.0032735802874210764,0.019622565324285884,0.017446694352713427,0.004671668398635488,0.018734726212969847
0.1326724,0.0016342522384836572,0.003936865405703096,0.002966348464045941,0.0032572657305966674,0.019584108527008558,0.017452860540172553,0.004694128182271649,0.018756960408892756
0.1331379,0.0016298945965827498,0.0039200738645411,0.002962727079222386,0.0032411725927047577,0.019545973458689764,0.0174587396221102,0.004716532015426652,0.01877931782933158
0.1336034,0.001625548913006208,0.0039034178789730755,0.002959140492004002,0.003225302856814849,0.019508166319553495,0.017464333092328584,0.004738875833681536,0.018801788488091838
0.134069,0.0016212163515543952,0.003886900201496231,0.0029555905511993172,0.003209658439643167,0.01947069309624466,0.017469642472550936,0.004761155549090639,0.018824362291578155
0.1345345,0.0016168980761115648,0.0038705235353912164,0.0029520790864081864,0.0031942411920140483,0.01943355956200017,0.017474669312636696,0.0047833670513678,0.01884702904283745
0.135,0.0016125952506107985,0.003854290534593007,0.002948607907588595,0.003179052899339001,0.01939677127688435,0.017479415190742895,0.004805506209084094,0.01886977844558445
0.1354655,0.001608309038997411,0.003838203803567167,0.002945178804631031,0.003164095282112836,0.019360333588087895,0.017483881713432,0.004827568870876923,0.018892600108207487
0.135931,0.001604040605190656,0.0038222658971915615,0.0029417935469406,0.0031493699964262726,0.019324251630289703,0.01748807051572664,0.004849550866670262,0.018915483547752427
0.1363966,0.0015997911130435694,0.003806479320643665,0.002938453883027043,0.0031348786344944416,0.019288530326080716,0.01749198326111176,0.004871448008905855,0.01893841819388273
0.1368621,0.0015955617263008189,0.003790846529293705,0.002935161540102822,0.0031206227252007206,0.01925317438644915,0.01749562164148502,0.0048932560937851,0.018961393392813667
0.1373276,0.00159135360855442,0.0037753699286039396,0.002931918223689436,0.0031066037346553443,0.01921818831132635,0.017498987377056463,0.004914970902521412,0.018984398411218982
0.1377931,0.0015871679231971884,0.0037600518740343873,0.0029287256172321574,0.0030928230667682417,0.019183576390192858,0.017502082216198697,0.004936588202602827,0.019007422440108605
0.1382586,0.0015830058333737948,0.0037448946709553173,0.002925585381723369,0.003079282063835557,0.01914934270274414,0.017504907935248965,0.004958103749064624,0.01903045459867644
0.1387241,0.00157886850192928,0.0037299005745668177,0.0029224991553346933,0.0030659820071393526,0.019115491119615798,0.017507466338264548,0.0049795132857717896,0.019053483938117587
0.1391897,0.0015747570913548906,0.0037150717898257386,0.002919468553058092,0.00305292411756002,0.019082025303167934,0.01750975925673311,0.005000812546711144,0.0190764994454146
0.1396552,0.0015706727637310825,0.003700410471380301,0.0029164951663561024,0.003040109556200984,0.019048948708328392,0.017511788549239685,0.0050219972572929416,0.019099490047092584
0.1401207,0.001566616680667526,0.003685918723512644,0.0029135805628213635,0.0030275394250253045,0.01901626458349468,0.017513556101092214,0.005043063135661777,0.019122444612943105
0.1405862,0.0015625900032399517,0.003671598600089577,0.002910726285845563,0.003015214767503819,0.018983975971494284,0.01751506382390775,0.00506400589401658,0.019145351959717147
0.1410517,0.001558593891923665,0.0036574521045217847,0.0029079338542979134,0.0030031365692744405,0.018952085710603035,0.017516313655161642,0.005084821239939478,0.01916820085478751
0.1415172,0.00155462950652357,0.003643481189731712,0.002905204762213246,0.0029913057588122184,0.018920596435621207,0.017517307557701978,0.005105504877733282,0.01919098001978115
0.1419828,0.001550698006100546,0.0036296877581303236,0.002902540478489802,0.0029797232081097613,0.018889510579006938,0.01751804751923152,0.005126052509767316,0.0192136781341821
0.1424483,0.0015468005488940295,0.003616073661602934,0.0028999424465967643,0.0029683897333675872,0.018858830372066402,0.017518535551759484,0.005146459837831267,0.01923628383890574
0.1429138,0.0015429382922406722,0.0036026407015042634,0.0028974120842915688,0.0029573060956939743,0.01882855784620015,0.01751877369102527,0.005166722564496748,0.019258785739844922
0.1433793,0.0015391123924889405,0.0035893906286628336,0.0028949507833470186,0.002946473001813852,0.018798694834204946,0.017518763995896424,0.005186836394486189,0.019281172411388953
0.1438448,0.0015353240049095426,0.0035763251433948164,0.0028925599092881975,0.002935891104786262,0.01876924297163035,0.017518508547742884,0.005206797036048667,0.019303432399916217
0.1443103,0.001531574283601569,0.0035634458955274046,0.0028902408011391707,0.002925561004729892,0.018740203698189347,0.017518009449789623,0.00522660020234225,0.019325554227261427
0.1447759,0.0015278643813942405,0.0035507544844317596,0.002887994771179427,0.002915483249556156,0.018711578259222317,0.017517268826449644,0.005246241612822389,0.019347526394158703
0.1452414,0.001524195449744188,0.0035382524590655572,0.002885823104710009,0.002905658335709294,0.01868336770721374,0.017516288822639184,0.005265716994635864,0.01936933738366172
0.1457069,0.0015205686386282151,0.0035259413180251443,0.002883727059829265,0.002896086708912938,0.018655572903360933,0.01751507160307679,0.005285022084019762,0.019390975664542284
0.1461724,0.0015169850964315186,0.0035138225096072876,0.002881707867218118,0.002886768764922599,0.01862819451919422,0.01751361935156794,0.005304152627704909,0.01941242969466886
0.1466379,0.0015134459698313795,0.0035018974318804887,0.002879766729934755,0.0028777048502835302,0.01860123303824799,0.01751193427027663,0.005323104384323185,0.01943368792436669
0.1471034,0.0015099524036763523,0.0034901674327658173,0.0028779048232186145,0.0028688952630934283,0.01857468875778239,0.01751001857898535,0.00534187312581807,0.019454738799761014
0.147569,0.001506505540861005,0.0034786338101272228,0.0028761232943035385,0.0028603402537694584,0.018548561790555522,0.017507874514344685,0.00536045463885779,0.019475570766105052
0.1480345,0.001503106522196272,0.0034672978118712914,0.002874423262239958,0.0028520400258190914,0.018522852066646157,0.017505504329113714,0.005378844726250376,0.019496172271094243
0.1485,0.001499756486275493,0.003456160636056405,0.0028728058177259755,0.002843994736614256,0.018497559335327055,0.017502910291392323,0.005397039208359984,0.019516531768168102
0.1489655,0.001496456569336232,0.003445223431011271,0.002871272022947242,0.002836204498168342,0.01847268316698886,0.017500094683846473,0.005415033924523781,0.019536637719800912
0.149431,0.0014932079051179577,0.003434487295462794,0.0028698229114255368,0.0028286693779155745,0.01844822295511451,0.017497059802927324,0.005432824734468695,0.01955647860078241
0.1498966,0.0014900116247156742,0.0034239532786732494,0.002868459487875977,0.00282138939949233,0.01842417791830399,0.017493807958085184,0.005450407519727322,0.019576042901489444
0.1503621,0.001486868856429583,0.0034136223805867373,0.0028671827280728054,0.0028143645435199684,0.01840054710234917,0.017490341470979123,0.0054677781850522526,0.01959531913114962
0.1508276,0.0014837807256108638,0.0034034955519849255,0.002865993578723701,0.0028075947483887677,0.018377329382358355,0.017486662674683098,0.00548493265982806,0.01961429582109769
0.1512931,0.001480748354503661,0.0033935736946520824,0.0028648929573525557,0.002801079911042561,0.01835452346493027,0.017482773912889337,0.005501866899480161,0.019632961528025666
0.1517586,0.001477772862083385,0.003383857661549421,0.0028638817521906418,0.0027948198877636925,0.018332127890377137,0.017478677539109762,0.00551857688687974,0.019651304837227386
0.1522241,0.0014748553638914493,0.0033743482569987882,0.0028629608220760664,0.002788814494957909,0.0183101410349967,0.017474375915876045,0.005535058633743882,0.0196693143658383
0.1526897,0.0014719969718665954,0.00336504623687572,0.0028621309963614157,0.0027830635099388274,0.018288561113393026,0.017469871413938944,0.005551308182030057,0.019686978766071093
0.1531552,0.0014691987941729758,0.0033559523088118885,0.0028613930748294827,0.0027775666717116247,0.018267386180846047,0.017465166411467344,0.005567321605324061,0.01970428672844778
0.1536207,0.0014664619350251884,0.003347067132407001,0.002860747827616975,0.0027723236817556313,0.018246614135729654,0.01746026329324736,0.005583095010220538,0.01972122698502872
0.1540862,0.0014637874945104762,0.0033383913194501955,0.0028601959951461324,0.002767334204805524,0.018226242721978196,0.01745516444988171,0.005598624537695266,0.019737788312638962
0.1545517,0.0014611765684083117,0.0033299254341510004,0.002859738288064175,0.0027625978696308225,0.018206269531601118,0.01744987227698938,0.005613906364468366,0.01975395953609225
0.1550172,0.0014586302480075837,0.00332166999337995,0.002859375387190528,0.0027581142698134,0.018186692007245406,0.017444389174405526,0.005628936704357667,0.019769729531412965
0.1554828,0.0014561496199216048,0.0033136254669189126,0.0028591079434717977,0.0027538829645227278,0.01816750744480537,0.017438717545381344,0.005643711809621429,0.019785087229056395
0.1559483,0.0014537357659011403,0.003305792277721212,0.0028589365779444708,0.002749903479288556,0.018148712996079244,0.01743285979578358,0.005658227972289624,0.019800021617127475
0.1564138,0.0014513897626456471,0.003298170802181597,0.0028588618817053132,0.0027461753067707373,0.018130305671472016,0.017426818333293174,0.005672481525482962,0.019814521744598315
0.1568793,0.0014491126816129126,0.003290761370416117,0.0028588844158894612,0.0027426979075259213,0.018112282342743792,0.01742059556660252,0.005686468844718851,0.01982857672452463
0.1573448,0.001446905588827262,0.0032835642665519737,0.00285900471165617,0.0027394707107708228,0.01809463974580302,0.017414193904610777,0.005700186349203511,0.019842175737261176
0.1578103,0.0014447695446864973,0.003276579729027407,0.002859223270182174,0.0027364931151417715,0.01807737448354383,0.01740761575561689,0.005713630503109487,0.01985530803367631
0.1582759,0.0014427056037677217,0.0032698079509016695,0.002859540562662596,0.0027337644894502317,0.018060483028726714,0.017400863526509963,0.00572679781683785,0.019867962938365617
0.1587414,0.0014407148146321936,0.0032632490801751362,0.002859957030319327,0.0027312841734339864,0.018043961726901786,0.017393939621957094,0.005739684848264375,0.01988012985286469
0.1592069,0.0014387982196293466,0.0032569032201195795,0.002860473084416798,0.0027290514785036734,0.018027806799373908,0.017386846443588705,0.005752288203969032,0.019891798258860952
0.1596724,0.0014369568547001007,0.0032507704296186176,0.0028610891062850244,0.002727065688484341,0.018012014346208926,0.017379586389181658,0.005764604540448197,0.019902957721404414
0.1601379,0.0014351917491795853,0.003244850723518328,0.00286180544734984,0.002725326060351693,0.01799658034928028,0.01737216185184042,0.005776630565309057,0.019913597892117142
0.1606034,0.0014335039255993838,0.003239144072988003,0.0028626224291702232,0.002723831824962676,0.017981500675355238,0.01736457521917647,0.0057883630384457894,0.01992370851240113
0.161069,0.0014318943994893999,0.00323365040589102,0.0028635403434826203,0.002722582187780057,0.017966771079219863,0.017356828872486206,0.005799798773197156,0.019933279416644124
0.1615345,0.0014303641791794332,0.0032283696071657743,0.0028645594522521767,0.0027215763295906094,0.017952387206841836,0.017348925185927722,0.00581093463748521,0.019942300535422848
0.162,0.0014289142656005469,0.0032233015192166255,0.002865679987730781,0.0027208134072165403,0.017938344598570126,0.01734086652569677,0.005821767554934868,0.01995076189870294
0.1624655,0.0014275456520863009,0.0032184459423147925,0.0028669021525217987,0.002720292554219775,0.01792463869237035,0.017332655249202578,0.005832294505974078,0.01995865363903478
0.162931,0.0014262593241739137,0.0032138026350091217,0.0028682261196513806,0.0027200128815987427,0.017911264827094722,0.017324293704244403,0.0058425125289144455,0.019965965994744348
0.1633966,0.0014250562594054213,0.003209371314546659,0.0028696520326461947,0.002719973478477306,0.017898218245785313,0.017315784228189933,0.005852418721012229,0.019972689313118037
0.1638621,0.001423937427128898,0.0032051516573029623,0.0028711800056174168,0.0027201734127855065,0.017885494099009372,0.01730712914715682,0.005862010239509726,0.01997881405358032
0.1643276,0.0014229037882997912,0.0032011432992220773,0.002872810123350798,0.0027206117319317903,0.017873087448225328,0.017298330775198874,0.00587128430265715,0.01998433079086316
0.1647931,0.001421956295282427,0.0031973458362661088,0.0028745424414026123,0.0027212874634663735,0.017860993269178026,0.01728939141349836,0.005880238190715155,0.01998923021816607
0.1652586,0.0014210958916517286,0.0031937588248743018,0.002876376986201276,0.00272219961573542,0.017849206455321658,0.017280313349565875,0.005888869246938203,0.019993503150305954
0.1657241,0.0014203235119951867,0.003190381782431539,0.002878313755154422,0.002723347178525704,0.017837721821268724,0.017271098856449212,0.005897174878538982,0.019997140526855847
0.1661897,0.0014196400817151123,0.0031872141877461475,0.0028803527167612216,0.0027247291236994456,0.017826534106263284,0.017261750191952675,0.005905152557634082,0.020000133415271668
0.1666552,0.0014190465168311983,0.0031842554815368945,0.0028824938107297545,0.00272634440581902,0.017815637977676706,0.017252269597868092,0.005912799822171151,0.02000247301400618
0.1671207,0.0014185437237834117,0.003181505066929045,0.002884736948099222,0.002728191962761271,0.017805028034523926,0.01724265929921892,0.005920114276837737,0.02000415065560933
0.1675862,0.00141813259923524,0.0031789623099593226,0.0028870820113668125,0.002730270716321187,0.017794698810998252,0.017232921503518708,0.005927093593951978,0.02000515780981396
0.1680517,0.0014178140298773086,0.003176626540089623,0.0028895288546190124,0.0027325795728047097,0.017784644780022556,0.017223058400045167,0.005933735514335328,0.020005486086606183
0.1685172,0.0014175888922313936,0.0031744970507293162,0.002892077303667189,0.0027351174236104427,0.01777486035681464,0.017213072159131163,0.005940037848167441,0.020005127239279247
0.1689828,0.0014174580524548496,0.0031725730997659634,0.0028947271561872256,0.002737883145800035,0.017765339902464445,0.017202964931473774,0.005945998475823383,0.020004073167470025
0.1694483,0.0014174223661454583,0.0031708539101042636,0.002897478181863047,0.002740875602656983,0.01775607772752074,0.01719273884746254,0.005951615348693275,0.020002315920176914
0.1699138,0.0014174826781467014,0.003169338670213047,0.002900330122533818,0.0027440936442336035,0.017747068095584826,0.01718239601652798,0.005956886489984453,0.019999847698758
0.1703793,0.0014176398223534536,0.003168026534680108,0.0029032826923446383,0.0027475361078858865,0.017738305226908786,0.017171938526511315,0.0059618099955061985,0.019996660859908196
0.1708448,0.001417894621518085,0.003166916624774688,0.0029063355779005103,0.0027512018187959594,0.017729783301995847,0.01716136844305631,0.0059663840344370625,0.01999274791861387
0.1713103,0.0014182478870569531,0.0031660080290173993,0.002909488438423371,0.0027550895904818384,0.017721496465200447,0.017150687809024037,0.005970606850074735,0.01998810155108337
0.1717759,0.0014187004188572698,0.0031652998037573956,0.0029127409059119453,0.002759198225294146,0.01771343882832568,0.017139898643931405,0.005974476760568419,0.019982714597651694
0.1722414,0.0014192530050843215,0.0031647909737565908,0.0029160925853041887,0.002763526514899445,0.017705604474215746,0.01712900294341429,0.005977992159633621,0.01997658006565748
0.1727069,0.0014199064219890293,0.0031644805327807335,0.002919543054642051,0.0027680732407498318,0.01769798746034114,0.017118002678715997,0.0059811515172492535,0.019969691132290315
0.1731724,0.001420661433715825,0.003164367444197141,0.0029230918652383107,0.002772837174538401,0.01769058182237432,0.017106899796201867,0.005983953380336904,0.019962041147406184
0.1736379,0.0014215187921108234,0.0031644506415788817,0.0029267385418452253,0.0027778170786401943,0.01768338157775367,0.017095696216900567,0.005986396373422089,0.019953623636308895
0.1741034,0.0014224792365302775,0.003164729029315195,0.0029304825828247493,0.002783011706538247,0.017676380729233568,0.017084393836072635,0.005988479199277291,0.019944432302494996
0.174569,0.0014235434936492979,0.003165201483227914,0.002934323460320073,0.002788419803234349,0.01766957326841838,0.017072994522806573,0.0059902006395465175,0.019934461030359653
0.1750345,0.0014247122772708255,0.0031658668511936566,0.002938260620428237,0.002794040105644152,0.01766295317927823,0.017061500119642758,0.005991559555351071,0.019923703887860772
0.1755,0.0014259862881348421,0.0031667239537715186,0.0029422934833736023,0.0027998713429762683,0.017656514441644414,0.01704991244222523,0.005992554887876209,0.019912155129138485
0.1759655,0.0014273662137278072,0.003167771584835981,0.0029464214436819565,0.002805912237095042,0.017650251034682252,0.017038233278981397,0.005993185658938303,0.019899809197086955
0.176431,0.0014288527280922993,0.003169008512214737,0.0029506438703550764,0.002812161502866673,0.017644156940339287,0.017026464390829412,0.005993450971532076,0.019886660725875336
0.1768966,0.0014304464916368416,0.0031704334783311055,0.0029549601070455764,0.002818617848488373,0.01763822614676651,0.01701460751091294,0.005993350010357473,0.0198727045434146
0.1773621,0.0014321481509458772,0.0031720452008506916,0.002959369472231899,0.0028252799758002826,0.017632452651710345,0.017002664344362938,0.005992882042325663,0.019857935673766924
0.1778276,0.001433958338589866,0.003173842373331944,0.002963871259393326,0.0028321465805798414,0.017626830465872982,0.016990636568085832,0.005992046417043643,0.01984234933949411
0.1782931,0.0014358776729354668,0.003175823665880261,0.0029684647371849135,0.002839216352818382,0.01762135361623855,0.016978525830577473,0.005990842567276868,0.019825940963941593
0.1787586,0.0014379067579557829,0.003177987725805285,0.002973149149612282,0.0028464879769797085,0.017616016149362746,0.016966333751762083,0.005989270009389295,0.019808706173454413
0.1792241,0.0014400461830406334,0.0031803331782810427,0.0029779237162062184,0.002853960132240462,0.017610812134623517,0.016954061922855385,0.00598732834376024,0.019790640799521385
0.1796897,0.0014422965228068259,0.0031828586270085924,0.002982787632197057,0.002861631492712099,0.017605735667430303,0.016941711906251183,0.005985017255177435,0.019771740880843627
0.1801552,0.0014446583369083887,0.0031855626548808365,0.0029877400686888315,0.002869500727644352,0.017600780872389483,0.016929285235430695,0.005982336513205719,0.019752002665323374
0.1806207,0.001447132169846718,0.0031884438246491645,0.00299278017283319,0.002877566501610091,0.01759594190642349,0.016916783414893995,0.0059792859725308276,0.019731422611968932
0.1810862,0.0014497185507805826,0.0031915006795915925,0.002997907068003067,0.002885827474671553,0.01759121296184094,0.016904207920113063,0.005975865573277846,0.019709997392711516
0.1815517,0.00145241799333593,0.0031947317441820442,0.003003119853966096,0.002894282302527999,0.017586588269355094,0.016891560197506095,0.005972075341303965,0.01968772389412956
0.1820172,0.0014552309954154157,0.0031981355247604312,0.003008417607057754,0.002902929636644924,0.017582062101047756,0.01687884166443283,0.005967915388465266,0.019664599219076057
0.1824828,0.0014581580390075983,0.003201710510203146,0.0030137993803542287,0.0029117681243650364,0.01757762877327568,0.01686605370921097,0.005963385912857314,0.019640620688204626
0.1829483,0.001461199589995734,0.003205455172593584,0.003019264203845,0.002920796409001294,0.017573282649516332,0.016853197691153846,0.005958487199029411,0.019615785841389944
0.1834138,0.0014643560979661335,0.0032093679678922744,0.0030248110846051515,0.0029300131299123235,0.01756901814314983,0.016840274940629642,0.005953219618172335,0.0195900924390387
0.1838793,0.001467627996016046,0.0032134473366061908,0.00303043900696744,0.002939416922560561,0.017564829720173696,0.01682728675914258,0.005947583628279427,0.01956353846328746
0.1843448,0.0014710157005610564,0.0032176917044567928,0.0030361469326941727,0.0029490064185534654,0.017560711901846892,0.01681423441943654,0.005941579774280868,0.01953612211908428
0.1848103,0.0014745196111419995,0.0032220994830463377,0.0030419338011489537,0.002958780245668127,0.01755665926725959,0.016801119165621707,0.005935208688150967,0.01950784183515135
0.1852759,0.0014781401102313945,0.003226669070521982,0.003047798529468365,0.0029687370278596026,0.01755266645582501,0.016787942213324736,0.005928471088988259,0.019478696264826068
0.1857414,0.0014818775630394288,0.003231398852237188,0.003053740012733639,0.002978875385253277,0.017548728169689703,0.016774704749862958,0.005921367783068204,0.019448684286778466
0.1862069,0.001485732317319524,0.0032362872014099157,0.0030597571241423654,0.0029891939341215737,0.017544839176058667,0.01676140793444299,0.005913899663868212,0.0194178050056029
0.1866724,0.0014897047031735254,0.0032413324797770727,0.0030658487151802648,0.0029996912868453336,0.01754099430943184,0.016748052898384047,0.005906067712064721,0.019386057752282453
0.1871379,0.00149379503285656,0.003246533038244661,0.0030720136157930213,0.00301036605186022,0.017537188473748612,0.01673464074536613,0.0058978729955020395,0.01935344208452486
0.1876034,0.0014980036005816059,0.0032518872175330616,0.0030782506345581654,0.003021216833588573,0.017533416644437094,0.016721172551703318,0.005889316669132672,0.019319957786969603
0.188069,0.0015023306823238056,0.003257393348816845,0.00308455855885697,0.0030322422323571982,0.017529673870364852,0.016707649366642166,0.005880399974928831,0.019285604871266997
0.1885345,0.001506776535624554,0.0032630497543585154,0.003090936155046309,0.0030434408443016626,0.017525955275687885,0.01669407221268523,0.0058711242417648435,0.01925038357603113
0.189,0.0015113413993953818,0.0032688547481355508,0.0030973821686303867,0.003054811261257691,0.017522256061594688,0.01668044208593969,0.005861490885270128,0.019214294366669386
0.1894655,0.0015160254937216452,0.0032748066364601354,0.0031038953244322577,0.0030663520706402984,0.017518571507942365,0.016666759956490817,0.005851501407652428,0.019177337935092104
0.189931,0.0015208290196660295,0.0032809037185909593,0.0031104743267650193,0.0030780618553112762,0.017514896974782226,0.016653026768800042,0.005841157397491028,0.019139515199305908
0.1903966,0.001525752159071866,0.0032871442873364754,0.0031171178596025697,0.00308993919343564,0.017511227903772554,0.016639243442127288,0.005830460529499719,0.019100827302894717
0.1908621,0.0015307950743662694,0.003293526629649014,0.0031238245867498235,0.0031019826583276373,0.017507559819476777,0.016625410870977055,0.005819412564259354,0.019061275614392314
0.1913276,0.0015359579083631,0.003300049027209152,0.003130593152012303,0.00311419081828689,0.01750388833054552,0.01661152992556768,0.005808015347920014,0.019020861726550507
0.1917931,0.0015412407840657803,0.003306709756999747,0.003137422179365021,0.0031265622364252555,0.017500209130781468,0.016597601452323096,0.005796270811872868,0.018979587455506913
0.1922586,0.0015466438044699977,0.003313507091869055,0.003144310273120621,0.0031390954704849567,0.017496518000086198,0.016583626274386306,0.005784180972391931,0.018937454839856212
0.1927241,0.0015521670523663423,0.0033204393010823744,0.0031512560180967527,0.003151789072648526,0.017492810805288538,0.016569605192153752,0.005771747930246034,0.018894466139628804
0.1931897,0.0015578105901429369,0.0033275046508616703,0.0031582579797826728,0.003164641589341098,0.017489083500854104,0.016555538983829582,0.0057589738702813285,0.018850623835180536
0.1936552,0.0015635744595881313,0.0033347014049126596,0.003165314704505113,0.003177651561025559,0.017485332129475978,0.016541428405998846,0.005745861060974686,0.0188059306259972
0.1941207,0.0015694586816933545,0.0033420278249388508,0.00317242471959348,0.003190817521991056,0.017481552822546577,0.016527274194218462,0.005732411853958343,0.01876038942941719
0.1945862,0.0015754632564562352,0.00334948217114207,0.003179586533544503,0.003204138000135357,0.01747774180051101,0.016513077063624728,0.0057186286835161715,0.018714003379275757
0.1950517,0.0015815881626841128,0.0033570627027090356,0.0031867986361864735,0.003217611516741514,0.017473895373102538,0.016498837709556055,0.005704514066051874,0.01866677582447402
0.1955172,0.0015878333577980753,0.00336476767828356,0.003194059498843275,0.003231236586249301,0.01747000993946131,0.016484556808189485,0.0056900705995294254,0.01861871032747594
0.1959828,0.0015941987776376613,0.003372595356423998,0.003201367574498425,0.003245011716021857,0.017466081988138066,0.016470235017189475,0.005675300962886022,0.018569810662736178
0.1964483,0.0016006843362663685,0.0033805439960455704,0.0032087212979594014,0.003258935406107983,0.01746210809698522,0.016455872976367424,0.005660207915417776,0.018520080815061766
0.1969138,0.0016072899257781135,0.0033886118568471984,0.0032161190860225232,0.0032730061490005365,0.01745808493293824,0.01644147130835037,0.0056447942961383325,0.018469524977910424
0.1973793,0.0016140154161048048,0.0033967971997225224,0.003223559337638709,0.0032872224293913717,0.017454009251690758,0.01642703061925738,0.005629063023110576,0.018418147551628152
0.1978448,0.0016208606548251904,0.0034050982871547714,0.0032310404340804262,0.0033015827239232533,0.017449877897266906,0.0164125514993822,0.005613017092751551,0.01836595314162881
0.1983103,0.0016278254669751622,0.003413513383595196,0.00323856073911016,0.0033160855009391863,0.01744568780149453,0.016398034523880674,0.005596659579110743,0.018312946556518137
0.1987759,0.0016349096548597085,0.0034220407558247954,0.0032461185991507244,0.0033307292202295674,0.017441435983382877,0.016383480253461518,0.005579993633121883,0.018259132806164664
0.1992414,0.0016421129978667177,0.003430678673299105,0.003253712343457751,0.00334551233277756,0.017437119548408278,0.016368889235078857,0.005563022481828472,0.01820451709971987
0.1997069,0.0016494352522828434,0.0034394254084758337,0.003261340284294666,0.0033604332805030894,0.017432735687711247,0.01635426200262503,0.005545749427583343,0.01814910484358994
0.2001724,0.001656876151111654,0.003448279237125157,0.003269000717110483,0.0033754904960058185,0.017428281677208394,0.016339599077622058,0.00552817784722257,0.018092901639361274
0.2006379,0.001664435403894293,0.003457238438622497,0.0032766919207207028,0.0033906824023074724,0.01742375487662241,0.01632490096991021,0.005510311191214137,0.01803591328168201
0.2011034,0.0016721126965328714,0.0034663012962236274,0.0032844121574915996,0.003406007412593865,0.01741915272843336,0.016310168178332266,0.005492152982781775,0.017978145756101675
0.201569,0.0016799076911168135,0.0034754660973219443,0.003292159673528162,0.003421463929956986,0.017414472756754663,0.016295401191412078,0.00547370681700444,0.01791960523687089
0.2020345,0.0016878200257523603,0.003484731133687737,0.00329993269886591,0.0034370503471375198,0.017409712566137103,0.016280600488026115,0.005454976359891885,0.01786029808470315
0.2025,0.0016958493143954412,0.003494094701689274,0.003307729447666833,0.0034527650462681638,0.017404869840304173,0.016265766538066655,0.005435965347436853,0.017800230844500407
0.2029655,0.0017039951466881094,0.003503555102495513,0.003315548118419646,0.0034686063986181332,0.01739994234082212,0.016250899803095343,0.005416677584644386,0.01773941024304413
0.203431,0.0017122570877987323,0.003513110642260236,0.0033233868941445373,0.003484572764339236,0.01739492790570801,0.016236000736985907,0.005397116944538808,0.01767784318665346
0.2038966,0.001720634678266129,0.0035227596322874267,0.003331243942602589,0.0035006624922139166,0.01738982444797918,0.016221069786554822,0.005377287367148956,0.017615536758811924
0.2043621,0.001729127433847836,0.0035325003891777426,0.0033391174165100027,0.003516873919405647,0.017384629954147295,0.01620610739217885,0.005357192858472231,0.017552498217764244
0.2048276,0.0017377348453726784,0.003542331234956,0.003347005453757267,0.003533205371212052,0.017379342482660362,0.01619111398839831,0.005336837489418037,0.017488734994084723
0.2052931,0.0017464563785978137,0.003552250497179669,0.0033549061776333845,0.0035496551608211495,0.017373960162296028,0.016176090004505015,0.00531622539473115,0.017424254688218763
0.2057586,0.001755291474070407,0.0035622565090284654,0.0033628176970552635,0.0035662215890710685,0.01736848119050939,0.016161035865113707,0.005295360771895503,0.01735906506799897
0.2062241,0.0017642395469940914,0.0035723476093752105,0.0033707381068023607,0.0035829029442136368,0.017362903831738663,0.01614595199071601,0.0052742478800188635,0.01729317406613759
0.2066897,0.0017732999871003623,0.0035825221428382194,0.003378665487756635,0.0035996975016821956,0.017357226415671854,0.01613083879821593,0.0052528910386988046,0.017226589777696946
0.2071552,0.0017824721585250455,0.0035927784598155698,0.0033865979071478767,0.00361660352386402,0.017351447335477603,0.016115696701446115,0.0052312946268703855,0.01715932045753971
0.2076207,0.0017917553996899833,0.0036031149165016737,0.003394533418804433,0.0036336192598777034,0.017345565046003097,0.0161005261116643,0.005209463081635865,0.01709137451776085
0.2080862,0.0018011490231900642,0.0036135298748866574,0.003402470063409342,0.00365074294535586,0.017339578061942,0.016085327438029238,0.005187400897076796,0.017022760525103164
0.2085517,0.0018106523156857317,0.003624021702739119,0.0034104058687618676,0.003667972802233463,0.017333484955975142,0.016070101088055812,0.00516511262304884,0.01695348719835816
0.2090172,0.0018202645378010925,0.003634588773572861,0.003418338850044406,0.003685307038542135,0.01732728435688665,0.016054847468048764,0.005142602863959664,0.01688356340575412
0.2094828,0.0018299849240277321,0.003645229466598216,0.003426267010094728,0.0037027438482106494,0.017320974947658177,0.01603956698351463,0.005119876277530329,0.016812998162333004
0.2099483,0.0018398126826343472,0.0036559421666585872,0.0034341883396835408,0.0037202814108719105,0.017314555463543813,0.01602426003955164,0.005096937573540645,0.016741800627317865
0.2104138,0.0018497469955822813,0.0036667252641527934,0.003442100817797329,0.0037379178916766157,0.017308024690128276,0.016008927041217536,0.0050737915125590415,0.01666998010147235
0.2108793,0.0018597870184470478,0.00367757715494381,0.0034500024119264953,0.0037556514411137922,0.017301381461371005,0.015993568393875487,0.005050442904657586,0.01659754602445388
0.2113448,0.0018699318803459075,0.003688496240254455,0.0034578910783587963,0.003773480194838379,0.01729462465763887,0.01597818450351888,0.005026896608112805,0.01652450797216213
0.2118103,0.0018801806838715696,0.00369948092655056,0.0034657647624781024,0.0037914022735059854,0.01728775320373027,0.015962775777075704,0.005003157528093025,0.016450875654084308
0.2122759,0.0018905325050320805,0.003710529625412121,0.0034736213990685,0.003809415782614965,0.017280766066893462,0.015947342622693664,0.004979230615332965,0.01637665891063892
0.2127414,0.0019009863931969753,0.003721640753392913,0.0034814589126237615,0.0038275188123559237,0.01727366225484184,0.01593188545000688,0.00495512086479629,0.016301867710519544
0.2132069,0.0019115413710497715,0.0037328127318690123,0.003489275217662202,0.0038457094374687744,0.01726644081376902,0.015916404670385246,0.004930833314326851,0.016226512148040318
0.2136724,0.0019221964345468958,0.003744043986876644,0.0034970682190469493,0.0038639857171074454,0.01725910082636636,0.015900900697167347,0.004906373043289357,0.016150602440484794
0.2141379,0.0019329505528831372,0.0037553329489397455,0.0035048358123116355,0.0038823456947123347,0.017251641409845572,0.01588537394587782,0.004881745171200188,0.01607414892545972
0.2146034,0.0019438026684637268,0.0037666780528876225,0.0035125758839915457,0.003900787397890576,0.017244061713968913,0.015869824834430172,0.004856954856349165,0.015997162058255326
0.215069,0.001954751696883152,0.003778077737663069,0.0035202863119602186,0.003919308838304154,0.017236360919089453,0.01585425378331605,0.004832007294413037,0.01591965240921359
0.2155345,0.0019657965269108237,0.0037895304461212937,0.0035279649657715315,0.00393790801156589,0.017228538234203696,0.015838661215781844,0.004806907717061506,0.015841630661105825
0.216,0.0019769360204837283,0.003801034624820006,0.0035356097070072885,0.003956582897143296,0.017220592895018816,0.01582304755799365,0.004781661390556573,0.015763107606520936
0.2164655,0.0019881690127062164,0.0038125887238009883,0.0035432183896303665,0.00397533145827028,0.017212524162036596,0.015807413239191447,0.004756273614345978,0.015684094145265424
0.216931,0.001999494311857079,0.003824191196363471,0.0035507888603435005,0.003994151641866699,0.01720433131865615,0.01579175869183346,0.004730749719651513,0.01560460128177629
0.2173966,0.0020109106994040736,0.0038358404988296214,0.0035583189589538217,0.004013041378465739,0.017196013669297346,0.015776084351731723,0.004705095068052992,0.015524640122547713
0.2178621,0.00202241693002606,0.0038475350903024665,0.0035658065187432913,0.004031998582149117,0.017187570537546767,0.015760390658179715,0.0046793150500686696,0.01544422187357235
0.2183276,0.002034011731642895,0.003859273432416593,0.0035732493668451854,0.004051021150490119,0.017179001264328086,0.01574467805407305,0.004653415083732923,0.015363357837798053
0.2187931,0.0020456938054532444,0.0038710539890820096,0.003580645324626809,0.004070106964504481,0.017170305206098458,0.015728946986024023,0.004627400613171979,0.015282059412600671
0.2192586,0.0020574618259804555,0.0038828752262215866,0.0035879922080786133,0.004089253888609164,0.01716148173307251,0.01571319790447081,0.004601277107178482,0.01520033808727356
0.2197241,0.0020693144411266322,0.0038947356115025477,0.003595287828209895,0.004108459770589026,0.017152530227475357,0.015697431263781977,0.004575050057785654,0.015118205440534426
0.2201897,0.0020812502722350407,0.003906633614062489,0.00360252999145126,0.004127722441571434,0.017143450081825894,0.015681647522356963,0.0045487249788417825,0.01503567313805003
0.2206552,0.0020932679141609655,0.003918567704230434,0.003609716500064014,0.004147039716008823,0.01713424069725155,0.015665847142723007,0.004522307404585756,0.014952752929979213
0.2211207,0.002105365935351119,0.00393053635324344,0.0036168451525566314,0.004166409391669198,0.0171249014818355,0.015650030591629015,0.004495802888224323,0.0148694566485347
0.2215862,0.002117542877931696,0.003942538032959249,0.003623913744108458,0.004185829249634558,0.01711543184899736,0.015634198340136754,0.00446921700051175,0.014785796205563976
0.2220517,0.0021297972578051528,0.003954571215565494,0.0036309200670007692,0.004205297054307216,0.017105831215908144,0.01561835086370981,0.004442555328332501,0.014701783590149562
0.2225172,0.00214212756475577,0.003966634373285959,0.0036378619110553423,0.004224810553423931,0.01709609900194027,0.015602488642300733,0.004415823473287552,0.014617430866228914
0.2229828,0.002154532262564043,0.0039787259780844336,0.0036447370640806495,0.004244367478077755,0.01708623462715322,0.015586612160436863,0.004389027050284904,0.014532750170234171
0.2234483,0.0021670097891299343,0.003990844501366733,0.003651543312325781,0.004263965542747472,0.01707623751081546,0.015570721907305364,0.004362171686134848,0.014447753708751994
0.2239138,0.002179558556605006,0.004002988413681456,0.0036582784409421947,0.004283602445334456,0.01706610706996306,0.01555481837683797,0.004335263018150475,0.014362453756203654
0.2243793,0.0021921769515334346,0.004015156184420095,0.0036649402344533888,0.0043032758672067895,0.017055842717995384,0.015538902067795879,0.004308306692753919,0.01427686265254553
0.2248448,0.0022048633350019186,0.004027346281517096,0.003671526477232571,0.004322983473250436,0.01704544386330825,0.015522973483855125,0.004281308364088802,0.014190992800990097
0.2253103,0.002217616042798466,0.0040395571711504385,0.0036780349539884097,0.004342722911927303,0.017034909907964926,0.01550703313369274,0.004254273692639315,0.014104856665747453
0.2257759,0.0022304333855800683,0.004051787317443301,0.0036844634502589376,0.004362491815340035,0.017024240246405184,0.015491081531073878,0.004227208343856376,0.014018466769787236
0.2262414,0.002243313649049249,0.004064035182167353,0.0036908097529137077,0.004382287799303448,0.017013434264192835,0.015475119194940172,0.004200117986791259,0.013931835692620843
0.2267069,0.0022562550941394896,0.004076299224448209,0.0036970716506642843,0.0044021084634225435,0.017002491336801952,0.015459146649499605,0.004173008292737079,0.013844976068103648
0.2271724,0.0022692559572095195,0.0040885779004735745,0.0037032469345831716,0.004421951391177106,0.016991410828442074,0.01544316442431825,0.004145884933878508,0.01375790058225689
0.2276379,0.002282314450246448,0.0041008696632046085,0.0037093333986312716,0.004441814150012959,0.0169801920909226,0.015427173054414338,0.004118753581950053,0.013670621971108809
0.2281034,0.00229542876107771,0.004113172962091054,0.0037153288401939456,0.004461694291439977,0.016968834462556464,0.01541117308035505,0.004091619906903265,0.013583153018554495
0.228569,0.0023085970535917898,0.004125486242790653,0.0037212310606257615,0.004481589351136962,0.016957337267103176,0.015395165048356358,0.004064489575583177,0.013495506554233823
0.2290345,0.0023218174679676823,0.004137807946893387,0.003727037865803964,0.004501496849063535,0.016945699812751232,0.01537914951038632,0.0040373682504143095,0.013407695451426786
0.2295,0.002335088120913059,0.004150136511651066,0.003732747066690706,0.00452141428957913,0.016933921391139806,0.015363127024271974,0.004010261588096526,0.01331973262496548
0.2299655,0.0023484071059111026,0.004162470369712766,0.0037383564799040444,0.004541339161569162,0.016922001276419615,0.015347098153810008,0.0039831752383110534,0.0132316310291619
0.230431,0.002361772493475999,0.0041748079488666216,0.003743863928297707,0.004561268938578429,0.016909938724352907,0.015331063468881257,0.003956114842436928,0.013143403655750728
0.2308966,0.0023751823314170774,0.004187147671788441,0.0037492672415496155,0.00458120107895176,0.016897732971452445,0.015315023545568998,0.003929086032278117,0.013055063531846217
0.2313621,0.0023886346451116387,0.004199487955797647,0.0037545642567591345,0.004601133025981925,0.016885383234159546,0.015298978966280944,0.0039020944288015837,0.012966623717912339
0.2318276,0.002402127437786518,0.004211827212620991,0.003759752819053008,0.004621062208064809,0.01687288870806119,0.015282930319874785,0.003875145640886496,0.012878097305745342
0.2322931,0.0024156586908084562,0.00422416384816454,0.003764830782199939,0.004640986038861852,0.0168602485671463,0.015266878201787073,0.0038482452640848093,0.01278949741646794
0.2327586,0.0024292263639833877,0.004236496262294414,0.0037697960092337624,0.0046609019174697775,0.01684746196310128,0.015250823214165198,0.0038213988793934,0.012700837198534385
0.2332241,0.002442828395864758,0.004248822848626763,0.0037746463730851713,0.00468080722859764,0.016834528024644888,0.015234765966002003,0.0037946120520379314,0.01261212982574585
0.2336897,0.0024564627040710085,0.0042611419943275235,0.003779379757221973,0.004700699342751244,0.01682144585690264,0.01521870707327257,0.0037678903302685958,0.012523388495275662
0.2341552,0.002470127185612374,0.00427345207992248,0.0037839940562978463,0.004720575616425011,0.01680821454082091,0.015202647159072553,0.0037412392441678794,0.012434626425704004
0.2346207,0.0024838197172271444,0.004285751479118171,0.0037884871768096105,0.004740433392301398,0.016794833132620975,0.015186586853757346,0.0037146643044704956,0.01234585685506172
0.2350862,0.0024975381557275494,0.0042980385586342046,0.0037928570377630247,0.004760269999457923,0.016781300663293128,0.015170526795081367,0.003688171001395624,0.01225709303888285
0.2355517,0.002511280338355411,0.004310311678047479,0.003797101571347165,0.004780082753581893,0.016767616138131203,0.015154467628336811,0.0036617648034916257,0.012168348248265478
0.2360172,0.0025250440831477016,0.004322569189648822,0.0038012187236174328,0.00479986895719287,0.01675377853630759,0.015138410006491153,0.003635451156493409,0.012079635767940442
0.2364828,0.0025388271893121398,0.004334809438312494,0.003805206455187251,0.0048196258998728925,0.016739786810488967,0.015122354590322852,0.003609235482192649,0.011990968894347528
0.2369483,0.002552627437612929,0.004347030761379007,0.0038090627419284976,0.0048393508585044395,0.016725639886493077,0.015106302048554614,0.0035831231773210785,0.011902360933718725
0.2374138,0.002566442590766747,0.004359231488551625,0.0038127855756807153,0.004859041097516099,0.016711336662986784,0.015090253057983496,0.0035571196124471105,0.011813825200168193
0.2378793,0.0025802703938490688,0.004371409941806956,0.0038163729649690926,0.004878693869135869,0.016696876011225992,0.015074208303607107,0.0035312301308860015,0.011725375013788598
0.2383448,0.0025941085747108903,0.004383564435319926,0.003819822935731214,0.004898306413652003,0.0166822567748379,0.015058168478744947,0.003505460047623811,0.011637023698753472
0.2388103,0.002607954844405919,0.004395693275403491,0.003823133532052525,0.00491787595968128,0.016667477769646173,0.015042134285153979,0.00347981464825536,0.011548784581425203
0.2392759,0.0026218068976282646,0.0044077947604633325,0.00382630281691045,0.004937399724444549,0.016652537783539617,0.015026106433137364,0.003454299187936411,0.011460670988468199
0.2397414,0.0026356624131606667,0.004419867180967815,0.0038293288729270647,0.004956874914049364,0.016637435576384977,0.015010085641645306,0.00342891889035026,0.011372696244966785
0.2402069,0.0026495190543332626,0.004431908819433398,0.003832209803130203,0.004976298723779533,0.016622169879984397,0.014994072638366955,0.0034036789466889597,0.011284873672547458
0.2406724,0.0026633744694928943,0.004443917950425725,0.003834943731722849,0.004995668338391392,0.01660673939807813,0.014978068159812279,0.003378584514649352,0.01119721658750519
0.2411379,0.002677226292482922,0.004455892840576545,0.003837528804860641,0.00501498093241665,0.016591142806393032,0.014962072951382813,0.0033536407174441316,0.011109738298933613
0.2416034,0.0026910721431334995,0.004467831748616633,0.003839963191437291,0.005034233670471673,0.016575378752737385,0.014946087767430099,0.0033288526428281342,0.011022452106858966
0.242069,0.002704909627762246,0.004479732925424843,0.0038422450838776975,0.0050534237075731524,0.016559445857142457,0.014930113371300598,0.003304225342140053,0.010935371300377677
0.2425345,0.002718736339685226,0.00449159461409345,0.0038443726989384874,0.005072548189460103,0.016543342712051178,0.01491415053536575,0.0032797638293598085,0.010848509155797582
0.243,0.0027325498597381417,0.004503415050009924,0.0038463442785157016,0.005091604252922182,0.016527067882554203,0.014898200041035753,0.00325547308018178,0.010761878934782738
0.2434655,0.0027463477568076032,0.004515192460955252,0.0038481580904593106,0.005110589026134374,0.016510619906673484,0.01488226267875561,0.0032313580311041042,0.010675493882501849
0.243931,0.0027601275883723264,0.004526925067218932,0.0038498124293942213,0.005129499628998075,0.01649399729569345,0.014866339247981869,0.0032074235785342414,0.010589367225780348
0.2443966,0.00277388690105409,0.004538611081730736,0.0038513056175474318,0.005148333173488693,0.01647719853453996,0.014850430557138585,0.003183674577911009,0.010503512171256134
0.2448621,0.0027876232311782644,0.004550248710209289,0.0038526360055809563,0.00516708676400989,0.016460222082207113,0.014834537423551074,0.003160115842843244,0.010417941903538936
0.2453276,0.002801334105343703,0.004561836151327528,0.003853801973430151,0.005185757497754682,0.01644306637223221,0.014818660673356295,0.0031367521442652404,0.010332669583373257
0.2457931,0.0028150170410017636,0.0045733715968950366,0.0038548019311470494,0.005204342465073608,0.016425729813219003,0.01480280114138882,0.0031135882096090957,0.01024770834580482
0.2462586,0.0028286695470442326,0.004584853232057244,0.003855634319748291,0.005222838749850212,0.016408210789409433,0.014786959671041622,0.003090628721994056,0.010163071298350488
0.2467241,0.00284228912439989,0.004596279235511471,0.0038562976120672166,0.005241243429884121,0.016390507661303892,0.014771137114100987,0.0030678783194329384,0.010078771519171643
0.2471897,0.002855873266639461,0.004607647779739794,0.0038567903136096687,0.005259553577281961,0.01637261876632989,0.014755334330554933,0.0030453415940556784,0.009994822055251108
0.2476552,0.0028694194605886837,0.004618957031258695,0.00385711096341303,0.005277766258856342,0.016354542419559012,0.014739552188374536,0.003023023091350031,0.0099112359205736
0.2481207,0.0028829251869492006,0.004630205150885508,0.0038572581349080107,0.005295878536533139,0.01633627691447184,0.014723791563267554,0.003000927309419433,0.009828026094309826
0.2485862,0.0028963879209269847,0.0046413902940216035,0.0038572304367826753,0.005313887467767275,0.016317820523770454,0.014708053338403717,0.0029790586982580006,0.009745205519004149
0.2490517,0.0029098051328679897,0.004652510610952312,0.0038570265138481844,0.0053317901059672206,0.016299171500238005,0.014692338404111023,0.0029574216590426325,0.00966278709876588
0.2495172,0.0029231742889007043,0.0046635642471635225,0.003856645047905722,0.005349583500928393,0.01628032807764477,0.014676647657542506,0.0029360205434421586,0.009580783697464054
0.2499828,0.0029364928515852634,0.004674549343674909,0.0038560847586140584,0.005367264699275644,0.016261288471700025,0.014660982002313038,0.002914859652943483,0.009499208136925615
0.2504483,0.0029497582805687516,0.004685464037389671,0.003855344404357205,0.005384830744914967,0.01624205088104888,0.01464534234810586,0.002893943238194632,0.009418073195136847
0.2509138,0.0029629680332463166,0.0046963064614607055,0.003854422783111618,0.005402278679494531,0.016222613488313116,0.014629729610248688,0.0028732754983646323,0.009337391604447817
0.2513793,0.002976119565427711,0.004707074745673068,0.003853318733312412,0.005419605542875128,0.016202974461174965,0.014614144709259494,0.0028528605805201103,0.009257176049779612
0.2518448,0.002989210332008866,0.0047177670168425685,0.0038520311347180415,0.0054368083736100106,0.016183131953502676,0.014598588570362413,0.0028327025790185084,0.009177439166834138
0.2523103,0.003002237787648106,0.004728381399230336,0.0038505589092729152,0.00545388420943417,0.016163084106516568,0.014583062122974508,0.0028128055349177948,0.009098193540306287
0.2527759,0.0030151993874466074,0.004738916014973164,0.0038489010219674327,0.005470830087762988,0.01614282904999417,0.014567566300164416,0.002793173435402528,0.009019451702098277
0.2532414,0.0030280925876327363,0.004749368984529459,0.003847056481694908,0.005487643046200221,0.016122364903512956,0.014552102038083945,0.002773810213226131,0.008941226129535988
0.2537069,0.0030409148462499,0.004759738427140581,0.0038450243421048968,0.0055043201230552405,0.016101689777729074,0.014536670275373802,0.0027547197461691908,0.008863529243587132
0.2541724,0.0030536636238475746,0.004770022461307407,0.003842803702452422,0.0055208583578694554,0.01608080177569037,0.014521271952544594,0.0027359058565136042,0.008786373407081006
0.2546379,0.0030663363841752014,0.004780219205281897,0.0038403937084425994,0.005537254791951834,0.016059698994181852,0.014505908011334251,0.002717372310532356,0.008709770922929544
0.2551034,0.003078930594878667,0.004790326777573465,0.0038377935530701612,0.0055535064689234016,0.016038379525101808,0.014490579394043015,0.002699122817994698,0.008633734032349313
0.255569,0.0030914437281991053,0.004800343297469924,0.003835002477453346,0.0055696104352705705,0.016016841456866562,0.014475287042847056,0.0026811610316864916,0.008558274913084044
0.2560345,0.0031038732616737656,0.00481026688557277,0.003832019771661624,0.005585563740907143,0.01599508287584204,0.014460031899091754,0.0026634905469454686,0.008483405677627178
0.2565,0.0031162166788387203,0.0048200956643465334,0.003828844775536689,0.0056013634397447665,0.01597310186780011,0.014444814902565528,0.0026461149012111723,0.008409138371443919
0.2569655,0.0031284714699331808,0.004829827758681906,0.0038254768795061658,0.005617006590271634,0.015950896519397753,0.014429636990755085,0.002629037573589317,0.008335484971192261
0.257431,0.0031406351326051848,0.004839461296472331,0.003821915525389446,0.005632490256139155,0.015928464919677043,0.014414499098082874,0.002612261984430346,0.00826245738294246
0.2578966,0.0031527051726184326,0.004848994409203704,0.0038181602071950924,0.005647811506756312,0.015905805161583783,0.014399402155127498,0.0025957914949219394,0.008190067440394437
0.2583621,0.003164679104560029,0.00485842523255679,0.003814210471909224,0.005662967417891436,0.015882915343502606,0.0143843470878279,0.002579629406695256,0.008118326903092651
0.2588276,0.0031765544525489066,0.004867751907021953,0.0038100659202742852,0.005677955072281033,0.015859793570806153,0.014369334816672172,0.002563778961444701,0.008047247454637998
0.2592931,0.0031883287509447042,0.004876972578525739,0.0038057262075575924,0.005692771560245377,0.015836437957415864,0.014354366255871834,0.002548243340561021,0.007976840700896388
0.2597586,0.003199999545056874,0.004886085399068868,0.003801191044309034,0.005707413980310569,0.015812846627371795,0.014339442312522403,0.0025330256647775446,0.007907118168203667
0.2602241,0.003211564391853772,0.004895088527375165,0.003796460197107293,0.0057218794398367695,0.015789017716408896,0.014324563885751023,0.002518128993829365,0.00783809130156659
0.2606897,0.0032230208606715,0.004903980129550912,0.003791533489293941,0.005736165055652408,0.015764949373537018,0.014309731865851848,0.00250355632612527,0.00776977146285961
0.2611552,0.0032343665339222305,0.004912758379754164,0.0037864108016947735,0.005750267954694204,0.015740639762622112,0.014294947133409796,0.0024893105984322116,0.007702169929017283
0.2616207,0.003245599007801753,0.004921421460873506,0.00378109207332773,0.005764185274652893,0.01571608706396612,0.014280210558413246,0.002475394685572076,0.007635297890222158
0.2620862,0.0032567158929959522,0.004929967565215755,0.0037755773020967357,0.005777914164624589,0.015691289475883188,0.014265522999356075,0.0024618114001305315,0.00756916644808814
0.2625517,0.003267714815385927,0.004938394895202082,0.00376986654547078,0.0057914517857677586,0.01566624521626996,0.014250885302329458,0.0024485634921777113,0.0075037866138393805
0.2630172,0.003278593416751429,0.004946701664072032,0.003763959921147526,0.00580479531196585,0.01564095252416793,0.014236298300103705,0.0024356536490005164,0.007439169306484803
0.2634828,0.003289349355472301,0.004954886096594879,0.0037578576077007286,0.0058179419304956025,0.01561540966131598,0.01422176281120041,0.0024230844948463304,0.007375325350988468
0.2639483,0.003299980307227552,0.004962946429787739,0.0037515598452107146,0.005830888842701129,0.01558961491369138,0.014207279638955302,0.00241085859067797,0.007312265476436072
0.2644138,0.0033104839656917196,0.004970880913639828,0.0037450669358771904,0.00584363326467383,0.015563566593037653,0.014192849570572291,0.0023989784339397057,0.00725000031419792
0.2648793,0.003320858043228122,0.00497868781184223,0.0037383792446136163,0.005856172427938223,0.015537263038377689,0.01417847337616932,0.002387446458334196,0.007188540396088777
0.2653448,0.003331100271578635,0.004986365402522499,0.003731497199622403,0.005868503580143695,0.015510702617510716,0.014164151807816761,0.0023762650336101813,0.007127896152525005
0.2658103,0.003341208402549599,0.004993911978983476,0.0037244212929501623,0.0058806239857622155,0.015483883728491951,0.014149885598569252,0.0023654364653607498,0.0070680779106793885
0.2662759,0.003351180208693473,0.005001325850445608,0.003717152081022244,0.0058925309267920025,0.015456804801093892,0.014135675461491788,0.002354962994832002,0.007009095892634062
0.2667414,0.003361013483985881,0.0050086053427921655,0.003709690185155826,0.005904221703467145,0.015429464298248501,0.01412152208868093,0.0023448467987418923,0.0069509602135319985
0.2672069,0.0033707060444977135,0.005015748799316708,0.003702036292050854,0.005915693634973184,0.015401860717469658,0.014107426150282007,0.0023350899891090462,0.006893680879727588
0.2676724,0.0033802557290619705,0.005022754581472237,0.0036941911542582415,0.005926944060168632,0.015373992592255293,0.01409338829350319,0.0023256946130913174,0.0068372677869369515
0.2681379,0.0033896603999350773,0.005029621069621493,0.003686155590624827,0.005937970338312389,0.015345858493468593,0.014079409141627398,0.0023166626528338483,0.006781730718388755
0.2686034,0.0033989179434524286,0.005036346663787929,0.003677930486714702,0.005948769849796996,0.015317457030697729,0.01406548929302318,0.0023079960253263804,0.0067270793429763664
0.269069,0.0034080262706779373,0.005042929784406905,0.0036695167952065723,0.005959339996887637,0.015288786853593448,0.014051629320155783,0.0022996965822695533,0.006673323213412327
0.2695345,0.0034169833180473703,0.005049368873076738,0.003660915536266862,0.005969678204466775,0.015259846653183983,0.014037829768599807,0.002291766109949916,0.006620471764386195
0.27,0.003425787048005248,0.0050556623933092504,0.00365212779789826,0.00597978192078429,0.01523063516316665,0.014024091156054892,0.002284206329123373,0.006568534310726891
0.2704655,0.00343443544963508,0.005061808831279509,0.0036431547362634075,0.005989648618212935,0.0152011511611755,0.014010413971365931,0.0022770188949067923,0.006517520045570708
0.270931,0.003442926539282703,0.005067806696574458,0.0036339975759834046,0.005999275794008941,0.015171393470024299,0.013996798673549424,0.0022702053966775094,0.006467438038536164
0.2713966,0.003451258361172484,0.00507365452294016,0.0036246576104107956,0.0060086609710775386,0.015141360958923994,0.013983245690827609,0.0022637673579804594,0.006418297233906836
0.2718621,0.003459428988016188,0.005079350869027337,0.003615136201876697,0.006017801698743139,0.015111052544673757,0.013969755419672082,0.002257706236442678,0.006370106448823304
0.2723276,0.0034674365216143172,0.0050848943191348995,0.0036054347819117144,0.0060266955535239275,0.015080467192824593,0.013956328223858722,0.0022520234236948966,0.006322874371485304
0.2727931,0.003475279093449777,0.005090283483951122,0.0035955548514403184,0.006035340139910612,0.015049603918814295,0.013942964433535808,0.0022467202452999715,0.006276609559365122
0.2732586,0.0034829548652737475,0.005095517001292091,0.003585497980948359,0.006043733091149076,0.015018461789072525,0.013929664344307242,0.0022417979606878806,0.006231320437433282
0.2737241,0.003490462029683699,0.005100593536837034,0.003575265810623487,0.006051872070026716,0.014987039922094695,0.013916428216332908,0.0022372577630970485,0.006187015296397486
0.2741897,0.0034977988106934805,0.005105511784860125,0.003564860050468289,0.006059754769662218,0.014955337489483186,0.013903256273448253,0.002233100779521783,0.006143702290955732
0.2746552,0.003504963464295452,0.005110270468958331,0.0035542824803860276,0.006067378914298537,0.01492335371695441,0.01389014870230519,0.002229328070665628,0.006101389438064489
0.2751207,0.0035119542790146463,0.005114868342774843,0.0035435349502389306,0.006074742260098874,0.014891087885310026,0.013877105651536381,0.002225940630900476,0.006060084615222764
0.2755862,0.0035187695764549607,0.0051193041907176455,0.0035326193798790174,0.0060818425959454515,0.014858539331370579,0.013864127230944956,0.002222939388231309,0.006019795558772839
0.2760517,0.003525407711837405,0.005123576828672733,0.00352153775915148,0.006088677744240913,0.01482570744886969,0.013851213510721551,0.0022203252042664423,0.005980529862218432
0.2765172,0.0035318670745304215,0.00512768510471149,0.0035102921478706323,0.0060952455617121915,0.014792591689306887,0.013838364520690512,0.0022180988741931783,0.005942294974560984
0.2769828,0.00353814608857232,0.005131627899791737,0.0034988846757684562,0.006101543940216708,0.014759191562757068,0.013825580249587025,0.002216261126758757,0.005905098198654731
0.2774483,0.003544243213185832,0.00513540412845191,0.003487317542415751,0.00610757080755076,0.014725506638634681,0.013812860644366749,0.002214812624256501,0.0058689466895812115
0.2779138,0.0035501569432847824,0.005139012739497825,0.003475593017115918,0.006113324128259972,0.014691536546410717,0.013800205609549514,0.002213753962517047,0.005833847453043774
0.2783793,0.0035558858099728427,0.005142452716681434,0.0034637134387714083,0.006118801904451701,0.014657280976280865,0.013787615006598464,0.0022130856709045603,0.005799807343782661
0.2788448,0.0035614283810343323,0.005145723079370966,0.0034516812157228817,0.006124002176609246,0.014622739679783538,0.013775088653335944,0.002212808212317838,0.005766833064011186
0.2793103,0.0035667832614170105,0.005148822883211812,0.003439498825561157,0.006128923024407753,0.014587912470366704,0.01376262632339735,0.002212921983196208,0.0057349311618735
0.2797759,0.003571949093706814,0.005151751220777523,0.0034271688149120675,0.006133562567531675,0.014552799223902846,0.01375022774572402,0.0022134273135301433,0.005704108029924416
0.2802414,0.0035769245585944905,0.005154507222210303,0.0034146937991943816,0.006137918966493597,0.01451739987915152,0.013737892604096153,0.002214324466876503,0.00567436990363172
0.2807069,0.0035817083753340853,0.005157090055850363,0.0034020764623509973,0.006141990423454245,0.01448171443816911,0.01372562053670663,0.0022156136403783146,0.005645722859901401
0.2811724,0.003586299302193217,0.005159498928853572,0.003389319556553663,0.006145775183043413,0.01444574296666555,0.013713411135776465,0.002217294964788998,0.005618172815626197
0.2816379,0.003590696136895084,0.005161733087796807,0.0033764259018815106,0.0061492715331815185,0.0144094855943078,0.013701263947212586,0.0022193685045009486,0.005591725526257875
0.2821034,0.0035948977170521205,0.005163791819270436,0.0033633983859737175,0.006152477805901434,0.014372942514970037,0.01368917847030848,0.002221834257578401,0.005566386584403597
0.282569,0.0035989029205911924,0.00516567445045739,0.0033502399636566225,0.006155392378170229,0.014336113986930488,0.013677154157488169,0.0022246921557945456,0.005542161418446775
0.2830345,0.003602710666170235,0.005167380349698272,0.0033369536565455997,0.006158013672710381,0.014299000333014938,0.013665190414093935,0.0022279420646728857,0.005519055291192756
0.2835,0.003606319913586236,0.005168908927042014,0.0033235425526220047,0.006160340158819975,0.014261601940686982,0.01365328659821805,0.0022315837835328793,0.005497073298539707
0.2839655,0.003609729664174459,0.005170259634781597,0.00331000980578549,0.006162370353191351,0.0142239192620853,0.013641442020578706,0.002235617045539927,0.005476220368175015
0.284431,0.003612938961198825,0.005171431967974415,0.0032963586353819676,0.0061641028207276415,0.014185952814008166,0.013629655944440251,0.0022400415177597824,0.005456501258297499
0.2848966,0.0036159468902333632,0.00517242546494689,0.0032825923257074896,0.006165536175356589,0.014147703177845616,0.013617927585577717,0.0022448568012174886,0.005437920556365699
0.2853621,0.0036187525795346467,0.005173239707783006,0.003268714225488321,0.006166669080840966,0.014109170999459719,0.013606256112285556,0.0022500624309609463,0.005420482677872514
0.2858276,0.0036213552004051397,0.0051738743227964816,0.003254727747337523,0.00616750025158496,0.014070356989013634,0.013594640645430416,0.002255657876129271,0.005404191865146382
0.2862931,0.003623753967547401,0.005174328980986338,0.003240636367188397,0.006168028453435766,0.014031261920750182,0.013583080258547698,0.002261642540026117,0.0053890521861792344
0.2867586,0.003625948139409085,0.005174603398475701,0.0032264436237052253,0.0061682525044797,0.013991886632720846,0.013571573977981654,0.0022680157601981917,0.005375067533481473
0.2872241,0.0036279370185187147,0.005174697336933665,0.0032121531176717917,0.0061681712758320925,0.013952232026466201,0.013560120783068657,0.002274776808519211,0.005362241622964195
0.2876897,0.0036297199518122085,0.0051746106039801,0.00319776851135824,0.006167783692420263,0.013912299066648851,0.013548719606363282,0.002281924891279578,0.00535057799284894
0.2881552,0.0036312963309501445,0.0051743430535732965,0.0031832935278668316,0.0061670887337588794,0.013872088780640217,0.01353736933390672,0.0022894591492820925,0.005340080002605229
0.2886207,0.003632665592625746,0.0051738945863803185,0.003168731950457204,0.006166085434717001,0.013831602258062625,0.013526068805537023,0.0022973786579439984,0.005330750831916136
0.2890862,0.0036338272188635706,0.005173265150129965,0.003154087621851731,0.006164772886276164,0.01379084065028834,0.013514816815240542,0.002305682427405708,0.005322593479672127
0.2895517,0.003634780737308887,0.005172454739948216,0.003139364443521564,0.006163150236278872,0.013749805169897274,0.013503612111543965,0.0023143694026465287,0.005315610762993386
0.2900172,0.0036355257215077152,0.005171463398676067,0.003124566374953939,0.0061612166901669095,0.013708497090095235,0.013492453397946276,0.002323438463607736,0.0053098053162807975
0.2904828,0.0036360617911774824,0.005170291217169602,0.003109697432901292,0.006158971511708903,0.013666917744094604,0.013481339333390024,0.0023328884253233516,0.005305179590295755
0.2909483,0.0036363886124682605,0.005168938334582188,0.0030947616906127225,0.006156414023716606,0.013625068524459489,0.01347026853277126,0.002342718038058982,0.005301735851268933
0.2914138,0.0036365058982145365,0.005167404938628623,0.0030797632770483336,0.0061535436087493695,0.013582950882417401,0.013459239567487513,0.0023529259874590933,0.005299476180038175
0.2918793,0.00363641340817748,0.005165691265831076,0.0030647063760769673,0.006150359709806281,0.013540566327139628,0.013448250966023152,0.0023635108947030817,0.005298402471215608
0.2923448,0.0036361109492777034,0.005163797601746605,0.003049595225657864,0.006146861831005446,0.013497916424992486,0.013437301214571503,0.0023744713166705036,0.005298516432384078
0.2928103,0.003635598375818525,0.0051617242811760585,0.0030344341170067467,0.00614304953824984,0.013455002798761722,0.013426388757693017,0.002385805746115812,0.005299819583322985
0.2932759,0.0036348755896997613,0.005159471688354098,0.0030192273937468396,0.006138922459879163,0.013411827126852313,0.01341551199900877,0.0023975126118529243,0.005302313255263557
0.2937414,0.003633942540622125,0.005157040257120114,0.0030039794510453126,0.006134480287307162,0.013368391142465822,0.013404669301928473,0.0024095902789499422,0.005305998590173605
0.2942069,0.0036327992262822966,0.005154430471069785,0.002988694734735614,0.006129722775643862,0.013324696632757482,0.013393858990412101,0.002422037048934313,0.0053108765400717945
0.2946724,0.0036314456925587795,0.00515164286368707,0.0029733777404261524,0.006124649744302216,0.013280745437975009,0.013383079349764147,0.0024348511600087237,0.005316947866371481
0.2951379,0.0036298820336886565,0.005148678018456443,0.0029580330125957488,0.006119261077588704,0.013236539450581094,0.013372328627459466,0.0024480307872779953,0.00532421313925411
0.2956034,0.0036281083924353877,0.0051455365689551825,0.0029426651436762668,0.0061135567252775,0.013192080614361485,0.013361605033999574,0.002461574042987238,0.005332672737072216
0.296069,0.003626124960247798,0.0051422191989255565,0.0029272787731228016,0.006107536703167833,0.013147370923520457,0.013350906743798316,0.002475478976771527,0.005342326845782003
0.2965345,0.0036239319774104216,0.005138726642326716,0.002911878586471805,0.006101201093624215,0.013102412421765429,0.0133402318960958,0.00248974357591735,0.005353175458405512
0.297,0.0036215297331853775,0.005135059683366107,0.0028964693143875026,0.006094550046099262,0.013057207201382513,0.013329578595899616,0.0025043657656360742,0.005365218374522304
0.2974655,0.0036189185659459585,0.005131219156510208,0.0028810557316969734,0.006087583777638795,0.013011757402304598,0.013318944914952394,0.002519343409349679,0.0053784551997906145
0.297931,0.0036160988633021193,0.005127205946474348,0.002865642656414251,0.006080302573368919,0.012966065211173675,0.01330832889272479,0.002534674308988981,0.005392885345497867
0.2983966,0.00361307106221803,0.00512302098819135,0.00285023494875384,0.00607270678696476,0.01292013286039896,0.013297728537433065,0.0025503562053045747,0.0054085080281404746
0.2988621,0.0036098356491218587,0.005118665266758703,0.002834837510134029,0.006064796841100472,0.012873962627212365,0.013287141827080328,0.002566386778190699,0.005425322269032808
0.2993276,0.003606393160007925,0.00511413981736397,0.002819455282170416,0.006056573227880145,0.012827556832722799,0.013276566710520514,0.002582763647022215,0.005443326893945233
0.2997931,0.0036027441805313314,0.005109445725188078,0.002804093245660051,0.006048036509249133,0.012780917840970732,0.013266001108544137,0.0025994843710048883,0.005462520532771118
0.3002586,0.0035988893460951765,0.005104584125286175,0.002788756419556603,0.006039187317385321,0.012734048057984415,0.013255442914984901,0.0026165464495391303,0.005482901619222703
0.3007241,0.003594829341930424,0.005099556202445665,0.0027734498599369588,0.006030026355069807,0.012686949930839141,0.01324488999784621,0.002633947322597362,0.005504468390555672
0.3011897,0.0035905649031684624,0.0050943631910210585,0.0027581786589596408,0.006020554396036414,0.012639625946720837,0.013234340200446625,0.0026516843711151344,0.005527218887322306
0.3016552,0.00358609681490638,0.005089006374745237,0.0027429479438154194,0.006010772285299424,0.012592078631995294,0.01322379134258334,0.002669754917396117,0.00555115095315303
0.3021207,0.0035814259122649702,0.005083487086516724,0.002727762875670477,0.0060006809394588965,0.012544310551284259,0.013213241221712661,0.0026881562255310627,0.005576262234566263
0.3025862,0.0035765530804394642,0.005077806708162547,0.0027126286486024776,0.005990281346982912,0.012496324306549537,0.013202687614146528,0.0027068855018308217,0.00560255018080645
0.3030517,0.0035714792547429856,0.0050719666701762416,0.0026975504885298736,0.005979574568466047,0.012448122536186247,0.013192128276264058,0.0027259398952734653,0.00563001204371017
0.3035172,0.0035662054206427214,0.005065968451430569,0.00268253365213478,0.005968561736863334,0.012399707914126213,0.013181560945737197,0.002745316497965588,0.005658644877600304
0.3039828,0.0035607326137888098,0.005059813578864499,0.0026675834257797485,0.005957244057698987,0.012351083148952424,0.01317098334276971,0.002765012345617835,0.005688445539208228
0.3044483,0.00355506192003594,0.005053503627144053,0.002652705124418761,0.005945622809249119,0.012302250983025408,0.013160393171348834,0.0027850244180347176,0.005719410687624068
0.3049138,0.003549194475457678,0.005047040218296614,0.002637904090502778,0.005933699342697709,0.012253214191622229,0.013149788120508961,0.0028053496396187793,0.005751536784275047
0.3053793,0.003543131466353544,0.0050404250213183155,0.002623185692880149,0.005921475082265092,0.012203975582088761,0.013139165865606713,0.0028259848798891886,0.005784820092931967
0.3058448,0.003536874129248908,0.005033659751754135,0.0026085553256921996,0.005908951525308289,0.01215453799300581,0.013128524069606752,0.0028469269540148225,0.005819256679743871
0.3063103,0.0035304237508877257,0.005026746171250358,0.002594018407264284,0.0058961302423925594,0.012104904293369483,0.013117860384377601,0.0028681726233619107,0.005854842413300856
0.3067759,0.0035237816682181814,0.005019686087079097,0.0025795803789925996,0.005883012877333622,0.01205507738178626,0.013107172451996689,0.0028897185960563205,0.00589157296472508
0.3072414,0.0035169492683713006,0.005012481351634634,0.002565246704227042,0.005869601147210015,0.012005060185682953,0.01309645790606375,0.00291156152756056,0.00592944380778993
0.3077069,0.0035099279886325677,0.005005133861901382,0.002551022867150394,0.0058558968423451565,0.011954855660531831,0.01308571437302159,0.0029336980212655863,0.005968450219067451
0.3081724,0.003502719316406617,0.004997645558893382,0.0025369143716541423,0.005841901826258659,0.011904466789090953,0.013074939473483106,0.0029561246290974977,0.006008587278104068
0.3086379,0.003495324789175029,0.004990018427065286,0.0025229267402112096,0.005827618035586492,0.011853896580659773,0.013064130823563433,0.002978837852139176,0.006049849867624682
0.3091034,0.003487745994447268,0.00498225449369488,0.002509065512745887,0.0058130474799696265,0.01180314807034997,0.01305328603621585,0.0030018341412669587,0.006092232673765209
0.309569,0.0034799845697047827,0.004974355828237262,0.002495336245501245,0.005798192241910836,0.011752224318371406,0.013042402722570047,0.003025109897802374,0.00613573018633364
0.3100345,0.003472042202338263,0.004966324541650819,0.002481744509904275,0.005783054476599348,0.011701128409333069,0.013031478493271222,0.0030486614741789776,0.006180336699099699
