Time,Rectus Femoris right,Rectus Femoris left,Hamstrings right,Hamstrings left,TibilaisÂ Anterior right,TibilaisÂ Anterior left,Gastrocnemius right,Gastrocnemius left
0.0,0.028886032374944387,-0.0017438291530003374,0.10278213821127276,0.008688408112211587,-0.05261042609242535,-0.009007958137578534,-0.14008282211498757,-0.00892534838163445
0.0004655,0.028946908861199657,-0.0015492017037867466,0.10312760142429794,0.00872634852024719,-0.04913868784414834,-0.008626506045497147,-0.13634073760367135,-0.00859514034627806
0.000931,0.02900643380527995,-0.0013551333272385619,0.1034677148086949,0.008763559380107143,-0.04568209115309181,-0.008245268896547685,-0.13261311176157684,-0.008265228320973527
0.0013966,0.02906458479508621,-0.0011616501019372173,0.10380236944979085,0.008800030941467665,-0.042241195460549275,-0.007864298752010154,-0.12890048430373333,-0.007935656408205594
0.0018621,0.029121339686121458,-0.0009687779282221973,0.10413145728925151,0.008835753637317353,-0.03881655682178797,-0.007483647669182295,-0.12520339101766742,-0.007606468641924035
0.0023276,0.029176676612114507,-0.0007765425193124672,0.10445487116851153,0.00887071808857126,-0.035408727713592894,-0.007103367686434065,-0.12152236358267265,-0.007277708974273306
0.0027931,0.029230573995641544,-0.0005849693925128173,0.10477250487209701,0.008904915108637829,-0.03201825684296541,-0.006723510808304428,-0.11785792939097231,-0.006949421262406768
0.0032586,0.029283010558738644,-0.0003940838605114147,0.10508425317080233,0.00893833570793566,-0.028645688957100766,-0.006344128990651109,-0.11421061137090055,-0.006621649255397504
0.0037241,0.029333965333498323,-0.0002039110227747281,0.10539001186468522,0.008970971098357037,-0.025291564654766216,-0.00596527412586364,-0.11058092781222473,-0.006294436581256857
0.0041897,0.02938341767264316,-1.4475757045815867e-05,0.10568967782584518,0.009002812697675232,-0.02195642019919865,-0.00558699802814953,-0.1069693921937292,-0.0059678267340706765
0.0046552,0.029431347260069563,0.00017419728904821157,0.10598314904095309,0.009033852133892555,-0.018640787332637174,-0.005209352418902828,-0.10337651301317809,-0.005641863061262101
0.0051207,0.029477734121354744,0.000362083706273902,0.10627032465350086,0.009064081249526167,-0.015345193092602278,-0.004832388912163677,-0.09980279361977096,-0.005316588750988721
0.0055862,0.0295225586342199,0.0005491593319488039,0.10655110500574251,0.009093492105828648,-0.012070159630029135,-0.004456159000176743,-0.09624873204920133,-0.004992046819681027
0.0060517,0.02956580153894264,0.0007354002579729809,0.10682539168029935,0.009122076986940352,-0.008816204029357955,-0.004080714039055778,-0.09271482086142296,-0.004668280099728437
0.0065172,0.02960744394871168,0.0009207828387293182,0.10709308754140327,0.009149828403970613,-0.005583838130679736,-0.0037061052345609925,-0.08920154698122429,-0.0043453312273186925
0.0069828,0.029647467359916642,0.001105283698847334,0.1073540967757526,0.009176739099004837,-0.0023735683540308523,-0.0033323836279953657,-0.08570939154170529,-0.004023242630435945
0.0074483,0.029685853662365577,0.0012888797408253424,0.10760832493295583,0.00920280204903461,0.0008141044740747759,-0.0029596000822255503,-0.08223882973074527,-0.0037020565170225155
0.0079138,0.02972258514942285,0.001471548152505971,0.10785567896553784,0.009228010469807915,0.003978685291791854,-0.0025878052678325993,-0.07879033064054393,-0.0033818148633088896
0.0083793,0.02975764452805959,0.0016532664144002273,0.10809606726848318,0.009252357819596652,0.007119684970688658,-0.002217049649397297,-0.07536435712031217,-0.0030625594023161334
0.0088448,0.02979101492880876,0.0018340123068555094,0.1083293997182906,0.009275837802878644,0.010236620482015495,-0.0018473834719244608,-0.07196136563218263,-0.0027443316125344967
0.0093103,0.02982267991561661,0.0020137639170631715,0.10855558771151294,0.009298444373931408,0.013329015060425416,-0.0014788567474101702,-0.06858180611040443,-0.002427172706781699
0.0097759,0.029852623495582046,0.002192499645901445,0.10877454420275641,0.009320171740334926,0.016396398365079706,-0.001111519241555464,-0.06522612182388098,-0.0021111236212441277
0.0102414,0.029880830128575366,0.0023701982146096742,0.10898618374211348,0.009341014366380735,0.019438306638074023,-0.000745420460629738,-0.061894749242104634,-0.0017962250047040098
0.0107069,0.029907284736727636,0.002546838671289947,0.10919042251200424,0.009360966976384628,0.022454282860124127,-0.00038060963848677264,-0.058588117904536816,-0.0014825172079555098
0.0111724,0.029931972713782066,0.0027224003972322703,0.10938717836340138,0.00938002455790022,0.025443876903452983,-1.7135723736148324e-05,-0.05530665029347734,-0.001170040273412594
0.0116379,0.029954879934298746,0.002896863113059549,0.10957637085141467,0.009398182364830603,0.028406645681823422,0.00034495263292735103,-0.05205076171046261,-0.0008588339249113657
0.0121034,0.029975992762704382,0.0030702068846887474,0.10975792127021129,0.009415435920435275,0.03134215329766282,0.0007056070912338301,-0.04882086015622775,-0.0005489375577093932
0.012569,0.02999529806217881,0.0032424121291048393,0.10993175268724917,0.009431781020229445,0.03424997118622828,0.0010647796336854187,-0.0456173462142637,-0.0002403902286843023
0.0130345,0.03001278320337047,0.0034134596199444254,0.11009778997680113,0.009447213734772784,0.037129678256762486,0.001422422577738039,-0.04244061293799674,6.676935326635211e-05
0.0135,0.030028436072933134,0.0035833304928862045,0.11025595985274815,0.009461730412344634,0.03998086103059219,0.0017784885878154174,-0.03929104574161406,0.00037250283662218714
0.0139655,0.03004224508187667,0.003752006250845837,0.11040619090062095,0.009475327681502624,0.042803113776122385,0.0021329306871529802,-0.03616902229455621,0.0006767722364325487
0.014431,0.030054199173724972,0.003919468768973023,0.11054841360887009,0.009488002453521572,0.045596038640680625,0.0024857022694693143,-0.03307491241969421,0.0009795399433032185
0.0148966,0.03006428783247451,0.004085700299448896,0.11068256039934525,0.009499751924709546,0.04835924577916671,0.0028367571104629184,-0.030009077995206798,0.0012807687321761505
0.0153621,0.03007250109034749,0.004250683476082103,0.11080856565696527,0.009510573578597912,0.0510923534794638,0.0031860493791320776,-0.02697187286017116,0.0015804217709012886
0.0158276,0.030078829535333956,0.004414401318702192,0.11092636575856128,0.009520465188002224,0.053794988284567184,0.0035335336489158275,-0.0239636427238788,0.0018784626285996652
0.0162931,0.030083264318517638,0.00457683723734915,0.11103589910087651,0.00952942481695078,0.05646678511138746,0.0038791649086541537,-0.020984725078887056,0.0021748552838170947
0.0167586,0.030085797161180913,0.0047379750362582,0.11113710612770714,0.009537450822477749,0.059107387366184934,0.004222898573365744,-0.018035449117815662,0.0024695641324678766
0.0172241,0.030086420361684553,0.004897798917639134,0.11122992935616965,0.009544541856277778,0.06171644705659196,0.0045646904948417446,-0.015116135653897226,0.0027625539955680183
0.0176897,0.030085126802118414,0.005056293485249671,0.11131431340208157,0.009550696866219155,0.06429362490018002,0.004904496972054076,-0.012227097045289664,0.003053790126757617
0.0181552,0.03008190995471972,0.005213443747762499,0.11139020500444312,0.009555915097712805,0.06683859042952846,0.005242274761376959,-0.009368637123158122,0.003343238219612214
0.0186207,0.030076763888055948,0.005369235121925778,0.11145755304900928,0.009560196094934779,0.06935102209375134,0.005577981086620421,-0.006541051123532892,0.0036308644147431107
0.0190862,0.030069683272969563,0.0055236534355169835,0.11151630859094282,0.0095635397019003,0.07183060735643894,0.005911573648874641,-0.0037446256229487947,0.003916635306686798
0.0195517,0.030060663388282328,0.005676684930090048,0.11156642487653963,0.00956594606338801,0.07427704278996977,0.006243010636164116,-0.0009796384778700588,0.004200517950583754
0.0200172,0.030049700126257014,0.005828316263515785,0.1116078573640198,0.00956741562571355,0.07669003416614889,0.00657225073291072,0.0017536412320968014,0.004482479868646962
0.0204828,0.030036789997814554,0.005978534512315614,0.11164056374337886,0.009567949137352056,0.079069296543128,0.006899253129204788,0.004454953257201381,0.00476248905642062
0.0209483,0.030021930137504708,0.006127327173788585,0.11166450395529427,0.009567547649409673,0.08141455434856296,0.007223977529883454,0.007124046226760237,0.005040513988829544
0.0214138,0.03000511830822842,0.006274682167931681,0.1116796402090842,0.009566212515944358,0.08372554145896492,0.0075463841634155066,0.009760677694583482,0.005316523626019833
0.0218793,0.029986352905709963,0.006420587839153362,0.11168593699971642,0.009563945394136639,0.08600200127520242,0.00786643379059205,0.012364614180622652,0.005590487418991354
0.0223448,0.02996563296271686,0.006565032957780356,0.11168336112386679,0.009560748244311133,0.08824368679411312,0.008184087713022346,0.014935631208847673,0.005862375315022634
0.0228103,0.02994295815302542,0.006708006721357713,0.11167188169502722,0.009556623329809761,0.09045036067618659,0.008499307781434186,0.017473513341363267,0.006132157762888831
0.0232759,0.029918328795129578,0.006849498755742255,0.11165147015766473,0.009551573216717705,0.09262179530928209,0.008812056403778227,0.01997805420877766,0.006399805717873523
0.0237414,0.02989174585569049,0.006989499115989572,0.11162210030043347,0.009545600773443106,0.09475777286834912,0.009122296553135916,0.022449056536839204,0.006665290646575226
0.0242069,0.029863210952724126,0.0071279982870348,0.11158374826844294,0.00953870917015161,0.09685808537112199,0.00942999177543084,0.024886332169359152,0.006928584531509619
0.0246724,0.029832726358523888,0.007264987184167447,0.1115363925745857,0.009530901878056726,0.09892253472976408,0.009735106196943571,0.027289702087441838,0.007189659875508592
0.0251379,0.029800295002315277,0.00740045715330055,0.11148001410992853,0.009522182668567029,0.10095093279844174,0.010037604531630441,0.029658996425046224,0.00744848970591733
0.0256034,0.02976592047263956,0.007534399971034574,0.1114145961531719,0.0095125556122912,0.10294310141681243,0.01033745208824688,0.03199405448090591,0.007705047578590877
0.026069,0.029729607019463346,0.007666807844516556,0.11134012437918177,0.009502025077901958,0.10489887244941601,0.010634614777276194,0.034294724726837526,0.007959307581691824
0.0265345,0.029691359556011074,0.00779767341109531,0.11125658686659884,0.009490595730859981,0.10681808782096298,0.010929059117664695,0.03656086481247019,0.008211244339291034
0.027,0.029651183660317694,0.00792698973777373,0.11116397410452938,0.009478272531998962,0.10870059954751728,0.011220752243364187,0.03879234156643178,0.008460833014773579
0.0274655,0.02960908557649888,0.008054750320459656,0.11106227899832209,0.009465060735973066,0.1105462697635755,0.011509661909682724,0.04098903099403,0.008708049314052224
0.027931,0.02956507221573644,0.008180949083017176,0.11095149687443477,0.009450965889568126,0.11235497074504824,0.011795756499444573,0.04315081827146887,0.00895286948859087
0.0283966,0.029519151156976876,0.008305580376120636,0.1108316254843944,0.009435993829878005,0.11412658492815263,0.012079005028960232,0.045277597736643506,0.009195270338240389
0.0288621,0.029471330647341417,0.00842863897591413,0.11070266500785281,0.009420150682347724,0.11586100492422804,0.01235937715380737,0.04736927287655803,0.009435229213889321
0.0293276,0.02942161960224611,0.008550120082479478,0.11056461805473977,0.009403442858685041,0.11755813353049036,0.012636843174423557,0.04942575631141322,0.009672724019931786
0.0297931,0.029370027605231015,0.008670019318116068,0.11041748966651489,0.009385877054642295,0.1192178837367419,0.01291137404151158,0.05144696977541232,0.009907733216555005
0.0302586,0.029316564907497844,0.008788332725435994,0.1102612873165182,0.009367460247670519,0.12084017872805741,0.0131829413612581,0.053432844094334485,0.010140235821848751
0.0307241,0.029261242427155706,0.0089050567652781,0.11009602090941942,0.009348199694447959,0.12242495188346704,0.013451517400366412,0.05538331915992681,0.010370211413739007
0.0311897,0.029204071748175055,0.00902018831444456,0.109921702779765,0.00932810292828531,0.12397214677065971,0.013717075090904007,0.057298343901166296,0.01059764013174808
0.0316552,0.029145065119050125,0.00913372466326363,0.10973834768962216,0.009307177756410162,0.12548171713673134,0.013979588034965629,0.05917787625244394,0.010822502678583432
0.0321207,0.029084235451170604,0.009245663512982194,0.10954597282531911,0.009285432257133302,0.1269536268950029,0.01423903050915241,0.06102188311872338,0.011044780321557444
0.0325862,0.02902159631690354,0.009356002972991741,0.1093445977932799,0.00926287477689967,0.12838785010793385,0.014495377468867731,0.06283034033772653,0.011264454893840285
0.0330517,0.02895716194738676,0.009464741557891378,0.10913424461495343,0.00923951392722691,0.12978437096615686,0.014748604552430352,0.06460323263919848,0.01148150879554803
0.0335172,0.028890947230035522,0.009571878184391439,0.10891493772083595,0.00921535858153452,0.13114318376365824,0.014998688085005294,0.0663405536013039,0.011695924994668145
0.0339828,0.028822967705764143,0.009677412168061278,0.10868670394358664,0.009190417871866773,0.13246429286913078,0.015245605082353017,0.06804230560420635,0.011907687027824342
0.0344483,0.028753239565924904,0.009781343219924785,0.10844957251023601,0.00916470118551253,0.13374771269352484,0.015489333254397317,0.0697084997808822,0.012116779000882878
0.0349138,0.028681779648966534,0.009883671442907194,0.10820357503348829,0.00913821816152523,0.13499346765382678,0.015729851008612447,0.07133915596522067,0.01232318558940231
0.0353793,0.028608605436814954,0.009984397328136824,0.10794874550211842,0.009110978687146247,0.13620159213309707,0.01596713745322993,0.07293430263746122,0.012526892038928868
0.0358448,0.028533735050979076,0.010083521751105403,0.10768512027046578,0.009082992894134879,0.1373721304368047,0.016201172400265477,0.07449397686702001,0.01272788416513963
0.0363103,0.028457187248384676,0.010181045967690736,0.10741273804702725,0.009054271155008259,0.13850513674549883,0.016431936368366536,0.07601822425275712,0.012926148353835758
0.0367759,0.02837898141693949,0.010276971610045482,0.10713163988215256,0.009024824079194391,0.13960067506386367,0.016659410585480747,0.07750709886073617,0.013121671560788134
0.0372414,0.028299137570832848,0.010371300682355923,0.10684186915484682,0.008994662509101598,0.1406588191662071,0.01688357699134565,0.07896066315952877,0.013314441311437785
0.0377069,0.028217676345573376,0.01046403555647456,0.10654347155868525,0.008963797516107567,0.1416796525384371,0.01710441823979981,0.08037898795311597,0.013504445700453525
0.0381724,0.028134618992768423,0.010555178967430466,0.10623649508684674,0.008932240396471168,0.14266326831658557,0.017321917700915408,0.08176215231143992,0.013691673391149238
0.0386379,0.028049987374649043,0.010644734008821285,0.10592099001627345,0.008900002667170219,0.14360976922194169,0.017536059462952273,0.08311024349865857,0.013876113614763185
0.0391034,0.027963803958344476,0.010732704128090714,0.10559700889096539,0.008867096061668318,0.1445192674928607,0.01774682833413326,0.08442335689915736,0.014057756169601697
0.039569,0.02787609180991025,0.010819093121695274,0.10526460650441967,0.008833532525613863,0.1453918848133178,0.01795420984424065,0.08570159594137207,0.014236591420049502
0.0400345,0.027786874588113977,0.010903905130164112,0.104923839881226,0.008799324212474315,0.1462277522382787,0.01815819024603331,0.08694507201947757,0.014412610295448923
0.0405,0.027696176537983053,0.010987144633055593,0.1045747682578307,0.008764483479108754,0.14702701011596117,0.01835875651648412,0.08815390441299768,0.014585804288850035
0.0409655,0.027604022484118192,0.01106881644381435,0.10421745306248305,0.00872902288128177,0.14778980800706287,0.018555896357837064,0.08932822020439225,0.014756165455633742
0.041431,0.027510437823776848,0.01114892570453255,0.10385195789437912,0.008692955169121558,0.14851630460103116,0.018749598198483344,0.09046815419467732,0.014923686412009675
0.0418966,0.027415448519730278,0.011227477880619058,0.10347834850201934,0.008656293282525195,0.14920666762945184,0.01893985119365569,0.09157384881713554,0.015088360333390588
0.0423621,0.027319081092897938,0.011304478755380187,0.10309669276079686,0.008619050346513833,0.14986107377663246,0.019126645225940063,0.09264545404917356,0.015250180952644942
0.0428276,0.027221362614762518,0.01137993442451581,0.10270706064983584,0.008581239666540598,0.15047970858745596,0.019309970905603775,0.09368312732238383,0.015409142558229139
0.0432931,0.027122320699569023,0.011453851290534547,0.10230952422809865,0.00854287472375386,0.15106276637257968,0.019489819570738975,0.09468703343086804,0.015565239992200778
0.0437586,0.02702198349631103,0.011526236057091825,0.10190415760978208,0.0085039691702185,0.15161045011105354,0.01966618328722023,0.09565734443787938,0.015718468648114287
0.0442241,0.026920379680507218,0.011597095723254553,0.10149103693902356,0.008464536824097747,0.15212297135043054,0.019839054848474987,0.09659423958084025,0.015868824468800138
0.0446897,0.026817538445771304,0.011666437577696186,0.10107024036393866,0.008424591664798057,0.15260055010444143,0.020008427775065372,0.0974979051747916,0.016016303944028858
0.0451552,0.026713489495178412,0.01173426919282595,0.10064184801001136,0.008384147828079537,0.15304341474830477,0.020174296314079836,0.09836853451432932,0.016160904108060946
0.0456207,0.02660826303243106,0.011800598418855942,0.10020594195285888,0.008343219601134223,0.1534518019117429,0.020336655438333077,0.09920632777408266,0.016302622537083783
0.0460862,0.026501889752827967,0.011865433377809808,0.0997626061903931,0.008301821417634608,0.1538259563697744,0.02049550084537278,0.10001149190778867,0.016441457346536455
0.0465517,0.026394400834039062,0.011928782457476665,0.09931192661439991,0.008259967852754622,0.15416613093135245,0.02065082895629211,0.10078424054601651,0.01657740718832335
0.0470172,0.026285827926690215,0.01199065430531388,0.09885399098155839,0.008217673618165285,0.15447258632591923,0.02080263691434728,0.10152479389259447,0.01671047124791727
0.0474828,0.026176203144761614,0.012051057822302183,0.09838888888392075,0.008174953557007153,0.15474559108794625,0.020950922583379966,0.10223337861979237,0.01684064924135275
0.0479483,0.026065559055804006,0.012110002156756587,0.09791671171887391,0.008131822638841615,0.15498542143953045,0.021095684546044855,0.1029102277623114,0.016967941412110197
0.0484138,0.02595392867097756,0.012167496698096466,0.09743755265860299,0.008088295954583052,0.15519236117111626,0.02123692210184285,0.10355558061013286,0.017092348527891602
0.0488793,0.02584134543491848,0.01222355107057804,0.0969515066190762,0.00804438871141377,0.1553667015204135,0.021374635264960466,0.10416968260027644,0.017213871877288577
0.0493448,0.02572784321543888,0.012278175126992493,0.09645867022856996,0.00800011622768364,0.15550874104958118,0.02150882476191621,0.10475278520751849,0.017332513266343687
0.0498103,0.02561345629306573,0.012331378942332775,0.09595914179575254,0.007955493927796277,0.15561878552074682,0.021639492029014835,0.10530514583411965,0.0174482750150061
0.0502759,0.025498219350424955,0.012383172807432086,0.09545302127734337,0.00791053733708355,0.1556971477699313,0.02176663920961067,0.10582702769861049,0.017561159953482723
0.0507414,0.025382167461476875,0.012433567222577002,0.09494041024536463,0.007865262076670267,0.15574414757944854,0.021890269151181675,0.10631869972368267,0.017671171418486044
0.0512069,0.025265336080609425,0.012482572891098064,0.09442141185400037,0.007819683858330727,0.1557601115488495,0.02201038540221651,0.1067804364232325,0.017778313249379916
0.0516724,0.025147761031595654,0.012530200712940651,0.09389613080607842,0.007773818479338924,0.15574537296447905,0.022126992208917343,0.10721251778860272,0.017882589784224513
0.0521379,0.025029478496422206,0.012576461778218825,0.09336467331918909,0.007727681817314059,0.15570027166771477,0.02224009451172153,0.1076152291740678,0.017984005855721734
0.0526034,0.02491052500399548,0.012621367360754743,0.09282714709145397,0.007681289825063104,0.15562515392195542,0.022349697941645666,0.10798886118160661,0.018082566787062507
0.053069,0.024790937418732235,0.01266492891160618,0.09228366126695801,0.007634658525422074,0.1555203722784266,0.022455808816455557,0.10833370954500637,0.018178278387677577
0.0535345,0.024670752929041466,0.012707158052584612,0.09173432640085688,0.007587804006097655,0.15538628544087077,0.022558434136665886,0.10865007501334066,0.018271146948893695
0.054,0.024550009035704326,0.012748066569766237,0.0911792544241718,0.007540742414510825,0.15522325812918697,0.02265758158137347,0.10893826323386364,0.018361179239497347
0.0544655,0.024428743540158927,0.01278766640699827,0.09061855860828315,0.007493489952644099,0.1550316609420857,0.02275325950392836,0.10919858463436215,0.018448382501208428
0.054931,0.024306994532696684,0.01282596965940289,0.0900523535291345,0.007446062871893924,0.15481187021882228,0.02284547692744704,0.10943135430500675,0.018532764444066385
0.0553966,0.02418480038057701,0.012862988566881324,0.08948075503115796,0.007398477467929779,0.15456426790007133,0.0229342435401722,0.10963689187974192,0.01861433324173149
0.0558621,0.024062199716066976,0.012898735507620636,0.08890388019093176,0.007350750075561425,0.15428924138800346,0.023019569690683465,0.10981552141725497,0.018693097526703874
0.0563276,0.02393923142441255,0.012933222991605871,0.08832184728058091,0.007302897063615739,0.153987183405624,0.023101466382963332,0.10996757128156287,0.01876906638546282
0.0567931,0.02381593463174786,0.012966463654140274,0.08773477573093201,0.007254934829824511,0.15365849185543193,0.02317994527132255,0.11009337402225533,0.0188422493535288
0.0572586,0.023692348692948985,0.012998470249376412,0.08714278609443284,0.007206879795724535,0.1533035696774564,0.02325501865518902,0.11019326625443167,0.01891265641045058
0.0577241,0.023568513179438432,0.013029255643860975,0.08654600000784798,0.007158748401571288,0.15292282470672644,0.02332669947376417,0.11026758853836906,0.01898029797471967
0.0581897,0.023444467866946563,0.01305883281009603,0.08594454015474176,0.007110557101267511,0.15251666953022824,0.02339500130055079,0.11031668525895856,0.019045184898614297
0.0586552,0.02332025272323593,0.013087214820119463,0.08533853022775967,0.007062322357307919,0.15208552134340322,0.023459938337756173,0.11034090450494555,0.01910732846297517
0.0591207,0.02319590789579441,0.013114414839107292,0.08472809489072015,0.007014060635741304,0.15162980180623906,0.02352152541057458,0.11034059794801009,0.019166740371915254
0.0595862,0.023071473699502913,0.01314044611900037,0.08411335974052866,0.0069657884011512785,0.15114993689900447,0.023579777961353014,0.11031612072172325,0.019223432747465893
0.0600517,0.022946990604283173,0.01316532199215804,0.0834944512689263,0.006917522111656919,0.150646356777677,0.02363471204364413,0.11026783130041402,0.01927741812416153
0.0605172,0.022822499222730913,0.013189055865041118,0.0828714968240854,0.00686927821393457,0.1501194956291125,0.023686344316150115,0.11019609137798207,0.019328709443565396
0.0609828,0.022698040297739586,0.013211661211926608,0.0822446245720653,0.006821073138262078,0.14956979152600322,0.023734692036561186,0.11010126574669057,0.019377320048738357
0.0614483,0.022573654690119623,0.0132331515686565,0.08161396345814138,0.0067729232935866855,0.14899768628167048,0.023779773055292105,0.10998372217597353,0.019423263678653057
0.0619138,0.022449383366217948,0.013253540526422932,0.08097964316802135,0.006724845062617801,0.14840362530473672,0.023821605809120093,0.10984383129129166,0.01946655446255535
0.0623793,0.022325267385542295,0.013272841725591948,0.08034179408896261,0.006676854796945844,0.14778805745371995,0.023860209314727262,0.1096819664530702,0.019507206914274926
0.0628448,0.02220134788839472,0.01329106884956813,0.07970054727080528,0.006628968812188295,0.14715143489159344,0.023895603162150603,0.1094985036357522,0.019545235926486916
0.0633103,0.02207766608351863,0.013308235618702209,0.07905603438693554,0.0065812033831640715,0.14649421294035186,0.023927807508142346,0.10929382130699997,0.01958065676492615
0.0637759,0.021954263235763397,0.013324355784243715,0.07840838769519423,0.006533574739097344,0.14581684993562502,0.023956843069443304,0.10906830030707693,0.019613485062555676
0.0642414,0.0218311806537705,0.013339443122340701,0.07775773999874594,0.006486099058851872,0.1451198070813782,0.023982731115971663,0.10882232372844153,0.01964373681369114
0.0647069,0.021708459677685237,0.013353511428088384,0.07710422460692408,0.006438792466196936,0.14440354830473942,0.02400549346392953,0.1085562767955844,0.019671428368082465
0.0651724,0.0215861416668976,0.013366574509628545,0.07644797529606782,0.006391671025105977,0.14366854011099114,0.024025152468829192,0.10827054674513903,0.01969657642495438
0.0656379,0.021464267987816,0.01337864618230144,0.0757891262703668,0.0063447507350890405,0.14291525143876493,0.024041731018441065,0.10796552270629539,0.019719198027007175
0.0661034,0.021342880001677417,0.013389740262852064,0.07512781212272968,0.006298047526560122,0.1421441535154758,0.024055252525665014,0.10764159558154512,0.01973931055437913
0.066569,0.021222019052397255,0.013399870563692561,0.07446416779569309,0.006251577256240559,0.14135571971303232,0.024065740921326528,0.10729915792778666,0.019756931718572138
0.0670345,0.021101726454462344,0.013409050887222761,0.07379832854238692,0.006205355702599567,0.14055042540385854,0.02407322064689917,0.10693860383781749,0.019772079556341863
0.0675,0.020982043480870165,0.013417295020210766,0.0731304298875726,0.006159398561333051,0.13972874781726138,0.0240777166471546,0.10656032882224128,0.019784772423553927
0.0679655,0.020863011351117428,0.013424616728235656,0.07246060758877093,0.0061137214408817555,0.13889116589617737,0.024079254362741557,0.10616472969181713,0.01979502898900758
0.068431,0.020744671219240965,0.013431029750194272,0.0717889975974956,0.0060683398579898795,0.1380381601543311,0.024077859722695,0.10575220444027807,0.019802868228228288
0.0688966,0.02062706416191384,0.013436547792874043,0.07111573602060857,0.006023269233305213,0.13717021253383688,0.024073559136876966,0.10532315212764626,0.019808309417230597
0.0693621,0.020510231166599432,0.013441184525593798,0.07044095908181355,0.005978524887021832,0.1362878062632736,0.024066379488350637,0.10487797276407214,0.019811372126252537
0.0698276,0.02039421311976614,0.013444953574914615,0.06976480308330334,0.005934122034566385,0.1353914257162625,0.024056348125689322,0.1044170671942242,0.019812076213462843
0.0702931,0.02027905079516533,0.013447868519422809,0.06908740436757607,0.005890075782328967,0.13448155627057687,0.024043492855222164,0.1039408369822564,0.019810441818642135
0.0707586,0.020164784842175015,0.013449942884587385,0.06840889927943589,0.005846401123439494,0.1335586841678118,0.02402784193321852,0.10344968429738002,0.019806489356839253
0.0712241,0.020051455774211815,0.013451190137694349,0.06772942412819188,0.005803112933590514,0.13262329637364195,0.024009424058012898,0.10294401180006617,0.019800239512003943
0.0716897,0.019939103957213634,0.013451623682860368,0.06704911515006955,0.0057602259669072954,0.13167588043869402,0.02398826836207227,0.10242422252890554,0.019791713230597162
0.0721552,0.019827769598195454,0.013451256856128295,0.06636810847084788,0.005717754851866091,0.1307169243600612,0.023964404404007673,0.10189071978815185,0.019780931715180416
0.0726207,0.01971749273388062,0.013450102920646939,0.06568654006873506,0.005675714087261427,0.12974691644348615,0.023937862160531752,0.10134390703597614,0.019767916417985663
0.0730862,0.019608313219409923,0.013448175061937418,0.06500454573749476,0.005634118038223291,0.1287663451662388,0.023908672018364174,0.10078418777345836,0.01975268903446743
0.0735517,0.0195002707171307,0.013445486383248375,0.06432226104983489,0.005592980932285087,0.12777569904071537,0.023876864766086626,0.10021196543434344,0.019735271496838815
0.0740172,0.019393404685468116,0.01344204990100215,0.06363982132107011,0.005552316855503233,0.12677546647878452,0.023842471585949255,0.09962764327558808,0.019715685967593044
0.0744828,0.01928775436788084,0.01343787854033402,0.06295736157306865,0.0055121397486291995,0.1257661356569068,0.023805524045630435,0.0990316242687247,0.019693954833012315
0.0749483,0.0191833587819031,0.01343298513072644,0.06227501649849419,0.005472463403334792,0.12474819438205322,0.02376605408995184,0.09842431099206775,0.01967010069666585
0.0754138,0.019080256708275244,0.01342738240174023,0.06159292042535284,0.005433301458491433,0.12372212995844856,0.023724094032550696,0.09780610552378736,0.019644146372899317
0.0758793,0.01897848668016486,0.013421082978844553,0.06091120728185477,0.005394667396504132,0.12268842905516586,0.023679676547511092,0.09717740933587384,0.019616114880318114
0.0763448,0.018878086972480373,0.013414099379347557,0.060230010561599864,0.005356574539700838,0.1216475775745969,0.0236328346609561,0.09653862318901642,0.019586029435267348
0.0768103,0.018779095591279063,0.013406444008429486,0.0595494632890963,0.00531903604677779,0.12060006052182469,0.0235836017426025,0.09589014702841886,0.019553913445311596
0.0772759,0.01868155026327151,0.013398129155280056,0.05886969798562062,0.005282064909301486,0.11954636187492272,0.02353201149727981,0.09523237988057323,0.019519790502717575
0.0777414,0.01858548842542427,0.013389166989341913,0.058190846635427645,0.0052456739482678715,0.11848696445620635,0.023478097956415454,0.09456571975101316,0.019483684377942907
0.0782069,0.018490947214662726,0.013379569556661877,0.05751304065231792,0.005209875810719341,0.11742234980446002,0.023421895469487922,0.09389056352306724,0.01944561901313409
0.0786724,0.018397963457675956,0.013369348776351698,0.05683641084657029,0.0051746829664201036,0.11635299804816464,0.023363438695449934,0.09320730685763226,0.019405618515636675
0.0791379,0.01830657366082543,0.013358516437159958,0.05616108739224675,0.005140107704590476,0.11527938777974822,0.02330276259412351,0.09251634409398546,0.019363707151520512
0.0796034,0.01821681400015941,0.01334708419415671,0.055487199794876305,0.005106162130700609,0.11420199593088191,0.023239902417568858,0.09181806815165439,0.019319909339122785
0.080069,0.018128720311534834,0.01333506356553237,0.05481487685952446,0.005072858163324169,0.11312129764884288,0.023174893701429035,0.09111287043336257,0.019274249642611475
0.0805345,0.01804232808084854,0.013322465929512303,0.054144246659254255,0.00504020753105246,0.11203776617396508,0.023107772256252122,0.09040114072906855,0.01922675276557172
0.081,0.01795767243437964,0.013309302521388516,0.0534754365039848,0.005008221769469489,0.110951872718198,0.023038574158792794,0.0896832671211153,0.01917744354461743
0.0814655,0.01787478812924484,0.013295584430669811,0.05280857290975286,0.004976912218188412,0.10986408634479354,0.02296733574329482,0.08895963589050665,0.01912634694303036
0.081931,0.01779370954396848,0.013281322598351592,0.052143781568382896,0.004946290017949842,0.10877487384914027,0.022894093592756154,0.0882306314243267,0.019073488044428766
0.0823966,0.017714470669169095,0.013266527814306543,0.051481187317570475,0.004916366107782433,0.10768469964076428,0.02281888453017826,0.08749663612431727,0.019018892046467593
0.0828621,0.01763710509836423,0.013251210714797233,0.05082091411138398,0.0048871512222261534,0.10659402562651549,0.02274174560980136,0.0867580303166283,0.018962584254572184
0.0833276,0.017561646018895215,0.013235381780111613,0.050163084991189176,0.004858655888618643,0.10550331109495754,0.02266271410832717,0.08601519216275512,0.018904590075707283
0.0837931,0.01748812620297365,0.013219051332322313,0.04950782205700099,0.0048308904244450225,0.10441301260197963,0.022581827516130665,0.08526849757167576,0.018844935012183144
0.0842586,0.017416577998851185,0.013202229533170518,0.04885524643926669,0.004803864934751511,0.10332358385764828,0.022499123528462384,0.08451832011320155,0.018783644655500413
0.0847241,0.017347033322114205,0.01318492638207516,0.04820547827108446,0.004777589309623202,0.10223547561431669,0.02241464003664265,0.08376503093255301,0.018720744680235414
0.0851897,0.01727952364710495,0.01316715171426803,0.04755863666086105,0.004752073221726323,0.10114913555600935,0.022328415119248973,0.0830089986661733,0.018656260837967273
0.0856552,0.017214079998470487,0.013148915199055387,0.046914839665412086,0.004727326123915293,0.10006500818909919,0.0222404870332977,0.08225058935879125,0.01859021895124823
0.0861207,0.01715073294284082,0.013130226338206484,0.04627420426350858,0.004703357246904888,0.09898353473429429,0.022150894205420955,0.08149016638174547,0.018522644907618315
0.0865862,0.017089512580637397,0.013111094464469389,0.045636846329872825,0.0046801755970078225,0.09790515301995141,0.022059675223039664,0.0807280903525808,0.01845356465366539
0.0870517,0.017030448538013058,0.013091528740214343,0.04500288060962668,0.004657789953938059,0.096830297376733,0.021966868825533448,0.07996471905592839,0.018383004189131583
0.0875172,0.016973569958924403,0.01307153815620482,0.044372420693195226,0.004636208868680149,0.09575939853362457,0.021872513895408188,0.07920040736568001,0.018310989561066783
0.0879828,0.01691890549733739,0.013051131530496385,0.04374557899166855,0.004615440661424926,0.09469288351532924,0.02177664944946196,0.07843550716846716,0.01823754685802992
0.0884483,0.016866483309566912,0.01303031750746336,0.043122466712624076,0.004595493419571846,0.09363117554105596,0.02167931462995028,0.07767036728845486,0.018162702204338518
0.0889138,0.016816331046750906,0.013009104556953232,0.042503193836411934,0.004576374995798273,0.09257469392471789,0.021580548695751548,0.07690533341346002,0.018086481754366956
0.0893793,0.01676847584745959,0.012987500973568692,0.04188786909290567,0.004558093006196036,0.09152385397655743,0.021480391013533516,0.07614074802240339,0.018008911686893864
0.0898448,0.016722944330440272,0.012965514876077158,0.04127659993872023,0.004540654828475542,0.09047906690621405,0.02137888104892178,0.07537695031410413,0.017930018199498996
0.0903103,0.01667976258749814,0.012943154206947572,0.040669492534899265,0.004524067600237749,0.08944073972725076,0.021276058357671046,0.07461427613742529,0.017849827503010028
0.0907759,0.016638956176513488,0.012920426732014162,0.04006665172507344,0.004508338217314263,0.08840927516315528,0.021171962576840158,0.07385305792277833,0.017768365815999845
0.0912414,0.016600550114595693,0.012897340040266811,0.03946818101409128,0.004493473332175846,0.08738507155483063,0.021066633415971706,0.07309362461499426,0.017685659359335082
0.0917069,0.01656456887137443,0.012873901543767588,0.038874182547123895,0.004479479352409548,0.0863685227695908,0.020960110648277394,0.07233630160756817,0.017601734350776832
0.0921724,0.016531036362428517,0.0128501184776929,0.03828475708924465,0.004466362439264672,0.08536001811167583,0.020852434101830204,0.07158141067828408,0.017516616999634558
0.0926379,0.016499975942852924,0.01282599790050065,0.037700004005484684,0.004454128506267762,0.08435994223430134,0.02074364365076452,0.0708292699262261,0.017430333501474368
0.0931034,0.016471410400964434,0.012801546694221726,0.03712002124136474,0.004442783217906775,0.08336867505325614,0.020633779206485278,0.07008019371018144,0.017342910032882793
0.093569,0.016445361952146496,0.012776771564874967,0.036544905303903634,0.004432331988384563,0.08238659166206244,0.020522880708887255,0.06933449258844092,0.01725437274628725
0.0940345,0.016421852232834003,0.012751679043004765,0.03597475124310347,0.004422779980441773,0.0814140622487122,0.020410988117585717,0.06859247326000165,0.017164747764834235
0.0945,0.016400902294638614,0.012726275484340252,0.03540965263391124,0.004414132104249246,0.080451452013993,0.020298141403159636,0.06785443850717686,0.017074061177326173
0.0949655,0.016382532598615475,0.012700567070575031,0.03484970155865664,0.004406393016369961,0.0794991210914163,0.020184380538408892,0.06712068713961708,0.01698233903321789
0.095431,0.016366763009672144,0.012674559810266264,0.03429498858996519,0.004399567118790548,0.07855742446876064,0.020069745489626926,0.06639151393974653,0.016889607337673387
0.0958966,0.016353612791120697,0.01264825953985186,0.03374560277414624,0.0043936585580223765,0.07762671191124158,0.019954276207890323,0.06566720960961818,0.016795892046683678
0.0963621,0.016343100599374032,0.012621671924784457,0.03320163161505457,0.004388671224272172,0.07670732788631962,0.019838012620366805,0.0649480607191903,0.016701219062246173
0.0968276,0.0163352444787875,0.012594802460780765,0.032663161058424824,0.0043846087506821,0.07579961149015657,0.019720994621643086,0.06423434965602684,0.016605614227606112
0.0972931,0.01633006185664708,0.012567656475184772,0.0321302754766773,0.004381474512639238,0.07490389637573043,0.019603262065074085,0.06352635457642372,0.016509103322560375
0.0977586,0.016327569538305466,0.012540239128443244,0.031603057654193974,0.004379271627154369,0.07402051068261792,0.019484854754154908,0.06282434935796251,0.016411712058824024
0.0982241,0.016327783702467517,0.012512555415691871,0.03108158877306313,0.004378002952309981,0.07314977696845361,0.019365812433917013,0.06212860355349258,0.016313466075459953
0.0986897,0.016330719896626482,0.012484610168450287,0.030565948399291342,0.004377671086777415,0.07229201214207365,0.019246174782349804,0.06143938234654259,0.016214390934372044
0.0991552,0.01633639303265259,0.012456408056424095,0.030056214469481368,0.004378278369403087,0.07144752739835193,0.01912598140184887,0.06075694650816128,0.016114512115862456
0.0996207,0.01634481738253555,0.012427953589411974,0.029552463277974575,0.004379826878863755,0.07061662815473593,0.019005271810691948,0.06008155235518772,0.01601385501425373
0.1000862,0.01635600657428243,0.01239925111931574,0.029054769464456676,0.004382318433390794,0.06979961398948897,0.01888408543454371,0.05941345170995003,0.0159124449335766
0.1005517,0.016369973587972472,0.012370304842251234,0.028563206002025606,0.004385754590563481,0.06899677858164557,0.018762461597990332,0.058752891861391834,0.01581030708332445
0.1010172,0.016386730751970287,0.012341118800757759,0.02807784418572045,0.004390136647171264,0.0682084096526861,0.01864043951610494,0.05810011552762481,0.015707466574275412
0.1014828,0.016406289739298776,0.012311696886103653,0.027598753621510295,0.0043954656391449924,0.06743478890993634,0.01851805828604481,0.05745536081990537,0.015603948414382894
0.1019483,0.016428661564173056,0.012282042840685552,0.027126002215742087,0.00440174234155707,0.066676191991698,0.0183953568786813,0.05681886120803319,0.01549977750473542
0.1024138,0.016453856578696576,0.012252160260518752,0.026659656165046484,0.004408967268690451,0.06593288841411504,0.018272374130263433,0.05619084548716884,0.01539497863558644
0.1028793,0.016481884469720497,0.01222205259781599,0.02619977994670071,0.004417140674176362,0.06520514151978132,0.018149148734116133,0.05557153774606705,0.015289576482454669
0.1033448,0.016512754255867262,0.012191723163651892,0.0257464363094472,0.0044262625512006435,0.06449320842809374,0.01802571923237428,0.054961157336722105,0.015183595602295478
0.1038103,0.016546474284719188,0.012161175130710218,0.025299686264766814,0.004436332632778512,0.06379733998735558,0.017902124007753973,0.054359918845421094,0.015077060429743652
0.1042759,0.016583052230172698,0.012130411536110944,0.024859589078605093,0.004447350392097588,0.063117780728634,0.017778401275362548,0.053768032065200554,0.014969995273427832
0.1047414,0.016622495089958816,0.01209943528431418,0.024426202263549853,0.0044593150429289765,0.062454768821375274,0.017654589074548897,0.05318570196970139,0.014862424312356797
0.1052069,0.01666480918333039,0.01206824915009785,0.02399958157145825,0.004472225540106163,0.06180853603078137,0.01753072526079586,0.05261312868841659,0.014754371592377595
0.1056724,0.016710000148916406,0.01203685578160607,0.02357978098653115,0.004486080580071478,0.06117930767695068,0.017406847497656416,0.05205050748332601,0.014645861022705532
0.1061379,0.016758072942743642,0.012005257703465102,0.023166852718832485,0.004500878601489869,0.060567302595785646,0.01728299324873531,0.05149802872691204,0.0145369163725259
0.1066034,0.016809031836426024,0.011973457319963823,0.022760847198251166,0.004516617785929684,0.05997273310166944,0.017159199769717887,0.05095587788155015,0.01442756126766731
0.107069,0.016862880415521753,0.011941456918295543,0.022361813068902982,0.004533296058610203,0.05939580495191351,0.01703550410044758,0.05042423548026773,0.01431781918734641
0.1075345,0.01691962157805843,0.011909258671858044,0.021969797183969783,0.00455091108921562,0.058836717312977675,0.016911943057053628,0.04990327710886505,0.01420771346098379
0.108,0.01697925753322634,0.011876864643608584,0.021584844600973277,0.0045694602927752,0.058295662728463565,0.01678855322413034,0.049393173389391816,0.0140972672650908
0.1084655,0.01704178980024003,0.011844276789470606,0.021206998577480523,0.004588940830609315,0.05777282708888216,0.016665370946969342,0.048894089964972964,0.013986503620227004
0.108931,0.017107219207368407,0.011811496961788747,0.02083630056723839,0.004609349611341074,0.05726838960319571,0.016542432323846,0.048406187485977074,0.013875445388028042
0.1093966,0.017175545891133612,0.011778526912828739,0.020472790216734035,0.004630683291973259,0.05678252277213372,0.016419773198361277,0.04792962159752084,0.0137641152683037
0.1098621,0.017246769295678865,0.011745368298318742,0.020116505362178516,0.004652938279030306,0.05631539236328204,0.016297429151840098,0.04746454292830288,0.013652535796206013
0.1103276,0.017320888172305714,0.011712022681028635,0.019767482026910605,0.00467611072976505,0.0558671573879442,0.016175435495787302,0.047011097080759935,0.013540729339467266
0.1107931,0.017397900579180982,0.011678491534383753,0.019425754419217806,0.0047001965534299965,0.05543797007977305,0.016053827264402173,0.04656942462253818,0.0134287180957077
0.1112586,0.017477803881213803,0.011644776246109632,0.01909135493057162,0.004725191412612887,0.05502797587517083,0.015932639207152474,0.04613966107927244,0.01331652408981268
0.1117241,0.01756059475010311,0.011610878121904323,0.0187643141342741,0.00475109072463634,0.05463731339545511,0.01581190578140891,0.045721936928666086,0.013204169171379001
0.1121897,0.017646269164555948,0.011576798389134895,0.01844466078451264,0.0047778896630213605,0.0542661144307878,0.015691661145140947,0.04531637759586389,0.01309167501222994
0.1126552,0.01773482241067697,0.011542538200554729,0.01813242181582011,0.004805583159014523,0.05391450392586393,0.01557193914967492,0.044923103450110226,0.01297906310399853
0.1131207,0.017826249082529454,0.011508098638038299,0.017827622342937232,0.004834165903178659,0.05358259996735703,0.01545277333251554,0.0445422298026845,0.012866354755778518
0.1135862,0.01792054308286811,0.011473480716330154,0.0175302856610744,0.004863632347046866,0.05327051377311713,0.01533419691023196,0.04417386690610559,0.012753571091842348
0.1140517,0.018017697624043875,0.011438685386804717,0.01724043324656981,0.004893976704839665,0.052978349683117876,0.015216242771409597,0.04381811995459683,0.012640733049425437
0.1145172,0.01811770522908086,0.011403713541233512,0.016958084757941132,0.004925192955245118,0.05270620515214866,0.015098943469669028,0.04347508908580241,0.012527861376576013
0.1149828,0.01822055773292544,0.011368566015556358,0.016683258037327647,0.004957274843261666,0.052454170744247824,0.014982331216753238,0.04314486938374621,0.012414976630069774
0.1154483,0.018326246283867448,0.011333243593652963,0.01641596911231996,0.004990215882103436,0.052222330128872806,0.014866437875684648,0.042827550883023605,0.012302099173388542
0.1159138,0.018434761345133197,0.011297747011111296,0.01615623219817447,0.005024009355167747,0.05201076007880318,0.014751294953993478,0.04252321857421689,0.012189249174762107
0.1163793,0.018546092696650054,0.011262076958989056,0.015904059700409715,0.005058648318064478,0.05181953046977246,0.01463693359701916,0.042231952410525,0.012076446605272424
0.1168448,0.018660229436981996,0.01122623408756449,0.015659462217781937,0.005094125600707022,0.05164870428182463,0.014523384581286615,0.04195382731559821,0.011963711237019229
0.1173103,0.018777159985435662,0.011190219010072769,0.015422448545637176,0.005130433809464457,0.051498337602391316,0.014410678307959253,0.041688913192568657,0.011851062641346137
0.1177759,0.01889687208433611,0.01115403230642404,0.01519302567963747,0.005167565329374593,0.051368479631085644,0.014298844796370523,0.04143727493426716,0.011738520187126133
0.1182414,0.019019352801471497,0.011117674526899301,0.014971198819858826,0.005205512326417506,0.05125917268620859,0.01418791367763588,0.04119897243461737,0.011626103039105358
0.1187069,0.019144588532705818,0.011081146195820017,0.014756971375258762,0.00524426674984913,0.05117045221296386,0.01407791418834706,0.040974060601198,0.011513830156304082
0.1191724,0.019272565004758685,0.011044447815187413,0.014550344968511408,0.0052838203345944735,0.05110234679337701,0.01396887516435054,0.040762589368964174,0.011401720290473673
0.1196379,0.019403267278151143,0.011007579868287291,0.014351319441208299,0.005324164603699933,0.05105487815791455,0.013860825034612046,0.04056460371511908,0.011289791984608472
0.1201034,0.019536679750316286,0.010970542823256064,0.014159892859423135,0.005365290870844184,0.05102806119879855,0.01375379181516908,0.0403801436751272,0.011178063571511363
0.120569,0.019672786158873412,0.010933337136603695,0.013976061519638863,0.005407190242907045,0.05102190398501232,0.013647803103173347,0.04020924435986024,0.011066553172411847
0.1210345,0.019811569585064356,0.010895963256689133,0.013799819955035505,0.005449853622595705,0.051036407778992515,0.013542886071025068,0.04005193597386681,0.010955278695635394
0.1215,0.019953012457350598,0.010858421627143743,0.013631160942137238,0.005493271711127638,0.051071567055002876,0.013439067460601091,0.03990824383475701,0.010844257835322762
0.1219655,0.020097096555169596,0.01082071269023829,0.013470075507817142,0.005537435010969514,0.0511273695191848,0.013336373577578881,0.03977818839369276,0.010733508070197925
0.122431,0.020243803012848824,0.010782836890188949,0.013316552936658121,0.0055823338286313815,0.05120379613127941,0.01323483028585851,0.03966178525697506,0.010623046662383187
0.1228966,0.020393112323675796,0.01074479467639788,0.013170580778668367,0.005627958277515376,0.051300821128015706,0.013134463002084899,0.03955904520871893,0.010512890656259984
0.1233621,0.020545004344122365,0.010706586506623985,0.013032144857349763,0.005674298280818195,0.05141841204815923,0.013035296690272603,0.039469974234607144,0.01040305687737388
0.1238276,0.020699458298221392,0.010668212850079593,0.01290122927811749,0.005721343574486537,0.051556529759214945,0.012937355856535503,0.03939457354671374,0.010293561931382256
0.1242931,0.020856452782093898,0.010629674190449084,0.012777816437068996,0.005769083710224719,0.05171512848577783,0.012840664543923706,0.039332839609388846,0.010184422203043253
0.1247586,0.02101596576862475,0.010590971028825657,0.012661887030100441,0.005817508058553639,0.05189415583952425,0.012745246327369942,0.039284764166196334,0.010075653855244577
0.1252241,0.021177974612285155,0.010552103886562775,0.012553420062368599,0.005866605811920278,0.05209355285083687,0.012651124308747623,0.039250334267896224,0.009967272828071002
0.1256897,0.021342456054100165,0.010513073308037177,0.012452392858096116,0.005916365987856857,0.052313254002055005,0.012558321112042659,0.039229532301463914,0.009859294837909437
0.1261552,0.02150938622675983,0.010473879863320606,0.012358781070718016,0.005966777432188802,0.05255318726234264,0.01246685887864106,0.03922233602013823,0.0097517353765906
0.1266207,0.02167874065987259,0.010434524150757785,0.012272558693367241,0.006017828822290557,0.05281327412416539,0.012376759262734299,0.03922871857449018,0.009644609710566356
0.1270862,0.02185049428535977,0.010395006799448447,0.01219369806969698,0.0060695086703883155,0.05309342964136782,0.012288043426844355,0.039248648544504335,0.009537932880121834
0.1275517,0.022024621442990198,0.010355328471631389,0.012122169905037464,0.006121805326908656,0.05339356246884239,0.012200732037470371,0.03928208997266433,0.009431719698621433
0.1280172,0.022201095886053967,0.0103154898649687,0.012057943277884895,0.0061747069838720735,0.053713574903780745,0.01211484526085885,0.03932900239803382,0.009325984751787787
0.1284828,0.022379890787174464,0.010275491714728323,0.01200098565172013,0.006228201678330362,0.054053362928498605,0.012030402758899324,0.03938934089132415,0.009220742397012816
0.1289483,0.022560978744257672,0.010235334795863268,0.01195126288715472,0.006282277295846762,0.054412816254824914,0.011947423685147417,0.039463056090939724,0.009116006762700022
0.1294138,0.022744331786577743,0.010195019924985933,0.011908739254401782,0.006336921574017802,0.05479181837004612,0.011865926680977164,0.039550094239992055,0.009011791747637282
0.1298793,0.022929921380997653,0.01015454796223624,0.01187337744606916,0.006392122106035696,0.05519024658439626,0.011785929871864477,0.0396503972242733,0.008908111020399477
0.1303448,0.02311771843832374,0.010113919813042722,0.011845138590272346,0.006447866344290158,0.05560797208008361,0.011707450863803447,0.03976390261117999,0.00880497801878053
0.1308103,0.023307693319792794,0.01007313642977612,0.01182398226406455,0.006504141604008493,0.05604485996184452,0.011630506739857221,0.03989054368957761,0.008702405949254557
0.1312759,0.023499815843690337,0.010032198813295578,0.011809866507181245,0.006560935066932797,0.05650076930901508,0.011555114056845053,0.040030249510596166,0.008600407786466022
0.1317414,0.023694055292098556,0.009991108014388033,0.01180274783609652,0.006618233785033124,0.05697555322911129,0.011481288842167082,0.04018294492934717,0.008498996272749006
0.1322069,0.023890380417772302,0.009949865135102005,0.01180258125838844,0.006676024684255457,0.05746905891290838,0.011409046590768331,0.040348550647551835,0.008398183917675805
0.1326724,0.024088759451141292,0.00990847132997738,0.011809320287410528,0.006734294568303342,0.057981127691009986,0.011338402262243329,0.04052698325707032,0.008297982997635237
0.1331379,0.02428916010743669,0.009866927807173204,0.011822916957266416,0.006793030122451981,0.05851159509189795,0.011269370278082745,0.0407181552843214,0.008198405555441157
0.1336034,0.02449154959393994,0.009825235829495675,0.011843321838084614,0.006852217917393588,0.05906029090145354,0.011201964519063379,0.04092197523558195,0.0080994633999718
0.134069,0.024695894617351857,0.009783396715328673,0.011870484051590198,0.006911844413112743,0.05962703922394079,0.011136198322782774,0.041138347643155125,0.008001168105840567
0.1345345,0.024902161391279654,0.009741411839469104,0.011904351286970254,0.006971895962790504,0.06021165854444259,0.011072084481339665,0.04136717311239607,0.00790353101309891
0.135,0.025110315643839715,0.009699282633869344,0.011944869817029784,0.007032358816735984,0.060813961792740186,0.01100963523916144,0.04160834836958372,0.007806563226971974
0.1354655,0.02532032262537367,0.009657010588289003,0.011991984514634776,0.00709321912634414,0.061433756408626264,0.010948862290979659,0.041861766310627185,0.007710275617627605
0.135931,0.02553214711627513,0.009614597250858205,0.012045638869439147,0.007154462948078504,0.06207084440864216,0.010889776779954733,0.042127316050595255,0.007614678819979286
0.1363966,0.02574575343492436,0.009572044228554519,0.012105775004892209,0.007216076247477645,0.06272502245422916,0.010832389295950652,0.04240488297405772,0.007519783233523539
0.1368621,0.025961105445727845,0.009529353187595731,0.012172333695523316,0.007278044903184127,0.06339608192128376,0.010776709873960774,0.04269434878622758,0.007425599022212277
0.1373276,0.0261781665672596,0.009486525853750571,0.012245254384500309,0.0073403547109947825,0.0640838089711067,0.0107227479926856,0.04299559156489356,0.007332136114360516
0.1377931,0.026396899780500836,0.009443564012569561,0.01232447520145839,0.0074029913879311475,0.06478798462273504,0.010670512573263482,0.04330848581313268,0.007239404202589912
0.1382586,0.02661726763717436,0.009400469509538104,0.012409932980596014,0.0074659405763289315,0.06550838482664643,0.010620011978155198,0.043632902512793094,0.007147412743808458
0.1387241,0.02683923226816994,0.009357244250153898,0.012501563279034416,0.007529187847945418,0.06624478053982448,0.010571254010183308,0.04396870917873757,0.007056170959226758
0.1391897,0.027062755392056735,0.00931389019993081,0.012599300395437255,0.007592718708083743,0.06699693780217315,0.010524245911727166,0.04431576991383808,0.006965687834411218
0.1396552,0.027287798323678798,0.00927040938433122,0.012703077388886855,0.007656518599733002,0.06776461781426822,0.010478994364074483,0.044673945464712275,0.006875972119374485
0.1401207,0.02751432198282967,0.009226803888628909,0.012812826098013357,0.007720572907723227,0.06854757701643333,0.010435505486930249,0.04504309327819226,0.006787032328703491
0.1405862,0.027742286903002247,0.00918307585770451,0.01292847716037306,0.007784866962894211,0.06934556716912697,0.010393784838083814,0.045423067558516085,0.00669887674172541
0.1410517,0.0279716532402103,0.009139227495775561,0.013049960032072074,0.007849386046277246,0.07015833543462716,0.01035383741323485,0.04581371932523192,0.0066115134027118745
0.1415172,0.028202380781878193,0.00909526106606311,0.013177203007631354,0.007914115393288753,0.07098562445999904,0.010315667645978877,0.04621489647180473,0.00652495012112176
0.1419828,0.028434428955795937,0.009051178890396864,0.013310133240089048,0.0079790401979348,0.0718271724613307,0.010279279407952929,0.046626443824914855,0.006439194471882875
0.1424483,0.028667756839136763,0.009006983348760779,0.013448676761335973,0.00804414561702544,0.07268271330922188,0.010244676009141876,0.04704820320443753,0.006354253795712856
0.1429138,0.028902323167535104,0.008962676878781016,0.013592758502679981,0.008109416774397788,0.07355197661550938,0.010211860198345834,0.047480013484092254,0.006270135199479531
0.1433793,0.029138086344222772,0.008918261975158086,0.013742302315634846,0.008174838765146695,0.07443468782121306,0.010180834163808978,0.04792171065275081,0.006186845556601011
0.1438448,0.029375004449221465,0.008873741189045048,0.013897230992929315,0.008240396659861836,0.07533056828568553,0.010151599534010033,0.048373127876392245,0.0061043915074856766
0.1443103,0.029613035248589766,0.00882911712737355,0.014057466289731856,0.00830607550887003,0.07623933537694845,0.010124157378614617,0.048834095560693146,0.00602277946001225
0.1447759,0.02985213620372264,0.00878439245212952,0.014222928945086716,0.008371860346481507,0.0771607025631976,0.010098508209589562,0.04930444141424112,0.005942015590050072
0.1452414,0.03009226448070146,0.008739569879580245,0.014393538703556894,0.008437736195238816,0.07809437950545843,0.01007465198247931,0.04978399051235928,0.005862105842019684
0.1457069,0.030333376959692387,0.008694652179454544,0.014569214337069628,0.008503688070167046,0.07904007215137343,0.010052588097844447,0.050272565361529103,0.005783055929493783
0.1461724,0.030575430244391008,0.008649642174077711,0.014749873666959998,0.008569700983023983,0.07999748283010165,0.010032315402862408,0.05076998596439908,0.0057048713358386
0.1466379,0.03081838067151079,0.008604542737462842,0.014935433586208146,0.00863575994654878,0.08096631034831031,0.010013832193090363,0.051276069885366586,0.005627557314895721
0.1471034,0.031062184320313047,0.008559356794360146,0.015125810081865592,0.008701849978707744,0.08194625008723805,0.0099971362143903,0.051790632316720334,0.005551118891704336
0.147569,0.0313067970221758,0.00851408731926589,0.015320918257666013,0.008767956106935695,0.08293699410080835,0.009982224665016234,0.05231348614533034,0.005475560863263881
0.1480345,0.03155217437019892,0.008468737335392593,0.015520672356815778,0.008834063372371415,0.0839382312147714,0.009969094197863479,0.05284444201987249,0.005400887799337019
0.1485,0.03179827172884285,0.008423309913602182,0.015724985784959542,0.008900156834085585,0.08494964712685164,0.009957740922879795,0.053383308418574284,0.005327104043292893
0.1489655,0.03204504424359839,0.008377808171303895,0.015933771133316038,0.008966221573299526,0.0859709245078777,0.00994816040963829,0.05392989171746764,0.005254213712990596
0.149431,0.03229244685068518,0.008332235271318725,0.016146940201979196,0.009032242697593045,0.08700174310387064,0.009940347690071774,0.05448399625913471,0.005182220701702756
0.1498966,0.032540434286776984,0.008286594420712253,0.016364404023379797,0.009098205345099595,0.08804177983906614,0.009934297261368337,0.0550454244219319,0.005111128679079088
0.1503621,0.03278896109875264,0.008240888869597764,0.016586072885902834,0.00916409468868691,0.08909070891984477,0.00993000308902785,0.055613976689677075,0.005040941092149776
0.1508276,0.03303798165347192,0.00819512190991154,0.016811856357655825,0.009229895940121267,0.09014820193954434,0.009927458610079093,0.05618945172178429,0.0049716611663684985
0.1512931,0.033287450147576454,0.008149296874162217,0.017041663310383443,0.009295594354213423,0.09121392798412739,0.009926656736457087,0.056771646423830376,0.004903291906694911
0.1517586,0.033537320617316034,0.008103417134156092,0.017275401943524,0.00936117523294436,0.0922875537386763,0.00992758985854028,0.0573603560185371,0.004835836098716398
0.1522241,0.033787546948401005,0.008057486099700244,0.017512979808403484,0.009426623929568974,0.09336874359468757,0.00993024984884708,0.057955374117152424,0.004769296309808943
0.1526897,0.034038082885881366,0.008011507217285293,0.017754303832562983,0.009491925852695975,0.0944571597581359,0.00993462806589122,0.05855649279121376,0.004703674890336916
0.1531552,0.03428888204405324,0.007965483968749628,0.017999280344215565,0.009557066470342383,0.09555246235827843,0.009940715358195313,0.0591635026446757,0.004638973974891606
0.1536207,0.034539897916393066,0.007919419869926853,0.01824781509682868,0.009622031313961188,0.09665430955716796,0.009948502068461916,0.05977619288638444,0.004575195483568293
0.1540862,0.034791083885520095,0.007873318469278221,0.01849981329382833,0.009686805982440842,0.09776235765984401,0.009957978037901327,0.060394351402880735,0.004512341123281607
0.1545517,0.035042393233187544,0.00782718334651174,0.018755179613421193,0.00975137614607539,0.0988762612251694,0.009969132610715265,0.06101776483151292,0.0044504123891189115
0.1550172,0.03529377915030268,0.007781018111189569,0.01901381823353098,0.009815727550504139,0.09999567317727938,0.009981954638735505,0.061646218633841385,0.004389410565731407
0.1554828,0.035545194746975914,0.007734826401325298,0.01927563285684521,0.009879846020619806,0.10112024491760957,0.009996432486216478,0.062279497169315676,0.004329336728762618
0.1559483,0.03579659306259892,0.007688611881972597,0.019540526735968584,0.009943717464444148,0.10224962643746897,0.01001255403478073,0.06291738376920518,0.004270191746313897
0.1564138,0.03604792707595161,0.007642378243806673,0.019808402698679145,0.010007327876970062,0.10338346643112346,0.01003030668851614,0.06355966081076382,0.0042119762804465255
0.1568793,0.036299149715337785,0.007596129201699918,0.020079163173283277,0.010070663343969194,0.10452141240935488,0.010049677379223675,0.0642061097916091,0.004154690788719986
0.1573448,0.036550213868749314,0.007549868493293073,0.020352710214065556,0.010133710045764003,0.10566311081346061,0.010070652571814425,0.06485651140429513,0.004098335525765925
0.1578103,0.03680107239405876,0.007503599877563155,0.020628945526829492,0.010196454260963326,0.10680820712965805,0.010093218269854527,0.06551064561105903,0.004042910544897303
0.1582759,0.037051678129240755,0.007457327133389372,0.02090777049452493,0.010258882370160304,0.10795634600385814,0.010117360021256572,0.06616829171871953,0.003988415699752217
0.1587414,0.037301983902622154,0.007411054058118182,0.02118908620295795,0.01032098085959159,0.10910717135677199,0.010143062924115978,0.06682922845370615,0.003934850645971863
0.1592069,0.03755194254316138,0.007364784466128577,0.021472793466578866,0.010382736324756685,0.11026032649931433,0.010170311632690728,0.06749323403719676,0.0038822148429120957
0.1596724,0.03780150689075717,0.007318522187398645,0.021758792854343848,0.010444135473996207,0.111415454248267,0.010199090363522793,0.06816008626034102,0.003830507555388035
0.1601379,0.038050629806586994,0.007272271066074421,0.02204698471564546,0.010505165132027877,0.1125721970421654,0.010229382901699518,0.06882956255954632,0.00377972785545117
0.1606034,0.03829926418347532,0.007226034959041953,0.022337269206307395,0.010565812243439053,0.11373019705737072,0.010261172607253127,0.06950144009180251,0.00372987462419839
0.161069,0.038547362956291575,0.00717981773450351,0.022629546314638482,0.010626063876134604,0.11488909632428994,0.010294442421696486,0.07017549581002111,0.003680946553612346
0.1615345,0.03879487911237755,0.007133623270558833,0.022923715887540927,0.010685907224738993,0.11604853684370522,0.01032917487469317,0.07085150653836415,0.00363294214843254
0.162,0.03904176570200373,0.007087455453792254,0.02321967765666766,0.010745329613951443,0.11720816070317432,0.010365352090859823,0.07152924904753706,0.003585859728056496
0.1624655,0.039287975848853886,0.007041318177866549,0.023517331264623485,0.010804318501853054,0.11836761019346247,0.010402955796698761,0.07220850013001977,0.0035396974284703656
0.162931,0.03953346276053692,0.006995215342124349,0.02381657629120463,0.010862861483164702,0.11952652792496629,0.010441967327658654,0.07288903667520955,0.003494453204208267
0.1633966,0.0397781797391248,0.006949150850197951,0.02411731227967106,0.010920946292454528,0.1206845569440892,0.010482367635321024,0.07357063574444862,0.003450124830339686
0.1638621,0.040022080191715145,0.006903128608628362,0.02441943876304592,0.010978560807293819,0.12184134084952739,0.010524137294710276,0.07425307464590944,0.0034067099044842244
0.1643276,0.04026511764101679,0.006857152525494377,0.024722855290436312,0.011035693051360157,0.1229965239084244,0.010567256511724845,0.0749361310093097,0.0033642058488529717
0.1647931,0.04050724573595651,0.006811226509052527,0.02502746145336951,0.011092331197486746,0.12414975117235161,0.01061170513068698,0.07561958286042912,0.003322609912315778
0.1652586,0.040748418262304874,0.00676535446638864,0.02533315691213857,0.011148463570657022,0.1253006685930707,0.010657462642008593,0.07630320869539989,0.0032819191724936803
0.1657241,0.04098858915331925,0.006719540302081821,0.025639841422151203,0.011204078650943795,0.1264489231380338,0.010704508189970513,0.07698678755474163,0.003242130537875728
0.1661897,0.04122771250040153,0.006673787916881573,0.0259474148602756,0.01125916507639234,0.12759416290557574,0.010752820580612409,0.07767009909711227,0.0032032407499594353
0.1666552,0.04146574256376838,0.006628101206398813,0.02625577725117673,0.01131371164584697,0.12873603723975238,0.010802378289730548,0.07835292367274553,0.003165246385414106
0.1671207,0.041702633783131396,0.006582484059811538,0.02656482879363654,0.011367707321720726,0.12987419684477794,0.010853159470980544,0.0790350423965459,0.003128143858266244
0.1675862,0.04193834078838472,0.006536940358585838,0.026874469886851167,0.011421141232707922,0.13100829389901436,0.010905141964082116,0.0797162372208119,0.0030919294221062915
0.1680517,0.04217281841029749,0.00649147397521295,0.027184601156698122,0.0114740026764393,0.13213798216846515,0.010958303303122923,0.08039629100755873,0.003056599172315933
0.1685172,0.04240602169120881,0.006446088771963044,0.027495123481966248,0.011526281122079594,0.133262917119726,0.011012620724958498,0.08107498760041093,0.0030221490483152
0.1689828,0.042637905895723194,0.006400788599656374,0.027805938020540922,0.011577966212867366,0.13438275603234479,0.011068071177705302,0.08175211189603687,0.002988574835828633
0.1694483,0.04286842652140459,0.006355577296452386,0.02811694623553691,0.011629047768597018,0.135497158110543,0.011124631329323918,0.08242744991509604,0.0029558721691697373
0.1699138,0.0430975393094672,0.006310458686657393,0.028428049921370963,0.01167951578804296,0.13660578459425046,0.011182277576289467,0.08310078887267092,0.002924036533542975
0.1703793,0.04332520025546163,0.006265436579551366,0.02873915122976611,0.01172936045132592,0.13770829886940528,0.011240986052346252,0.08377191724815525,0.0028930632673625323
0.1708448,0.043551365619954645,0.00622051476823439,0.0290501526956793,0.011778572122221368,0.13880436657746922,0.0113007326373437,0.08444062485457042,0.0028629475645871078
0.1713103,0.043775991939200766,0.006175697028493264,0.02936095726314391,0.011827141350410037,0.13989365572410933,0.011361492966150605,0.0851067029072821,0.00283368447706999
0.1717759,0.04399903603580413,0.006130987117688744,0.029671468311018332,0.011875058873670425,0.1409758367869951,0.011423242437644638,0.08576994409208892,0.002805268916923708
0.1722414,0.04422045502936842,0.006086388773663847,0.02998158967863174,0.011922315620013096,0.14205058282266148,0.011485956223774007,0.0864301426326553,0.0027776956588985947
0.1727069,0.04444020634713296,0.0060419057136736195,0.030291225691317827,0.011968902709756493,0.14311756957238747,0.011549609278688089,0.08708709435726039,0.0027509593427746093
0.1731724,0.04465824773459253,0.005997541633336733,0.030600281185827256,0.012014811457543951,0.1441764755670404,0.011614176347933765,0.08774059676483502,0.002725054475765811
0.1736379,0.04487453726609844,0.005953300205609208,0.030908661535609314,0.012060033374301506,0.1452269822308359,0.01167963197771413,0.08839044909025863,0.002699975434936878
0.1741034,0.045089033355437805,0.005909185079780531,0.031216272675953196,0.012104560169136018,0.1462687739839649,0.011745950524206066,0.08903645236888828,0.002675716469631076
0.174569,0.04530169476638793,0.005865199880492382,0.03152302112897915,0.012148383751173065,0.14730153834403797,0.011813106162933311,0.08967840950029149,0.0026522717039090663
0.1750345,0.04551248062324221,0.005821348206780128,0.031828814028469446,0.012191496231334063,0.1483249660262979,0.011881072898191344,0.09031612531115486,0.0026296351389979516
0.1755,0.04572135042130338,0.005777633631137221,0.03213355914452915,0.012233889924051947,0.14933875104255123,0.0119498245725205,0.09094940661734008,0.002607800655749949
0.1759655,0.04592826403733999,0.005734059698602534,0.03243716490806647,0.01227555734892485,0.15034259079876988,0.012019334876223683,0.09157806228505848,0.0025867620171100823
0.176431,0.04613318174000153,0.0056906299258707065,0.03273954043508223,0.01231649123230706,0.1513361861913137,0.012089577356924992,0.09220190329113531,0.0025665128705922753
0.1768966,0.04633606420018716,0.005647347800425507,0.033040595550758105,0.012356684508836644,0.1523192417017242,0.012160525429165608,0.0928207427823342,0.0025470467507632383
0.1773621,0.04653687250136307,0.0056042167796962,0.03334024081333281,0.012396130322899011,0.15329146549003994,0.012232152384033303,0.09343439613371203,0.002528357081733525
0.1778276,0.04673556814982343,0.005561240290236914,0.03363838753775577,0.01243482203002571,0.1542525694865832,0.012304431398821973,0.09404268100597438,0.002510437179655154
0.1782931,0.04693211308488972,0.005518421726928962,0.033934947819107296,0.012472753198227769,0.15520226948216737,0.01237733554671764,0.09464541740180091,0.002493280255225172
0.1787586,0.04712646968904327,0.005475764452206096,0.034229834555774726,0.012509917609262905,0.15614028521667353,0.012450837806507376,0.09524242772111048,0.0024768794161945658
0.1792241,0.04731860079798579,0.005433271795302592,0.03452296147237356,0.012546309259835945,0.15706634046594356,0.012524911072307751,0.09583353681523497,0.0024612276698819085
0.1796897,0.04750846971062254,0.005390947051524087,0.03481424314240312,0.012581922362731902,0.15798016312693666,0.01259952816330932,0.09641857203997067,0.0024463179256911534
0.1801552,0.04769604019896264,0.005348793481540999,0.03510359501062601,0.012616751347881155,0.15888148530109578,0.01267466183353377,0.09699736330747528,0.0024321429976329892
0.1806207,0.04788127651793071,0.005306814310704356,0.03539093341516113,0.012650790863356298,0.15977004337587028,0.012750284781600318,0.0975697431369783,0.002418695606849189
0.1810862,0.048064143415083756,0.005265012728383855,0.03567617560927984,0.012684035776300288,0.1606455781043432,0.01282636966049798,0.09813554670427174,0.0024059683841393953
0.1815517,0.048244606140227034,0.005223391887327908,0.0359592397828955,0.012716481173785541,0.16150783468291469,0.012902889087360179,0.09869461188994758,0.002393953872489768
0.1820172,0.048422630454922296,0.005181954903045422,0.03624004508373652,0.01274812236360379,0.16235656282699873,0.0129798156532382,0.09924677932634775,0.002382644529602926
0.1824828,0.04859818264188132,0.0051407048532090506,0.03651851163819369,0.012778954874986577,0.1631915168446967,0.01305712193286984,0.09979189244319234,0.0023720327304285905
0.1829483,0.04877122951423761,0.005099644777079625,0.03679456057183287,0.012808974459256411,0.1640124557084184,0.013134780494439603,0.10032979751185128,0.002362110769694319
0.1834138,0.048941738424688734,0.005058777674951505,0.03706811402956468,0.012838177090408767,0.16481914312442664,0.013212763909326675,0.10086034368822594,0.002352870864435705
0.1838793,0.04910967727450126,0.00501810650761854,0.03733909519546312,0.01286655896562515,0.16561134760028728,0.013291044761836937,0.1013833830542076,0.0023443051565253904
0.1843448,0.04927501452237004,0.004977634195860354,0.03760742831222558,0.012894116505717684,0.1663888425102088,0.01336959565891516,0.10189877065768174,0.0023364057152002304
0.1848103,0.0494377191931231,0.004937363619948626,0.0378730387002674,0.012920846355505718,0.1671514061582581,0.013448389239833533,0.10240636455104889,0.0023291645395859353
0.1852759,0.04959776088626306,0.004897297619173032,0.03813585277644434,0.012946745384125087,0.16789882183944055,0.013527398185852635,0.10290602582823571,0.002322573561218489
0.1857414,0.04975510978433604,0.004857438991386513,0.03839579807239678,0.012971810685270709,0.16863087789863218,0.013606595229850903,0.10339761866017207,0.0023166246465616516
0.1862069,0.0499097366611187,0.004817790492569463,0.038652803252509915,0.01299603957737337,0.16934736778735138,0.013685953165918668,0.10388101032871372,0.00231130959951983
0.1866724,0.05006161288961429,0.004778354836412446,0.03890679813148417,0.013019429603711458,0.17004809011835667,0.013765444858912809,0.10435607125899314,0.002306620163945597
0.1871379,0.050210710449848386,0.004739134693916992,0.03915771369151042,0.013041978532458472,0.17073284871805677,0.013845043253968166,0.10482267505018433,0.0023025480261411476
0.1876034,0.05035700193645542,0.004700132693014011,0.0394054820990444,0.013063684356667146,0.17140145267671847,0.013924721385961892,0.10528069850467148,0.0022990848173529894
0.188069,0.050500460566047074,0.004661351418199291,0.0396500367211746,0.013084545294190973,0.17205371639645767,0.014004452388927098,0.1057300216556139,0.0022962221162591803
0.1885345,0.05064106018435415,0.004622793410185582,0.03989131214157781,0.013104559787543917,0.17268945963700008,0.014084209505412157,0.10617052779290335,0.0022939514514484505
0.189,0.050778775273133875,0.004584461165570673,0.04012924417605617,0.013123726503698972,0.17330850755919874,0.014163966095782162,0.10660210348751215,0.0022922643038905755
0.1894655,0.05091358095683548,0.004546357136520936,0.040363769887649434,0.013142044333826286,0.17391069076629662,0.014243695647459056,0.10702463861423332,0.0022911521093973994
0.189931,0.05104545300901744,0.004508483730469772,0.04059482760131582,0.013159512392971407,0.17449584534292442,0.014323371784096981,0.10743802637281538,0.002290606261073929
0.1903966,0.051174367858511004,0.0044708433098304655,0.040822356918174686,0.013176130019674187,0.17506381289182452,0.014402968274689391,0.10784216330749523,0.002290618111758954
0.1908621,0.05130030259532535,0.0044334381917229635,0.04104629872930433,0.013191896775528855,0.17561444056829464,0.014482459042604368,0.10823694932493372,0.0022911789764546438
0.1913276,0.05142323497629082,0.004396270647714182,0.04126659522908783,0.013206812444685643,0.17614758111234513,0.014561818174544643,0.10862228771055789,0.0022922801347446107
0.1917931,0.05154314343043776,0.004359342903571477,0.04148318992810007,0.0132208770332944,0.17666309287856594,0.014641019929428649,0.10899808514331334,0.0022939128331998996
0.1922586,0.051660007064109455,0.004322657139028987,0.0416960276655287,0.013234090768890532,0.17716083986370038,0.014720038747188887,0.10936425170883009,0.0022960682877724
0.1927241,0.05177380566580827,0.004286215487566596,0.04190505462112142,0.013246454099723547,0.17764069173192415,0.014798849257483848,0.1097207009110045,0.0022987376861751834
0.1931897,0.051884519710775165,0.004250020036201327,0.04211021832665202,0.013257967694028488,0.17810252383782896,0.014877426288319593,0.1100673496820005,0.002301912190249293
0.1936552,0.051992130365302966,0.004214072825290996,0.042311467676896856,0.013268632439240478,0.17854621724711162,0.014955744874577117,0.11040411839067277,0.0023055829383165326
0.1941207,0.05209661949078422,0.004178375848350007,0.04250875294011356,0.013278449441152577,0.17897165875497142,0.015033780266441527,0.11073093084941561,0.0023097410475178062
0.1945862,0.05219796964749415,0.004142931051877203,0.04270202576801345,0.013287420023017206,0.1793787409022195,0.015111507937729085,0.11104771431944219,0.0023143776161365704
0.1950517,0.05229616409810944,0.004107740335195727,0.04289123920521907,0.01329554572459136,0.1797673619891059,0.015188903594108082,0.111354399514499,0.0023194837259069585
0.1955172,0.052391186810963025,0.00407280555030488,0.043076347698198326,0.013302828301125858,0.18013742608687272,0.015265943181209423,0.11165092060302347,0.002325050444306125
0.1959828,0.052483022463034656,0.0040381285017439825,0.043257307103667014,0.013309269722298931,0.18048884304704338,0.015342602892622799,0.11193721520875297,0.0023310688268303637
0.1964483,0.05257165644267697,0.004003710946468293,0.043434074696451955,0.013314872171094456,0.18082152850846084,0.015418859177774183,0.11221322440979624,0.002337529919254557
0.1969138,0.05265707485207631,0.0039695545937370146,0.043606609176807434,0.013319638042625221,0.18113540390208993,0.01549468874968031,0.1124788927361799,0.0023444247598745148
0.1973793,0.05273926450944718,0.003935661105013421,0.043774870677178446,0.013323569942901651,0.18143039645360154,0.015570068592575736,0.11273416816588559,0.0023517443817317784
0.1978448,0.0528182129509591,0.0039020320938771506,0.043938820768405266,0.013326670687546536,0.18170643918375878,0.01564497596940794,0.11297900211939504,0.002359479814820462
0.1983103,0.05289390843239428,0.0038686691259487015,0.04409842246536479,0.013328943300456308,0.1819634709066265,0.015719388429195954,0.11321334945276365,0.0023676220882757064
0.1987759,0.05296633993053421,0.0038355737188261463,0.044253640232045234,0.013330391012409577,0.18220143622562704,0.015793283814247827,0.11343716844924409,0.0023761622325433134
0.1992414,0.05303549714427295,0.003802747342034095,0.04440443998605189,0.013331017259623712,0.18242028552746464,0.01586664026723235,0.1136504208094847,0.002385091281530123
0.1997069,0.05310137049545479,0.003770191416984936,0.0445507891025424,0.013330825682260388,0.1826199749739421,0.01593943623810034,0.1138530716403285,0.0023944002747346965
0.2001724,0.05316395112943377,0.003737907316952365,0.044692656417591355,0.013329820122881081,0.18280046649169085,0.01601165049085089,0.11404508944224044,0.002404080259357872
0.2006379,0.0532232309153521,0.0037058963670571956,0.04483001223098508,0.013328004624853554,0.18296172775983516,0.016083262110137993,0.11422644609539231,0.0024141222923927744
0.2011034,0.053279202446134676,0.003674159844265443,0.04496282830844821,0.013325383430710408,0.18310373219561088,0.016154250507713127,0.11439711684443618,0.0024245174426938713
0.201569,0.053331859038196996,0.0036426989773986358,0.04509107788330458,0.01332196098046084,0.18322645893795628,0.016224595428699543,0.11455708028199829,0.0024352567930247195
0.2020345,0.053381194730864064,0.0036115149471562884,0.045214735657575986,0.013317741909856658,0.18332989282909268,0.016294276957694306,0.11470631833092658,0.0024463314420841106
0.2025,0.053427204285498055,0.0035806088861504454,0.0453337778025227,0.013312731048613571,0.18341402439411195,0.0163632755246945,0.11484481622532541,0.002457732506510388
0.2029655,0.05346988318433368,0.0035499818789521734,0.04544818195863067,0.013306933418588733,0.18347884981858756,0.016431571910844375,0.11497256249041161,0.002469451122863782
0.203431,0.05350922762902041,0.0035196349621498583,0.0455579272350503,0.013300354231915381,0.18352437092422547,0.016499147254000614,0.11508954892122546,0.0024814784495866796
0.2038966,0.05354523453887194,0.0034895691244191504,0.045662994208492375,0.013292998889095357,0.18355059514257224,0.01656598305411331,0.1151957705602302,0.0024938056689417934
0.2043621,0.05357790154882398,0.003459785306604392,0.04576336492158693,0.013284872977050253,0.18355753548679776,0.016632061178420525,0.11529122567383249,0.002506423988928218
0.2048276,0.053607227007102465,0.0034302844018113507,0.04585902288071064,0.013275982267131769,0.18354521052157047,0.016697363866454585,0.11537591572785606,0.0025193246451753683
0.2052931,0.05363320997260483,0.0034010672555111086,0.04594995305328863,0.013266332713091817,0.18351364433104334,0.016761873734858553,0.11544984536199986,0.0025324989028147923
0.2057586,0.053655850211998216,0.0033721346656549753,0.046036141864576524,0.013255930449012888,0.18346286648497015,0.01682557378201149,0.1155130223633116,0.0025459380583298576
0.2062241,0.05367514819653896,0.0033434873828003,0.046117577193928325,0.013244781787199018,0.1833929120029726,0.01688844739246145,0.11556545763870736,0.002559633441383273
0.2066897,0.053691105098618644,0.003315126110247099,0.04619424837055562,0.013232893216027716,0.1833038213169783,0.016950478341165236,0.11560716518656763,0.002573576416622412
0.2071552,0.05370372278804254,0.0032870515041854183,0.046266146168783225,0.013220271397763083,0.18319564023185142,0.017011650797534278,0.1156381620674399,0.002587758385462385
0.2076207,0.05371300382804695,0.0032592641738533935,0.04633326280280618,0.013206923166330306,0.18306841988423894,0.017071949329286077,0.11565846837387807,0.0026021707878468177
0.2080862,0.053718951471062315,0.003231764681705979,0.04639559192095284,0.0131928555250516,0.18292221669965464,0.017131358906100912,0.11566810719944853,0.002616805103986299
0.2085517,0.05372156965422937,0.003204553543594343,0.046453128599458306,0.013178075644343564,0.18275709234782495,0.01718986490308357,0.11566710460693369,0.0026316528560744877
0.2090172,0.053720862994675836,0.003177631228955947,0.04650586933575284,0.013162590859375881,0.18257311369632187,0.017247453104029895,0.11565548959576281,0.0026467056099818915
0.2094828,0.05371683678456098,0.0031509981610153273,0.04655381204126946,0.013146408667691088,0.18237035276250932,0.01730410970449813,0.11563329406870132,0.002661954976927354
0.2099483,0.053709496985895486,0.003124654716995609,0.046596956033775165,0.013129536726785152,0.18214888666382953,0.017359821314684772,0.11560055279782874,0.0026773926151273074
0.2104138,0.05369885022514387,0.0030986012283407767,0.04663530202923023,0.013111982851648461,0.18190879756645875,0.01741457496210474,0.11555730338983616,0.0026930102314228553
0.2108793,0.05368490378761649,0.003072837980948714,0.04666885213318033,0.013093755012266799,0.18165017263236174,0.017468358094075556,0.11550358625067332,0.0027087995828847552
0.2113448,0.05366766561165808,0.003047365215414991,0.04669760983168613,0.013074861331081856,0.1813731039647764,0.017521158580004987,0.11543944454957582,0.0027247524783963763
0.2118103,0.05364714428263938,0.0030221831272873815,0.04672157998179532,0.013055310080410871,0.1810776885521602,0.01757296471348171,0.11536492418250166,0.002740860780214716
0.2122759,0.0536233490267585,0.0029972918673310516,0.046740768801562256,0.013035109679824984,0.18076402821063217,0.017623765214168467,0.11528007373500604,0.0027571164055095495
0.2127414,0.05359628970465836,0.002972691541804371,0.04675518385962053,0.013014268693485867,0.18043222952494517,0.017673549229497106,0.11518494444458299,0.0027735113278807857
0.2132069,0.0535659768048663,0.002948382212745262,0.04676483406431394,0.012992795827440243,0.1800824037880234,0.01772230633616505,0.11507959016250176,0.0027900375788540953
0.2136724,0.053532421437061994,0.002924363898268045,0.046769729652391644,0.012970699926871825,0.17971466693910196,0.01777002654143268,0.11496406731516536,0.0028066872493548523
0.2141379,0.053495635325179106,0.002900636572870708,0.04676988217727361,0.012947989973310193,0.1793291395005055,0.017816700284221356,0.11483843486501775,0.0028234524911604298
0.2146034,0.05345563080034593,0.002877200167752565,0.046765304496892736,0.012924675081796193,0.1789259465131038,0.01786231843601188,0.11470275427102564,0.002840325518330859
0.215069,0.05341242079367008,0.002854054571142252,0.04675601076112046,0.012900764498003467,0.17850521747048137,0.017906872301543423,0.11455708944875963,0.0028572986086178548
0.2155345,0.05336601882887174,0.0028311996286360247,0.04674201639878328,0.012876267595315799,0.17806708625185896,0.017950353619313044,0.1144015067300993,0.0028743641048521876
0.216,0.05331643901477012,0.0028086351435463223,0.04672333810427806,0.012851193871860107,0.1776116910538057,0.017992754561876288,0.1142360748225853,0.002891514416309371
0.2164655,0.05326369603762754,0.002786360877260559,0.04669999382379444,0.012825552947494958,0.17713917432077775,0.01803406773594945,0.11406086476844113,0.0029087420200536148
0.216931,0.053207805153355534,0.0027643765496100994,0.046672002741153254,0.012799354560754612,0.17664968267452008,0.018074286182314398,0.1138759499032867,0.0029260394622599786
0.2173966,0.05314878217958734,0.002742681839249343,0.04663938526327049,0.012772608565748607,0.17614336684236684,0.018113403375527023,0.11368140581456525,0.002943399359514665
0.2178621,0.05308664348762128,0.0027212763840448687,0.04660216300525651,0.012745324929017018,0.17562038158447507,0.01815141322343074,0.1134773102997044,0.0029608144000933937
0.2183276,0.0530214059942395,0.0027001597814745345,0.04656035877516117,0.012717513726341539,0.17508088562002674,0.018188310066476608,0.1132637433240322,0.002978277345217798
0.2187931,0.052953087153406596,0.0026793315890364447,0.04651399655837561,0.012689185139512607,0.17452504155243345,0.018224088676851987,0.11304078697846838,0.0029957810302898022
0.2192586,0.05288170494785272,0.002658791324667691,0.04646310150170233,0.012660349453052873,0.1739530157935803,0.01825874425741987,0.11280852543701016,0.003013318366103957
0.2197241,0.05280727788054566,0.002638538467172751,0.046407699897105026,0.012631017050897399,0.17336497848714483,0.0182922724404713,0.11256704491403188,0.0030308823400377154
0.2201897,0.05272982496605642,0.0026185724566614396,0.04634781916515052,0.012601198413031067,0.17276110343102877,0.018324669286293428,0.11231643362141695,0.003048466017219626
0.2206552,0.05264936572182282,0.0025988926949962726,0.04628348783815517,0.012570904112083822,0.17214156799894084,0.018355931281556097,0.1120567817255393,0.0030660625416754415
0.2211207,0.052565920159315764,0.0025794985462491054,0.046214735543048405,0.012540144809884433,0.17150655306117027,0.018386055337519774,0.11178818130411146,0.0030836651374521015
0.2215862,0.05247950877511278,0.0025603893371668896,0.046141592983966424,0.012508931253973666,0.170856242904591,0.018415038788067915,0.11151072630291459,0.0031012671097195603
0.2220517,0.0523901525418836,0.0025415643576463744,0.04606409192458915,0.012477274274077783,0.17019082515193817,0.018442879387566807,0.11122451249242561,0.0031188618458504063
0.2225172,0.0522978728992921,0.0025230228612175753,0.045982265170233606,0.01244518477854351,0.16951049068039895,0.018469575308556162,0.11092963742435542,0.0031364428164771946
0.2229828,0.052202691744819014,0.00250476406553583,0.045896146549716924,0.012412673750735655,0.16881543353956077,0.018495125139273663,0.11062620038811116,0.0031540035765274016
0.2234483,0.05210463142450944,0.0024867871528822453,0.04580577089700204,0.012379752245398714,0.16810585086876048,0.018519527881016917,0.11031430236719456,0.003171537766235885
0.2239138,0.05200371472364876,0.0024690912706723514,0.04571117403263891,0.012346431384983887,0.16738194281387872,0.01854278294534637,0.1099940459955476,0.003189039112134693
0.2243793,0.05189996485737061,0.0024516755319727752,0.04561239274501397,0.012312722355943032,0.16664391244362492,0.01856489015113289,0.10966553551385588,0.0032065014280200682
0.2248448,0.05179340546119996,0.0024345390160257618,0.0455094647714201,0.012278636404991194,0.16589196566535866,0.01858584972145379,0.10932887672581876,0.0032239186158964576
0.2253103,0.051684060581534214,0.0024176807687813517,0.04540242877895926,0.012244184835339324,0.16512631114049317,0.018605662280341245,0.10898417695439568,0.003241284666897317
0.2257759,0.05157195466606503,0.002401099803437039,0.04529132434528924,0.012209379002898873,0.16434716019952758,0.0186243288493871,0.1086315449980363,0.003258593662182485
0.2262414,0.05145711255414347,0.002384795100984717,0.045176191939225965,0.012174230312459944,0.1635547267567539,0.01864185084420792,0.1082710910869026,0.0032758397738118696
0.2267069,0.05133955946709131,0.00236876561076472,0.04505707290121224,0.012138750213844609,0.1627492272246854,0.018658230070774297,0.10790292683908988,0.0032930172655951913
0.2271724,0.05121932099846144,0.002353010251026761,0.04493400942366338,0.012102950198036932,0.16193088042825254,0.018673468721608195,0.10752716521685465,0.003310120493917498
0.2276379,0.05109642310425083,0.002337527909497581,0.04480704453119996,0.012066841793291216,0.16109990751881167,0.018687569371852064,0.10714392048285637,0.0033271439085401627
0.2281034,0.050970892093069625,0.002322317443955119,0.044676222060777655,0.012030436561219852,0.16025653188801176,0.018700534975213352,0.1067533081564211,0.003344082053377061
0.228569,0.05084275461627007,0.0023073776828090365,0.044541586641723425,0.011993746092862165,0.15940097908156317,0.0187123688597879,0.1063554449698348,0.0033609295672456132
0.2290345,0.050712037658039485,0.0022927074256874217,0.044403183675687505,0.011956782004735595,0.1585334767129516,0.01872307472376551,0.10595044882467483,0.0033776811845923826
0.2295,0.05057876852546126,0.0022783054440295427,0.0442610593165196,0.011919555934870539,0.15765425437713879,0.018732656631020892,0.10553843874818856,0.0033943317361929217
0.2299655,0.05044297483854802,0.00226417048168449,0.044115260450077846,0.011882079538830196,0.15676354356429165,0.01874111900659305,0.10511953484972866,0.0034108761498255562
0.230431,0.050304684520251275,0.002250301255515558,0.043965834673978424,0.011844364485716827,0.15586157757357852,0.01874846663205589,0.10469385827725501,0.003427309450918799
0.2308966,0.050163925786452276,0.0022366964560102016,0.043812830277293574,0.011806422454165879,0.15494859142707126,0.018754704640782827,0.10426153117391447,0.003443626763172079
0.2313621,0.050020727135938726,0.0022233547478953813,0.04365629622020512,0.011768265128329562,0.15402482178379015,0.018759838513107942,0.1038226766347095,0.0034598233091494572
0.2318276,0.049875117340372914,0.0022102747707581135,0.04349628211362055,0.01172990419385154,0.15309050685392722,0.018763874071386178,0.10337741866326716,0.0034758944108459937
0.2322931,0.049727125434256995,0.002197455139671034,0.04333283819875827,0.011691351333834513,0.15214588631328302,0.01876681747495501,0.10292588212871943,0.003491835490226407
0.2327586,0.04957678070490142,0.00218489444582278,0.043166015326708544,0.011652618224802602,0.15119120121795013,0.018768675214999985,0.10246819272270548,0.0035076420697356487
0.2332241,0.04942411268240276,0.002172591257152987,0.04299586493797621,0.011613716532660558,0.1502266939192769,0.018769454109326435,0.10200447691650652,0.003523309772780995
0.2336897,0.049269151129637256,0.002160544118991687,0.04282243904201146,0.011574657908651946,0.1492526079791431,0.0187691612970398,0.10153486191832345,0.0035388343241852635
0.2341552,0.04911192603227618,0.0021487515547028895,0.04264579019673444,0.011535453985318573,0.14826918808557904,0.01876780423313689,0.10105947563070726,0.003554211550610715
0.2346207,0.04895246758882888,0.0021372120663321124,0.0424659714880596,0.0114961163724635,0.14727667996875904,0.018765390683010592,0.1005784466081525,0.0035694373809531865
0.2350862,0.04879080620071928,0.002125924135257622,0.04228303650942547,0.01145665665312007,0.1462753303173997,0.018761928716870355,0.10009190401486368,0.0035845078467059907
0.2355517,0.048626972462401184,0.0021148862228451424,0.04209703934133563,0.011417086379529455,0.14526538669559239,0.01875742670408097,0.09959997758270421,0.003599419082293073
0.2360172,0.04846099715151754,0.0021040967711058053,0.04190803453091666,0.011377417069129259,0.14424709746009962,0.01875189330742207,0.09910279756933742,0.0036141673253709348
0.2364828,0.04829291121910835,0.0020935542033570964,0.041716077071498665,0.011337660200555702,0.1432207116781443,0.01874533747727086,0.0986004947165682,0.0036287489170988125
0.2369483,0.048122745779871544,0.0020832569248865726,0.04152122238222408,0.011297827209661942,0.14218647904572,0.018737768445710675,0.09809320020889371,0.0036431603023766254
0.2374138,0.04795053210248097,0.0020732033236181063,0.041323526287690565,0.011257929485555053,0.14114464980645058,0.018729195720567863,0.09758104563227019,0.0036573980300502215
0.2378793,0.04777630159996536,0.0020633917707804108,0.04112304499763358,0.011217978366654188,0.1400954746710267,0.018719629079379723,0.0970641629331033,0.003671458753083494
0.2383448,0.047600085820151995,0.0020538206215775833,0.040919835086654525,0.011177985136772388,0.13903920473724618,0.01870907856329622,0.09654268437746867,0.003685339228696979
0.2388103,0.047421916436178976,0.00204448821586141,0.04071395347400013,0.011137961021224474,0.13797609141068454,0.018697554470918386,0.09601674251056848,0.0036990363184725926
0.2392759,0.04724182523707995,0.00203539287880515,0.040505457403398976,0.01109791718296338,0.13690638632602126,0.018685067352076395,0.09548647011643015,0.003712546988424193
0.2397414,0.04705984411844502,0.002026532921578518,0.04029440442296121,0.011057864718747265,0.13583034126904606,0.01867162800155032,0.09495200017785264,0.0037258683090336626
0.2402069,0.04687600507316219,0.0020179066420235683,0.0400808523651474,0.011017814655339677,0.13474820809936866,0.01865724745273671,0.09441346583660493,0.003738997455252235
0.2406724,0.0466903401822432,0.0020095123253311784,0.03986485932681281,0.010977777945744963,0.13366023867385426,0.018641936971263984,0.0938710003538813,0.003751931706466792
0.2411379,0.046502881605737824,0.0020013482447178185,0.039646483649333236,0.010937765465481154,0.13256668477080608,0.018625708048559567,0.09332473707101825,0.003764668446430902
0.2416034,0.046313661573740374,0.001993412662102287,0.039425783898818983,0.010897788008892483,0.13146779801491568,0.018608572395371645,0.09277480937047684,0.0037772051631604266
0.242069,0.046122712377491576,0.001985703828782112,0.03920281884642345,0.01085785628550364,0.13036382980300054,0.018590541935248117,0.09222135063709534,0.0037895394487935763
0.2425345,0.045930066360579135,0.0019782199861093233,0.038977647448752914,0.010817980916417884,0.12925503123054774,0.018571628797975356,0.09166449421961663,0.0038016689994153524
0.243,0.045735755910239255,0.0019709593661653138,0.038750328828384126,0.01077817243076101,0.12814165301908156,0.01855184531297913,0.09110437339249527,0.003813591614846372
0.2434655,0.04553981344876161,0.001963920192434526,0.03852092225449632,0.01073844126217318,0.1270239454443722,0.01853120400269007,0.09054112131798937,0.0038253051983961205
0.243931,0.04534227142499937,0.0019571006804767017,0.03828948712362415,0.010698797745350519,0.12590215826550158,0.01850971757587602,0.08997487100854211,0.0038368077565807076
0.2443966,0.04514316230598589,0.0019504990385974341,0.03805608294053801,0.01065925211263832,0.12477654065480195,0.018487398920943626,0.08940575528945878,0.0038480973988052
0.2448621,0.0449425185686591,0.001944113468516762,0.037820769299257984,0.010619814490677667,0.12364734112868185,0.018464261099211753,0.08883390676188481,0.0038591723370106227
0.2453276,0.044740372691694626,0.0019379421660355484,0.03758360586420759,0.010580494897107221,0.12251480747935294,0.018440317338159408,0.08825945776609048,0.003870030885285705
0.2457931,0.04453675714744822,0.0019319833216993982,0.03734465235151324,0.010541303237321881,0.12137918670747097,0.01841558102465121,0.0876825403450685,0.0038806714594434534
0.2462586,0.0443317043940082,0.0019262351214598661,0.03710396851045524,0.010502249301289911,0.12024072495570261,0.018390065698143606,0.0871032862084502,0.0038910925765626536
0.2467241,0.04412524686735833,0.0019206957473327263,0.03686161410507594,0.010463342760430093,0.11909966744322947,0.018363785043875223,0.08652182669674696,0.003901292854494396
0.2471897,0.0439174169736518,0.0019153633780530865,0.036617648895950525,0.010424593164550416,0.11795625840119935,0.018336752886044777,0.08593829274592367,0.003911271011333717
0.2476552,0.0437082470815969,0.0019102361897271301,0.03637213262212592,0.010386009938849748,0.11681074100913359,0.01830898318097999,0.08535281485231212,0.003921025864856446
0.2481207,0.04349776951495503,0.0019053123564802712,0.0361251249832333,0.010347602380983803,0.11566335733229915,0.018280490010300958,0.08476552303787242,0.003930556331921331
0.2485862,0.04328601654515188,0.0019005900511014989,0.03587668562177954,0.01030937965819675,0.11451434826005179,0.018251287574081246,0.0841765468158121,0.003939861427837525
0.2490517,0.0430730203840029,0.0018960674456836755,0.035626874105623055,0.010271350804519708,0.11336395344515697,0.01822139018401006,0.08358601515657231,0.003948940265697524
0.2495172,0.04285881317655386,0.0018917427122595461,0.03537574991063926,0.010233524718037366,0.11221241124409426,0.01819081225655885,0.08299405645419147,0.003957792055675661
0.2499828,0.04264342699403787,0.0018876140234331939,0.03512337240358088,0.01019591015822388,0.11105995865834956,0.018159568306155584,0.08240079849305686,0.0039664161042923226
0.2504483,0.042426893826950404,0.0018836795530066776,0.03486980082513794,0.010158515743349236,0.10990683127669962,0.018127672938369938,0.08180636841505415,0.003974811813644029
0.2509138,0.04220924557824364,0.001879937476601569,0.03461509427320258,0.010121349947957242,0.10875326321849263,0.018095140843112596,0.08121089268712545,0.0039829786805996095
0.2513793,0.04199051405664219,0.0018763859722751067,0.03435931168634309,0.01008442110041623,0.10759948707792831,0.018061986787851772,0.08061449706924545,0.003990916295962684
0.2518448,0.041770730970082166,0.0018730232211306712,0.03410251182749183,0.010047737380543641,0.10644573386934059,0.01802822561085009,0.08001730658282508,0.003998624343600677
0.2523103,0.04154992791927584,0.0018698474079222823,0.03384475326785103,0.010011306817305537,0.10529223297348611,0.017993872214424805,0.07941944547955133,0.004006102599540593
0.2527759,0.04132813639140421,0.0018668567216528237,0.03358609437102068,0.009975137286592158,0.1041392120848414,0.017958941558234468,0.07882103721067159,0.004013350931031771
0.2532414,0.04110538775393964,0.001864049356165706,0.03332659327735202,0.009939236509070595,0.10298689715991213,0.017923448652594987,0.07822220439672993,0.004020369295575864
0.2537069,0.040881713248601036,0.0018614235107297,0.033066307888530065,0.009903612048115596,0.10183551236655763,0.01788740855182799,0.07762306879776264,0.00402715773992431
0.2541724,0.040657143985443345,0.001858977390616685,0.03280529585238848,0.009868271307819525,0.10068528003433422,0.017850836347644308,0.07702375128395965,0.004033716399043632
0.2546379,0.040431710937083365,0.0018567092076720857,0.03254361454795946,0.009833221531082464,0.09953642060586079,0.017813747162565292,0.0764243718067982,0.004040045495048921
0.2551034,0.040205444933063265,0.0018546171808777724,0.03228132107076147,0.00979846979778338,0.09838915258921051,0.017776156143384614,0.07582504937065529,0.004046145336105939
0.255569,0.03997837665435326,0.0018526995369072276,0.03201847221832693,0.0097640230230332,0.09724369251133194,0.017738078454673043,0.07522590200490506,0.004052016315302303
0.2560345,0.03975053662799449,0.0018509545106727796,0.03175512447597224,0.009729887955510602,0.09610025487250341,0.017699529272328686,0.07462704673650786,0.00405765890948824
0.2565,0.03952195522188283,0.0018493803458647072,0.03149133400281183,0.009696071175881223,0.0949590521018239,0.017660523777175054,0.07402859956309697,0.004063073678087447
0.2569655,0.039292662639694206,0.0018479752954820112,0.031227156618018073,0.009662579095300924,0.09382029451374391,0.017621077148609263,0.07343067542656993,0.004068261261878552
0.257431,0.03906268891595185,0.0018467376223546394,0.030962647787328688,0.009629417954003709,0.09268419026563922,0.01758120455830263,0.07283338818719066,0.004073222381747737
0.2578966,0.03883206391123558,0.001845665599656934,0.03069786260980294,0.009596593819974778,0.09155094531643024,0.017540921163955857,0.07223685059820939,0.004077957837413067
0.2583621,0.03860081730753344,0.001844757511412073,0.03043285580482795,0.009564112587709186,0.09042076338624926,0.017500242103110967,0.07164117428100678,0.00408246850612113
0.2588276,0.0383689786037357,0.0018440116529872567,0.030167681699376288,0.009531979977056506,0.08929384591715749,0.017459182487022062,0.07104646970076926,0.004086755341316652
0.2592931,0.038136577111271656,0.0018434263315793861,0.029902394215515778,0.009500201532151815,0.08817039203491345,0.01741775739458695,0.07045284614270195,0.004090819371285839
0.2597586,0.03790364194988927,0.001842999866690968,0.029637046858172277,0.009468782620433294,0.0870505985117935,0.017375981866341414,0.06986041168878568,0.004094661697774274
0.2602241,0.03767020204357771,0.0018427305905959683,0.029371692703146296,0.009437728431746641,0.08593465973046475,0.017333870898517914,0.06926927319508479,0.0040982834945803015
0.2606897,0.03743628611663288,0.001842616848795325,0.02910638438538389,0.00940704397753649,0.08482276764890996,0.017291439437170333,0.06867953626961183,0.004101686006124863
0.2611552,0.03720192268986565,0.0018426570004618338,0.02884117408750236,0.009376734090124903,0.08371511176640355,0.017248702372366254,0.06809130525075546,0.004104870545998827
0.2616207,0.03696714007695225,0.0018428494188740946,0.028576113528571163,0.009346803422077098,0.08261187909053704,0.01720567453244813,0.06750468318627764,0.004107838495488817
0.2620862,0.03673196638092633,0.0018431924918392143,0.02831125395314839,0.00931725644565442,0.08151325410529235,0.017162370678364666,0.06691977181288618,0.00411059130208259
0.2625517,0.036496429490811916,0.0018436846221039419,0.02804664612057318,0.009288097452354625,0.08041941874016062,0.017118805498073448,0.0663366715363884,0.004113130477954994
0.2630172,0.03626055707839661,0.0018443242277539132,0.027782340294514398,0.00925933055253948,0.07933055234030408,0.017074993601015952,0.06575548141243148,0.004115457598435535
0.2634828,0.03602437659514406,0.0018451097426006723,0.027518386232776113,0.009230959675149758,0.07824683163775824,0.017030949512665785,0.06517629912783453,0.004117574300458655
0.2639483,0.035787915269244845,0.0018460396165561452,0.027254833177360195,0.009202988567507621,0.07716843072367158,0.016986687669150954,0.06459922098251766,0.004119482280997793
0.2644138,0.03555120010280465,0.0018471123159942376,0.026991729844786542,0.009175420795206495,0.0760955210215791,0.01694222241195088,0.06402434187203188,0.004121183295484365
0.2648793,0.03531425786916876,0.0018483263240992357,0.026729124416671454,0.009148259742088435,0.07502827126170636,0.0168975679826689,0.06345175527069365,0.004122679156212802
0.2653448,0.03507711511038143,0.001849680141200692,0.02646706453056473,0.009121508610309133,0.0739668474563,0.016852738517880942,0.0628815532153277,0.004123971730732783
0.2658103,0.034839798134778985,0.0018511722850944818,0.026205597271045936,0.009095170420490595,0.07291141287598042,0.01680774804406122,0.06231382628962074,0.004125062940229799
0.2662759,0.034602333014715124,0.0018528012913497057,0.025944769161080537,0.009069248011961566,0.0718621280271121,0.016762610472585975,0.06174866360908855,0.004125954757895163
0.2667414,0.03436474558441721,0.001854565713601123,0.025684626153636404,0.009043744043085751,0.07081915063018675,0.01671733959481641,0.06118615280665868,0.004126649207286528
0.2672069,0.03412706143797207,0.0018564641238267955,0.025425213623561232,0.009018660991677804,0.06978263559921412,0.016671949077262254,0.06062638001887014,0.004127148360679965
0.2676724,0.03388930592743999,0.0018584951126106287,0.025166576359721405,0.008994001155507008,0.06875273502211537,0.016626452456827524,0.06006942987269162,0.004127454337414622
0.2681379,0.03365150416109535,0.001860657289389512,0.024908758557402693,0.008969766652888516,0.06772959814211321,0.016580863136140156,0.0595153854729586,0.004127569302230943
0.2686034,0.03341368100179234,0.0018629492826847881,0.02465180381097314,0.008945959423361911,0.06671337134011358,0.01653519437896733,0.05896432839043002,0.004127495463603404
0.269069,0.033175861065453845,0.0018653697403178049,0.024395755106808432,0.008922581228456818,0.06570419811807322,0.016489459305718098,0.0584163386504642,0.0041272350720687155
0.2695345,0.032938068719681565,0.001867917329609349,0.024140654816479878,0.008899633652545218,0.06470221908334757,0.01644367088903498,0.057871494722313475,0.00412679041855041
0.27,0.032700328082485165,0.0018705907375627774,0.02388654469020501,0.008877118103780031,0.06370757193401362,0.016397841949476105,0.057329873509036636,0.00412616383268072
0.2704655,0.03246266302112825,0.0018733886710307057,0.023633465850560812,0.00885503581511951,0.06272039144516253,0.016351985151289335,0.05679155033802793,0.004125357681120647
0.270931,0.03222509715108887,0.0018763098568651273,0.023381458786459437,0.0088333878454369,0.0617408094561567,0.016306112998279918,0.05625659895216106,0.004124374365879097
0.2713966,0.031987653835132294,0.001879353042050853,0.023130563347386158,0.008812175080714796,0.06076895485884645,0.016260237829773087,0.0557250915015466,0.004123216322631969
0.2718621,0.03175035618249387,0.0018825169938221753,0.022880818737899225,0.008791398235323588,0.05980495358674126,0.016214371816673057,0.055197098535900845,0.00412188601904208
0.2723276,0.03151322704816989,0.001885800499762672,0.022632263512391195,0.008771057853383297,0.05884892860513055,0.016168526957619955,0.054672688997524796,0.0041203859530808155
0.2727931,0.03127628903231428,0.0018892023678880672,0.02238493557011126,0.00875115431020814,0.057900999902149065,0.01612271507524623,0.0541519302148911,0.0041187186513523995
0.2732586,0.03103956447973882,0.0018927214267120609,0.022138872150447922,0.00873168781383308,0.05696128448078164,0.016076947812534218,0.05363488789683708,0.004116886667421681
0.2737241,0.030803075479514424,0.0018963565252950478,0.02189410982847151,0.008712658406621585,0.05602989635180198,0.016031236629276517,0.053121626127361446,0.004114892580146327
0.2741897,0.030566843864670807,0.0019001065332756308,0.021650684510735603,0.008694065966953771,0.05510694652763974,0.01598559279864083,0.05261220736102171,0.004112738992014316
0.2746552,0.03033089121199161,0.0019039703408848276,0.021408631431336457,0.008675910210994042,0.05419254301716981,0.015940027403841026,0.05210669241892941,0.0041104285274875686
0.2751207,0.03009523884190187,0.0019079468589428632,0.02116798514822939,0.008658190694537334,0.05328679082141727,0.015894551334915935,0.051605140485339374,0.004107963831352574
0.2755862,0.029859907818444473,0.0019120350188384324,0.02092877953980091,0.008640906814933014,0.052389791930171244,0.015849175285617436,0.05110760910482931,0.004105347567078793
0.2760517,0.029624918949342098,0.0019162337724903148,0.020691047801695204,0.008624057813085477,0.051501645319500564,0.01580390975040923,0.050614154180065735,0.004102582415185626
0.2765172,0.02939029278614106,0.001920542092291242,0.020454822443893537,0.008607642775530494,0.05062244695016354,0.015758765021577564,0.05012482997015209,0.004099671071618672
0.2769828,0.029156049624433113,0.0019249589710339343,0.020220135288045,0.008591660636586331,0.0497522897669044,0.015713751186455103,0.04963968908955484,0.004096616246136028
0.2774483,0.028922209504151086,0.0019294834218192378,0.019987017465046913,0.008576110180578637,0.048891263698628486,0.015668878124758964,0.04915878250760307,0.004093420660705313
0.2779138,0.028688792209934092,0.0019341144779463347,0.019755499412873113,0.008560990044138092,0.048039455659448366,0.015624155506043857,0.048682159548557286,0.0040900870479121
0.2783793,0.028455817271557785,0.001938851192785023,0.019525610874648183,0.008546298718569737,0.04719694955059248,0.015579592787271166,0.04820986789224271,0.004086618149380394
0.2788448,0.02822330396442511,0.001943692639630096,0.019297380896965522,0.008532034552292888,0.046363826263168165,0.015535199210494755,0.047741953575242496,0.004083016714205774
0.2793103,0.02799127131011303,0.0019486379115378838,0.019070837828447075,0.008518195753350478,0.045540163681770135,0.015490983800664205,0.04727846099264607,0.004079285497401773
0.2797759,0.027759738076970793,0.0019536861211450676,0.018846009318542266,0.008504780391986676,0.04472603668892551,0.015446955363546074,0.046819432900347256,0.0040754272583600655
0.2802414,0.02752872278076556,0.001958836400469906,0.01862292231656362,0.008491786403291493,0.04392151717036595,0.015403122483763671,0.04636491041788706,0.004071444759324971
0.2807069,0.027298243685371402,0.001964087900696073,0.01840160307095646,0.008479211589911103,0.043126674021117035,0.01535949352295573,0.04591493303183531,0.0040673407638827696
0.2811724,0.02706831880349808,0.0019694397919393478,0.01818207712879993,0.00846705362482253,0.04234157315239456,0.015316076618054274,0.04546953859970522,0.004063118035466294
0.2816379,0.02683896589745632,0.0019748912629974505,0.017964369335536537,0.008455310054171288,0.041566277499297366,0.015272879679681871,0.04502876335439449,0.0040587793358752575
0.2821034,0.026610202479956824,0.001980441521083364,0.01774850383492726,0.008443978300170461,0.040800847029285554,0.015229910390668327,0.04459264190914619,0.004054327423812725
0.282569,0.02638204581494056,0.0019860897915425202,0.017534504069229233,0.008433055664059655,0.04004533875143301,0.015187176204686811,0.04416120726302245,0.004049765053438169
0.2830345,0.026154512918438226,0.001991835317554273,0.01732239277959277,0.008422539329122219,0.039299806726442614,0.015144684345009252,0.043734490806883616,0.0040450949729375065
0.2835,0.025927620559457142,0.0019976773598181083,0.01711219200667458,0.00841242636375899,0.038564302077412356,0.015102441803380726,0.04331252232986527,0.004040319923110541
0.2839655,0.02570138526089403,0.00200361519622507,0.016903923091463723,0.008402713724616805,0.037838873001340374,0.015060455339012457,0.04289533002634534,0.004035442635976192
0.284431,0.025475823300472336,0.002009648121514905,0.01669760667631694,0.008393398259769909,0.03712356478135661,0.015018731477692981,0.042482940503393476,0.0040304658333959
0.2848966,0.02525095071170273,0.0020157754469194273,0.016493262706199812,0.00838447671195237,0.03641841979966864,0.014977276511016855,0.04207537878869472,0.004025392225715556
0.2853621,0.025026783284865444,0.0020219964997926095,0.016290910430130374,0.008375945721839537,0.035723477551208783,0.01493609649573025,0.041672668338939164,0.004020224510426282
0.2858276,0.024803336568013146,0.0020283106232279087,0.01609056840282181,0.008367801831376502,0.035038774657969465,0.014895197253192747,0.041274831048669414,0.004014965370844351
0.2862931,0.024580625867992742,0.002034717175663321,0.015892254486520808,0.008360041487151564,0.03436434488401352,0.014854584368954683,0.04088188725957712,0.00400961747481051
0.2867586,0.02435866625148479,0.0020412155304746576,0.01569598585303831,0.008352661043812552,0.03370021915114589,0.014814263192449387,0.040493855770240145,0.004004183473408969
0.2872241,0.02413747254605911,0.00204780507555754,0.015501778985969316,0.008345656767523826,0.03304642555523301,0.014774238836799753,0.04011075384629158,0.003998665999706251
0.2876897,0.02391705934124546,0.002054485212898603,0.015309649683098453,0.008339024839461747,0.032402989383155965,0.014734516178738574,0.03973259723101215,0.003993067667510139
0.2881552,0.02369744098961836,0.0020612553581364143,0.01511961305898798,0.00833276135934629,0.0317699331303834,0.014695099858642004,0.03935940015633749,0.003987391070148919
0.2886207,0.02347863160789546,0.0020681149401126,0.014931683547744922,0.008326862349006434,0.031147276519150068,0.014655994280675499,0.03899117535427164,0.003981638779271167
0.2890862,0.023260645078048817,0.0020750634004136725,0.01474587490596398,0.008321323755976896,0.030535036517226888,0.014617203613051456,0.03862793406869841,0.0039758133436663045
0.2895517,0.023043495048428793,0.0020821001929040447,0.014562200215842891,0.00831614145712367,0.029933227357268253,0.014578731788397793,0.03826968606758171,0.0039699172881062115
0.2900172,0.02282719493490011,0.0020892247832506993,0.014380671888466905,0.008311311262295834,0.029341860556722495,0.014540582504236592,0.03791643965554631,0.0039639531122081665
0.2904828,0.02261175792198955,0.002096436648439974,0.014201301667259037,0.008306828918001009,0.028760944938291413,0.014502759223571908,0.037568201686830026,0.003957923289319438
0.2909483,0.022397196964044665,0.002103735276286924,0.014024100631592812,0.008302690111101773,0.028190486650924888,0.014465265175585865,0.03722497757859845,0.003951830265423836
0.2914138,0.022183524786402703,0.0021111201649376982,0.013849079200564215,0.008298890472530377,0.02763048919133676,0.014428103356442014,0.036886771324613044,0.003945676458070558
0.2918793,0.021970753886568634,0.0021185908223653707,0.013676247136919605,0.008295425581019023,0.02708095342602824,0.014391276530194895,0.03655358550924349,0.003939464255325662
0.2923448,0.02175889653540118,0.0021261467658596467,0.013505613551136404,0.00829229096684299,0.02654187761380528,0.014354787229804647,0.03622542132181493,0.003933196014746508
0.2928103,0.021547964778305524,0.002133787521510862,0.01333718690565347,0.008289482115573843,0.02601325742877651,0.014318637758255445,0.03590227857128068,0.003926874062379491
0.2932759,0.021337970436431264,0.002141512623688694,0.01317097501924812,0.00828699447183996,0.02549508598381836,0.014282830189776463,0.035584155701210526,0.003920500691781374
0.2937414,0.02112892510787433,0.002149321614516016,0.01300698507155685,0.008284823443091534,0.02498735385449431,0.014247366371164031,0.03527104980508505,0.003914078163064501
0.2942069,0.020920840168881537,0.002157214043338327,0.012845223607736891,0.00828296440336721,0.02449004910341517,0.014212247923203572,0.03496295664188598,0.0039076087019661475
0.2946724,0.02071372677505658,0.002165189466189215,0.012685696543265828,0.00828141269705944,0.024003157305027716,0.014177476242189808,0.03465987065197261,0.003901094498942253
0.2951379,0.020507595862566372,0.0021732474452523043,0.012528409168876532,0.00828016364267561,0.02352666157081899,0.01414305250154372,0.03436178497323457,0.003894537708285747
0.2956034,0.020302458149346666,0.002181387548320171,0.01237336615562474,0.008279212536591907,0.023060542574923945,0.014108977653524604,0.0340686914575109,0.003887940447269689
0.296069,0.02009832413630603,0.002189609348250676,0.012220571560086674,0.00827855465679686,0.02260477858012451,0.014075252431035452,0.0337805806872656,0.003881304795315403
0.2965345,0.019895204108527378,0.002197912422421187,0.01207002882968414,0.008278185266621446,0.022159345464228257,0.01404187734951981,0.03349744199250953,0.003874632793185785
0.297,0.019693108136466467,0.0022062963521811254,0.011921740808134648,0.00827809961845257,0.02172421674681529,0.014008852708948217,0.0332192634679587,0.003867926442203951
0.2974655,0.019492046077146927,0.0022147607223032936,0.01177570974102399,0.008278292957426703,0.021299363616342246,0.013976178595892215,0.03294603199041898,0.003861187703497359
0.297931,0.019292027575351617,0.00222330512043441,0.011631937281498795,0.008278760525100381,0.020884754957592414,0.01394385488568393,0.03267773323638721,0.0038544184972675553
0.2983966,0.019093062064810505,0.002231929136545285,0.01149042449607647,0.008279497563094249,0.02048035737946118,0.013911881244659021,0.03241435169985875,0.003847620702085658
0.2988621,0.018895158769385422,0.0022406323623810724,0.011351171870569887,0.00828049931670729,0.020086135243066013,0.013880257132480834,0.032155870710331325,0.0038407961542136935
0.2993276,0.018698326704252356,0.002249414390912008,0.011214179316124092,0.008281761038497839,0.019702050690170354,0.0138489818045434,0.03190227245099528,0.0038339466469518636
0.2997931,0.018502574677082245,0.0022582748157850504,0.011079446175362275,0.008283277991827931,0.01932806367191077,0.013818054314450916,0.031653537977100334,0.003827073930011807
0.3002586,0.018307911289221337,0.002267213230776816,0.010946971228638119,0.008285045454367578,0.018964131977816972,0.013787473516571285,0.03140964723448948,0.0038201797089159003
0.3007241,0.01811434493687226,0.0022762292292481997,0.010816752700391587,0.008287058721555463,0.01861021126511429,0.013757238068661335,0.031170579078290808,0.003813265644422593
0.3011897,0.017921883812276884,0.002285322403601065,0.010688788265605145,0.008289313110012566,0.018266255088298395,0.01372734643456128,0.030936311291758615,0.0038063333519777628
0.3016552,0.017730535904901996,0.0022944923447373853,0.010563075056357351,0.008291803960905186,0.01793221492897211,0.013697796886955983,0.030706820605255335,0.0037993844011920603
0.3021207,0.01754030900262864,0.0023037386415212077,0.01043960966847074,0.008294526643253825,0.017608040225934103,0.01366858751020049,0.030482082715365882,0.003792420315344194
0.3025862,0.01735121069294591,0.0023130608802438136,0.010318388168250899,0.008297476557184463,0.017293678405509227,0.013639716203207397,0.03026207230413595,0.003785442570910081
0.3030517,0.01716324836414978,0.0023224586440924533,0.01019940609931362,0.00830064913711881,0.01698907491211008,0.013611180682393467,0.03004676305842582,0.003778452597117797
0.3035172,0.016976429206547572,0.0023319315126230323,0.010082658489496988,0.008304039854900346,0.016694173239019307,0.013582978484683022,0.029836127689371227,0.0037714517755282205
0.3039828,0.01679076021366853,0.0023414790612371447,0.00996813985785532,0.008307644222853057,0.016408914959382043,0.0135551069705656,0.029630137951942737,0.003764441439641279
0.3044483,0.016606248183480863,0.002351100860663865,0.009855844221731823,0.00831145779676999,0.016133239757397645,0.013527563327205339,0.029428764664594993,0.003757422874527702
0.3049138,0.01642289971961558,0.0023607964764467086,0.009745765103906841,0.008315476178828895,0.015867085459700003,0.01350034457159957,0.029231977728997056,0.0037503973164862117
0.3053793,0.016240721232597195,0.0023705654684361907,0.009637895539818584,0.008319695020432316,0.01561038806691541,0.013473447553783999,0.02903974614983515,0.0037433659527261083
0.3058448,0.016059718941081443,0.0023804073902884007,0.009532228084853139,0.008324110024969567,0.015363081785387126,0.013446868960081921,0.028852038054678925,0.003736329921075238
0.3063103,0.01587989887309996,0.00239032178897001,0.009428754821700627,0.008328716950498097,0.015125099059055867,0.013420605316394942,0.028668820713902428,0.0037292903097133883
0.3067759,0.01570126686731175,0.0024003082042701068,0.009327467367774366,0.008333511612341806,0.014896370601485786,0.013394652991532585,0.028490060560650902,0.003722248156931148
0.3072414,0.015523828574261232,0.0024103661683192597,0.009228356882689859,0.008338489885604077,0.014676825428025866,0.013369008200578254,0.02831572321084453,0.003715204450914271
0.3077069,0.01534758945764256,0.0024204952051161783,0.00913141407580046,0.008343647707593469,0.01446639088809721,0.013343667008288946,0.028145773483210415,0.003708160129553597
0.3081724,0.015172554795569672,0.002430694830062354,0.00903662921378655,0.008348981080160222,0.014264992697597227,0.013318625332526066,0.027980175419334286,0.003701116080280526
0.3086379,0.014998729681851593,0.002440964549505042,0.008943992128295,0.008354486071941836,0.014072554971412243,0.013293878947714765,0.02781889230372384,0.0036940731399280565
0.3091034,0.014826119027272289,0.002451303860288937,0.008853492223625723,0.008360158820516009,0.01388900025603056,0.013269423488329213,0.02766188668387594,0.003687032094617367
0.309569,0.014654727560874334,0.0024617122493168775,0.008765118484462002,0.008365995534459266,0.013714249562248437,0.013245254452401293,0.027509120390340362,0.0036799936796699097
0.3100345,0.014484559831245544,0.0024721891931199034,0.008678859483641273,0.008371992495309576,0.013548222397961857,0.013221367205050157,0.027360554556773067,0.0036729585795449798
0.3105,0.014315620207807678,0.002482734157436969,0.008594703389962965,0.008378146059431385,0.013390836801037342,0.013197756982030068,0.027216149639972126,0.0036659274278027392
0.3109655,0.01414791288210627,0.002493346596804601,0.008512637976029913,0.00838445265978164,0.013242009372255384,0.013174418893294093,0.027075865439889584,0.0036589008070926367
0.311431,0.013981441869100665,0.0025040259541567844,0.008432650626119857,0.008390908807575651,0.013101655308320397,0.013151347926571272,0.026939661119612317,0.0036518792491671754
0.3118966,0.013816211008453363,0.002514771660435346,0.008354728344083497,0.008397511093851964,0.012969688434931417,0.013128538950955193,0.026807495225305043,0.0036448632349209724
0.3123621,0.01365222396581778,0.002525583134211078,0.008278857761265492,0.008404256190935698,0.012846021239907858,0.013105986720502236,0.026679325706108464,0.003637853194455023
0.3128276,0.013489484234123616,0.0025364597813158636,0.008205025144444838,0.008411140853800124,0.012730564906364922,0.013083685877837987,0.026555109933985507,0.0036308495071661036
0.3132931,0.013327995134859024,0.002547400994486023,0.008133216403791053,0.008418161921326455,0.012623229345933159,0.013061630957770668,0.026434804723508717,0.0036238525018612113
0.3137586,0.013167759819348724,0.0025584061530171142,0.008063417100832668,0.008425316317462002,0.012523923232016742,0.013039816390910456,0.026318366351581836,0.0036168624568969437
0.3142241,0.013008781270027199,0.0025694746224304075,0.007995612456434504,0.008432601052276915,0.012432554033084915,0.013018236507293666,0.02620575057708862,0.0036098796003437026
0.3146897,0.012851062301706045,0.0025806057541512663,0.0079297873587803,0.008440013222919866,0.012349028045991018,0.012996885540010685,0.026096912660462115,0.0036029041101745857
0.3151552,0.01269460556283446,0.0025917988851996677,0.007865926371357343,0.008447550014473016,0.012273250429313425,0.012975757628836517,0.025991807383167698,0.0035959361144787916
0.3156207,0.012539413536751792,0.0026030533378931064,0.0078040137409397265,0.008455208700706653,0.012205125236712654,0.01295484682386266,0.02589038906709337,0.0035889756916993487
0.3160862,0.012385488542930987,0.0026143684195621326,0.007744033405566985,0.008462986644733956,0.012144555450298933,0.012934147089129102,0.025792611593841074,0.003582022870894948
0.3165517,0.012232832738211796,0.002625743422278756,0.007685969002514875,0.008470881299566434,0.01209144301400451,0.01291365230625515,0.025698428423913053,0.0035750776320256287
0.3170172,0.012081448118022605,0.0026371776225979694,0.007629803876255161,0.008478890208570757,0.012045688866954993,0.012893356278067798,0.025607792615787512,0.003568139906262041
0.3174828,0.011931336517589805,0.002648670281312602,0.00757552108640126,0.008487011005827877,0.012007192976834174,0.012873252732226318,0.025520656844878205,0.00356120957631797
0.3179483,0.011782499613133778,0.0026602206432217185,0.007523103415636652,0.008495241416395431,0.011975854373236753,0.012853335324841649,0.02543697342237282,0.0035542864768058017
0.3184138,0.011634938923050604,0.00267182793691276,0.007472533377622924,0.00850357925647455,0.011951571181003524,0.012833597644089131,0.02535669431394504,0.003547370394614555
