Time,Rectus Femoris right,Rectus Femoris left,Hamstrings right,Hamstrings left,TibilaisÂ Anterior right,TibilaisÂ Anterior left,Gastrocnemius right,Gastrocnemius left
0.0,0.0169528,-0.0022564996342032536,-0.01986256436475328,-0.040899176779440154,0.06589046613039537,-0.004345362629256074,0.004531731831652333,-0.018370178910878988
0.0004655,0.01698035617909875,-0.007129805611888763,-0.007122361044622807,-0.044562668537296256,0.05331098014912905,-0.0060901235819750274,0.010371555044678774,-0.017693086343460448
0.000931,0.01738244960581358,-0.010020537007266978,0.005825712640242502,-0.045416637795639814,0.03841115433605059,-0.012628798423254331,0.015915336218894145,-0.01863955900917295
0.0013966,0.0186313,-0.011768355263429755,0.014806298095013026,-0.04410649742051116,0.023446559073403705,-0.017837634586776865,0.020187526639406192,-0.021247985286100408
0.0018621,0.018797466273058748,-0.013973041568264687,0.020855927796284725,-0.037910929428089074,0.008567034907765005,-0.01914663608858876,0.01981402113578504,-0.025335097638352493
0.0023276,0.01850065421421932,-0.018044233129477692,0.0325200767663793,-0.03417532807373959,-0.006506459520179725,-0.021413865723220068,0.020120725813738197,-0.026465852420059444
0.0027931,0.019877451403298222,-0.02848435376761354,0.03596016587856156,-0.031209671491754448,-0.022792611840408823,-0.021138771491754447,0.011351391408468746,-0.027112769560304138
0.0032586,0.020384955656458113,-0.03888819095739135,0.03266138823302226,-0.029940910858854714,-0.030912604302010725,-0.019870010858854713,-0.0046349169771115,-0.027747187671232194
0.0037241,0.020037600621842802,-0.058095673453142295,0.0270720451813201,-0.027362403614738875,-0.03532852048157641,-0.0196384,-0.032488886705240964,-0.029036448192630564
0.0041897,0.02083227718024852,-0.07375223155110287,0.02206149931146519,-0.024735227519337277,-0.03804037248066273,-0.020782636240331363,-0.04781593625068867,-0.030206964103936043
0.0046552,0.02266494321416737,-0.07614111966088637,0.01469168252067984,-0.02463176019595926,-0.04621654757729979,-0.02143235485303056,-0.033396667720454166,-0.03219572475505093
0.0051207,0.024851253201221342,-0.06876944116627605,0.0024157909650845233,-0.02195008340039717,-0.058975608667358445,-0.02167807583570982,0.008234727462225045,-0.03409887773306855
0.0055862,0.02533299572353466,-0.0578489553133911,-0.0027232105475214047,-0.020022921953637505,-0.06202689978535132,-0.022962754454796407,0.04260234425068596,-0.03538365203090833
0.0060517,0.025966647778576633,-0.04982326890007285,0.003145057757007567,-0.019674386671459793,-0.05168171713739011,-0.02530921332854021,0.058690307563585696,-0.04339295620552948
0.0065172,0.025640027014278182,-0.04725335450026357,0.008939592746577367,-0.0182051379143309,-0.04190868125876939,-0.026533224171338205,0.05570818935571965,-0.050452289903637385
0.0069828,0.024687803412973233,-0.035282395682995855,0.009826769367744312,-0.015636083717054834,-0.02638707828940644,-0.03023289227002262,0.030307757689457128,-0.05808189144703221
0.0074483,0.02324789655120412,-0.02552785029931026,-0.009017368968377341,-0.015478772417173221,-0.013979624134030897,-0.030815946850514375,-0.022904571697089118,-0.04958938549227264
0.0079138,0.021924371163405502,-0.02276024209026618,-0.039019281897158566,-0.012867323642286894,-0.005017046206862786,-0.03098826549600825,-0.08166582653028204,-0.029094976357713107
0.0083793,0.022011847388261417,-0.019284932011533897,-0.06307822451181672,-0.008903910908162912,-0.00028411322636063576,-0.028440339427335655,-0.10795171314244521,-0.0183625869414702
0.0088448,0.02211529528931451,-0.013731058992012705,-0.06635895904964825,-0.007025322694710898,0.0005221538231511738,-0.025643121191257712,-0.09735832348213792,-0.02999077926691833
0.0093103,0.022854629229663644,-0.003692933806268222,-0.06551870528600691,-0.006433443183284741,0.0033555393160824946,-0.019469698581195335,-0.055500360907724866,-0.0454991786803566
0.0097759,0.025027944744064775,0.010934605428747555,-0.05891938832988533,-0.0042195238588825885,0.010742890784932483,-0.01561,-0.0003945856501512346,-0.04848888354072874
0.0102414,0.024220487064750388,0.025649746887210084,-0.06014368775921015,-0.00014886604803952363,0.02492295057957677,-0.010384197686854746,0.062133693300028305,-0.036284857966578266
0.0107069,0.020492526131263594,0.03308212560338538,-0.06996144879322924,0.0022843360508122087,0.052874748516593614,-0.005860760321805536,0.08685525511078863,-0.031394819839097234
0.0111724,0.01976378484862312,0.02859555096413705,-0.0772815459581376,0.0017396509641370483,0.06748629841323107,-0.004071380279941351,0.07063177984262367,-0.03292273652489374
0.0116379,0.016476226751512786,0.022507319864606506,-0.09669210873123006,-0.0012888464969744297,0.08686500575745167,0.0007852464969744298,0.012662710561744447,-0.03519788737973436
0.0121034,0.015743851483152906,0.030441348911235382,-0.11158366646667464,-0.002753597033694186,0.08906205884132504,0.0022499970336941856,-0.028838409202902763,-0.03580816374276445
0.012569,0.015162463328505278,0.060308817485023945,-0.12570788435575572,-0.0050355,0.07131348351745193,0.0027291411444337788,-0.10115035989933303,-0.03672778844260797
0.0130345,0.014518388893048451,0.06533768210302053,-0.11909144940614157,-0.005790198962285547,0.047061402572200595,0.002835381606248849,-0.13922749875204865,-0.0378337048578664
0.0135,0.014911313753684992,0.029644447659799893,-0.09686919238892959,-0.005281438661503927,0.018411563263126183,-0.002022278179070311,-0.11083104381053967,-0.03745374535398429
0.0139655,0.013465907360785546,0.00042117828183653726,-0.0781043291909454,-0.003264563448269051,-0.01158800699659237,-0.001887917241345256,-0.054592161880874034,-0.03827673697192232
0.014431,0.015202436075828402,-0.010250609810428996,-0.054628768829386096,-0.003776826265399406,-0.046358149636523474,-0.0038411028806026155,-0.010334293369131312,-0.03872540822748521
0.0148966,0.016405227064854127,-0.0073688378108184805,-0.028094091940526734,-0.006270935124327391,-0.07279977024865478,-0.005724084785160772,0.032819351682412165,-0.03728181900538086
0.0153621,0.017659133994181567,-0.005696202973817056,-0.005486599008727648,-0.013779200867874875,-0.0896249174727099,-0.007780270962180192,0.07745602209891335,-0.035910969103032965
0.0158276,0.017387391539862934,-0.007652091539862937,0.003641885960669556,-0.017877485473729558,-0.10337392481229828,-0.010100883079725875,0.09055216593637865,-0.0357519
0.0162931,0.01833842249808275,-0.008538895129048896,-0.007486639611529144,-0.016585325152055908,-0.11418371249041374,-0.012217057486579244,0.061176263384900856,-0.0357519
0.0167586,0.01888908531794528,-0.008456939930287682,-0.027523243121369813,-0.012322900924794343,-0.11375768713346521,-0.014524985317945282,0.022588637629931137,-0.03480668716753397
0.0172241,0.017575403415013787,-0.009827622614453881,-0.0595512268796923,-0.010076160865966324,-0.11023269749980405,-0.0193573242321286,0.002279583480420205,-0.03405713124182052
0.0176897,0.01703177808463206,-0.01253724706376566,-0.07961380161651489,-0.00841817646811717,-0.1030655676384101,-0.02313742353188283,0.0031180382340585846,-0.03411868529782425
0.0181552,0.0162814,-0.014875328263959355,-0.07919939255667854,-0.007154228263959354,-0.09865229421319785,-0.024359190578680218,0.0023278910744454384,-0.03605679190270509
0.0186207,0.016350094607407942,-0.013794102599458737,-0.0673859271856879,-0.0064027563607577664,-0.09616570752259805,-0.02453640259945874,-0.00020123390453460595,-0.03775830240578415
0.0190862,0.016584914127930495,-0.012717443488278014,-0.0581056185458766,-0.006362202270120734,-0.08640086657439608,-0.02528082825586099,0.008298319297673424,-0.03961937063965248
0.0195517,0.017362711470008268,-0.013154046576087718,-0.05831080667277368,-0.007178645880033081,-0.061816210986578454,-0.024864581198737346,0.026679131876005013,-0.038981710077898996
0.0200172,0.018432163444737467,-0.012674026904613979,-0.07058217465111752,-0.009169126889474936,-0.027148712034614567,-0.02383738092936394,0.04065653838707221,-0.03475621722368734
0.0204828,0.019165337549303392,-0.011329837979313095,-0.08365707644894645,-0.010635475098606783,-0.00979699769374778,-0.021149148679815606,0.04175626314365773,-0.03842208774651696
0.0209483,0.018592538272708986,-0.008609767887491975,-0.1079271,-0.010107609467606865,0.0009644273263752646,-0.017015412775012773,0.02170206611114225,-0.05113138722498723
0.0214138,0.018062752989921875,-0.0062772176265557846,-0.11966162566798741,-0.006373783917136745,-0.0009119724037067916,-0.01563711580850451,-0.012020497522976716,-0.05074949223292712
0.0218793,0.017999995032198502,-0.007633390064397002,-0.11219124599815353,-0.003925750321985008,-0.005138049678014992,-0.014199543552350914,-0.04298080079636257,-0.0414391241188412
0.0223448,0.017951688580003407,-0.006256951981009737,-0.07483527998614833,-0.0023293176979338626,-0.0066556343061619705,-0.014107840004617218,-0.043934649642005844,-0.03308328000923444
0.0228103,0.01875299684774144,-0.006939607769972296,-0.03005108493301759,-0.0012174945311231337,-0.0022306794641407243,-0.014962939732070362,0.0036714018281332477,-0.03128739951151494
0.0232759,0.020370120953290112,-0.011187683517048711,0.007673944574613362,-0.002759527855097242,0.0095896221151293,-0.01615600777883847,0.06770589611058077,-0.03067127568996723
0.0237414,0.02149817514832665,-0.013414511350880296,0.03480698703067771,-0.003615444324559852,0.03908643489566307,-0.021751663257965688,0.12153469515268392,-0.032149844324559855
0.0242069,0.02248975087493588,-0.012273587958578814,0.04233666709445919,-0.0029712225974049596,0.06652745811946019,-0.026451241542765833,0.13353274581360466,-0.03263795418639533
0.0246724,0.023639020412760513,-0.010947106116319315,0.0359733366979159,-0.005828567354600855,0.09736141513126016,-0.03125862859288239,0.10340473517845473,-0.03468944082552103
0.0251379,0.023248064031517624,-0.0109102,0.010790095842732609,-0.008387254791471387,0.12469422019198084,-0.03147952668609382,0.03712920614326685,-0.03579090512512116
0.0256034,0.02375631466913471,-0.012186116516955703,-0.013635886984102334,-0.009024407106631323,0.1296826023559507,-0.03202575825847785,-0.02493190596152397,-0.036553692945626305
0.026069,0.022985791600878446,-0.01572512218882471,-0.035507347768193157,-0.008991903396163169,0.10434002238825577,-0.030514964754628438,-0.07904752685748888,-0.035617635245371565
0.0265345,0.022284414786129185,-0.017211729396713085,-0.040976960292866196,-0.010050975254540663,0.05855265442304488,-0.026931989935342678,-0.10784939090814684,-0.03357094991222736
0.027,0.021092030139838833,-0.016121937405873088,-0.026051857514720868,-0.010420060054423889,0.007860728034165976,-0.024322677045240066,-0.10620499019426272,-0.03232384415692182
0.0274655,0.01969361984158119,-0.017055418315305715,-0.007768726547369223,-0.010570589316071665,-0.035840331833914704,-0.016913222894132142,-0.0907707476973556,-0.031944621559264585
0.027931,0.019773002175181766,-0.013963896396460932,0.010603031310945187,-0.012696381740145413,-0.0843538661601378,-0.012655195649636467,-0.08125561986507951,-0.030944418259854587
0.0283966,0.021139714472367413,-0.00918044406862267,0.017709935256310556,-0.01378975157789393,-0.11086792187629335,-0.009921771055265172,-0.06608515407863033,-0.02985104842210607
0.0288621,0.022467213916344975,-0.0038520973318586097,0.02154588228381821,-0.014193456392324779,-0.12526827961567683,-0.007070027427939404,-0.03399779063001734,-0.028169869903919204
0.0293276,0.02233565144051127,-0.0019167876458540767,0.01790968531218885,-0.013693112354145925,-0.12026067412487554,-0.006257391763902717,-0.015428790597070103,-0.02688272470829185
0.0297931,0.0224918,-0.0034118204970552592,0.002909123091872481,-0.012932302125834044,-0.11329666051987064,-0.00651986386941046,-0.008125972946734799,-0.024926771037473296
0.0302586,0.02325578201779489,-0.005253447811183667,-0.021870547811183666,-0.013024695622367334,-0.11797292609440817,-0.010887923819897918,-0.009216365321714333,-0.02564328914161225
0.0307241,0.023667069105229675,-0.007030639253854092,-0.03864110435787425,-0.013483314447082782,-0.12456186206002065,-0.01568604298458363,-0.008896,-0.026501508359083766
0.0311897,0.0226268378807169,-0.007921662119283104,-0.03565213243651043,-0.014522060414014267,-0.12127926552982078,-0.017780774056164957,-0.005024174056164957,-0.02694796552982078
0.0316552,0.021250802690352632,-0.009689232856382693,-0.02563163914148885,-0.014932112570212309,-0.10060778456808385,-0.018817286628686127,-0.0012623776532273388,-0.025595353142553078
0.0321207,0.019825071328853007,-0.013014029112190625,-0.02735569344776412,-0.014192640719708117,-0.06743955809077112,-0.020033494503674757,-0.004430076517744752,-0.023687382187893367
0.0325862,0.019147441068545285,-0.017143982444893437,-0.03196523166122044,-0.010491546081635033,-0.028265401567345985,-0.017577169595073754,-0.005437901567345986,-0.023919446081635033
0.0330517,0.019529663982587313,-0.018114028813930146,-0.03257591121141376,-0.005933863982587314,0.008777772034825373,-0.015447399187620097,-0.004110167141763012,-0.02465584957562224
0.0335172,0.020009306616568894,-0.01624619338343111,-0.037004203929624974,-0.004266613233137788,0.03756750979472728,-0.011741266917155529,-0.0002841272177421642,-0.025751313233137788
0.0339828,0.018926003101067942,-0.015277660117756938,-0.04055465164095466,-0.005416354153237918,0.04783452280457261,-0.011574879764486125,0.002329408657643659,-0.02668631994112153
0.0344483,0.020596402028393336,-0.01908175912777,-0.046535661617779195,-0.006063106085180001,0.044513133681888375,-0.007250034787049997,0.004773696404829189,-0.025525370836514148
0.0349138,0.021395836616283012,-0.023864176116590637,-0.05640458805572622,-0.005554801153609847,0.038074804815957944,-0.003470832377129989,0.007422865320788512,-0.02533401734217484
0.0353793,0.025095598875821284,-0.032514113828060236,-0.07130940803820883,-0.0011417870206506633,0.0315811066918173,-0.0014145676249518403,0.010614237942686747,-0.02297874351032533
0.0358448,0.027373261434762423,-0.036740609977512315,-0.07611046154360562,-0.0003218385652375763,0.029345889767427958,0.001082712126833345,0.011157377494378078,-0.02207680986866912
0.0363103,0.029269961901305246,-0.0384375,-0.07067969854482316,0.0004905490966927466,0.02477804615004414,0.00324040327993881,0.012510971425978934,-0.02211723957201906
0.0367759,0.0293736,-0.034000445652406994,-0.04416324666208429,-0.0007641354041689295,0.02149518889741928,0.0024062026398014975,0.011954835093201,-0.022948383928784215
0.0372414,0.028518019966812934,-0.024377759721900205,-0.010449325689407709,-0.00467665330134225,0.03331650190633561,-0.00049031892437583,0.00291265520767786,-0.02411426024491273
0.0377069,0.030319513447409904,-0.020506062762637715,0.023056933960126546,-0.0062104,0.05500548430934057,-0.002274213417189382,-0.012666178453297148,-0.023843759352432648
0.0381724,0.030483353653707267,-0.016258245095389975,0.05382944317297525,-0.008966681922158048,0.05838225807792751,-0.0018571743910487887,-0.02089139586590295,-0.021825838815183473
0.0386379,0.029298051224415325,-0.010884831563480349,0.07508251145749596,-0.010925306154126678,0.04765894672008267,-0.0018765213107289984,-0.012205628708941714,-0.021682821310729
0.0391034,0.028509326023735744,-0.005313359108355853,0.08204628486040101,-0.010969359380046442,0.04188089864154706,-0.0022488572981089077,0.0026151589282524413,-0.0219883
0.039569,0.02809758518500638,-0.0016081003572883468,0.0760080187953656,-0.009185367104217473,0.03227456626535436,-0.0033467238553880727,0.015240624336962837,-0.0219883
0.0400345,0.026827624493027304,0.002231451207781428,0.06194221768720947,-0.007293129933723123,0.00046859560974502393,-0.0056728068058178325,0.031236540132553756,-0.02261478436047355
0.0405,0.025487238241324647,0.0039210035518749825,0.05339298436859256,-0.008482044312400926,-0.03732550949771107,-0.004487513049586047,0.0389191958064108,-0.021625967829751628
0.0409655,0.024854218740092474,0.005764404466277619,0.0508583,-0.010338979762790051,-0.062096487198227815,-4.7686912234883136e-05,0.036591398216889594,-0.020906065177907458
0.041431,0.02515690927996639,0.00826548144006722,0.05168379196781178,-0.011522636288013444,-0.06988658094230399,0.003790136703939501,0.02463670695145449,-0.019811945400935397
0.0418966,0.025589316615700086,0.009430024923550127,0.054337199694200505,-0.0115816,-0.07003889169214995,0.004394524923550127,0.01618270655884405,-0.01968419169214996
0.0423621,0.026702926133863707,0.004924709461374277,0.06007880417695625,-0.011049496751256256,-0.06480586137060311,0.006486401392318748,0.008500601392318747,-0.018177448839734378
0.0428276,0.027959393241264317,-0.0009713220009432159,0.059436605110309,-0.012538644052759413,-0.055293947489205235,0.00806400508487251,0.006853235594724059,-0.01811699997456351
0.0432931,0.02746632203606319,-0.004353186247457578,0.053718176883051,-0.015793150622033843,-0.04860862062881363,0.003956291553297362,0.006598428749152526,-0.019871614833428232
0.0437586,0.030376372962585402,-0.005509100565892367,0.04936712166836569,-0.01723734254549398,-0.04709790139030474,-0.0014295431113863467,0.007174996620323175,-0.020305472962585402
0.0442241,0.03979325689658364,-0.006481315517081782,0.03901584696123038,-0.020335713793167287,-0.034056909029557506,-0.010665198276085506,0.006533143103416356,-0.020296843103416357
0.0446897,0.04020519539627841,-0.005224381585113643,0.0197778701281875,-0.020722533350792608,-0.008587058618883522,-0.012879802301860796,0.005684149818954584,-0.019920582762232956
0.0451552,0.02624841715904677,-0.0023287995014546576,-0.01193589329555754,-0.021255661931744614,0.007132210454604308,-0.011642838068255385,0.00400074285656242,-0.020010731903412772
0.0456207,0.008588204567937801,-0.0006553805979888239,-0.04428721189102719,-0.022885380410094216,-0.003469463456497583,-0.010210050247315822,0.006391783847772052,-0.021329530350673
0.0460862,-0.006223340663375159,-0.0005968191813693399,-0.07818531243814567,-0.02436920639378978,-0.019962395335144337,-0.01196714475652846,0.01082335115031824,-0.022050503521450934
0.0465517,-0.01365768744331381,-0.0016328145738856348,-0.1032402029598255,-0.02471453819129521,-0.031175874886627618,-0.015015915371790652,0.01321936180870479,-0.022863290956476056
0.0470172,-0.016861929822355737,-0.0028231099407852456,-0.1182680589711432,-0.02500192748519631,-0.036928104674318854,-0.016232177525906676,0.013752242355663816,-0.023643982455588932
0.0474828,-0.018600360450106098,-0.0024565934083510157,-0.11916651196236565,-0.024989131136117004,-0.04106122090021219,-0.021194297528842946,0.012944768863882995,-0.024236255680585028
0.0479483,-0.014069964423988881,-0.0009873763824965252,-0.09922952525054722,-0.02562162944700139,-0.03995811165899583,-0.027467738574418032,0.01170014110599722,-0.024491177947797933
0.0484138,0.0012098230819794543,0.00016804398878754332,-0.05419157519746785,-0.026567718030549293,-0.03419344511848071,-0.02973397934422968,0.010334883464978569,-0.021988917690727538
0.0488793,0.014437943965590394,-0.0008761179114058324,-0.007158684335543743,-0.026130795280888165,-0.027042158955702916,-0.02808038893592796,0.005745487310079587,-0.021707974117785588
0.0493448,0.02201070141760774,-0.002202558895365533,0.029991676703838024,-0.024587701326712202,-0.008380134472023851,-0.02517318976952675,-0.0016661454483532278,-0.023208240905101967
0.0498103,0.027904320840168174,-0.002490574568598076,0.044719410401956206,-0.02435320217989077,0.024997461950495334,-0.026278561834769232,-0.01102006711173827,-0.026249896939177498
0.0502759,0.03238473435006465,-0.001253238350474088,0.020081513979431094,-0.024593784975208092,0.07070031024320589,-0.02575251490301625,-0.008221241067968841,-0.026088131632569893
0.0507414,0.03869458150531316,-0.004084859738504483,-0.041454695288795806,-0.022345226221659038,0.13185995155477206,-0.022937161246388484,-0.00043144000514168867,-0.02654225875618236
0.0512069,0.048773097482403646,-0.004906814441837577,-0.11097809670326922,-0.0223239,0.18633720756597416,-0.022314099309889267,0.00399775054643152,-0.027685296389540606
0.0516724,0.05671687981978927,-0.006083671084413225,-0.15216781626744671,-0.0223239,0.18707269914658892,-0.02201997279123542,0.008116748795446289,-0.027391082228896694
0.0521379,0.05808622359675512,-0.007840028012786071,-0.19398908586432093,-0.02397524889599226,0.13693751558345926,-0.025626597791984524,0.007823737350381428,-0.029016179116793807
0.0526034,0.04151574783814917,-0.009614183677066967,-0.22936454922909003,-0.025511309751305427,0.0645351174709055,-0.03162171722398847,0.0036733664530784996,-0.03005279727951116
0.053069,0.014663234607133736,-0.008846937267810327,-0.2506479627321897,-0.02299761510574145,-0.00506121564100889,-0.0350805,0.001968956830474182,-0.03003886898535789
0.0535345,-0.0033325871804110807,-0.007713334217806801,-0.2517815657821932,-0.01917174702239994,-0.05607318404948603,-0.0350805,0.004802964455482999,-0.029897210814527838
0.054,-0.019059621939339664,-0.007786836475713035,-0.22739233641648776,-0.015086936093424364,-0.11836441729837144,-0.03718733353880723,0.01217040038228867,-0.03075533941261884
0.0544655,-0.022015310940010906,-0.009399074136210248,-0.19581946896377778,-0.014952622976836421,-0.14174178333200738,-0.04014310258305212,0.013916951159373827,-0.031024045689368375
0.054931,-0.014415621174399883,-0.009401815438169769,-0.14949707209599997,-0.015117368838399987,-0.14107423611886027,-0.04273830240776984,0.008970409843660236,-0.030498398371200008
0.0553966,-0.007611885803595644,-0.008442079132999696,-0.1375323651570556,-0.014986927096675711,-0.13163224237443477,-0.043135962359594,0.00492369612686566,-0.030955445806648576
0.0558621,-0.0031940689338055173,-0.0067173408247119615,-0.1462739641531188,-0.013790534992610253,-0.1266525682766786,-0.04746271442416031,-0.00976346449805778,-0.03157575334318633
0.0563276,-0.005713626968425213,-0.005767239712569829,-0.15117824305984634,-0.012534969856284914,-0.12927702104783514,-0.05072397464071229,-0.021102315618446325,-0.033146895215572625
0.0567931,-0.007555037398827133,-0.004634090028346513,-0.14352948269133894,-0.011968395014173256,-0.11369621288976456,-0.04930753753543314,-0.029459252346054253,-0.03399675747874011
0.0572586,-0.00924177264009482,-0.003526479273430563,-0.13163747077216392,-0.012249642453301728,-0.06292162277687822,-0.04495506135314611,-0.03846771792028445,-0.03507714245330173
0.0577241,-0.010131440134235826,-0.0036748013588900758,-0.12066490501109146,-0.011953086621921391,-0.03133855924418045,-0.04243438095618259,-0.04113672040270748,-0.03478058662192139
0.0581897,-0.01070853359314556,-0.0058877337490328965,-0.10399731643418329,-0.011366899844112663,-0.033447249403779494,-0.04217766016568334,-0.034302365939192433,-0.035671233437258226
0.0586552,-0.006844674987274118,-0.0081261996109821,-0.07140727338595494,-0.013003125001413988,-0.03951847458694432,-0.04276223749929301,-0.016762699960408366,-0.037321549613810075
0.0591207,-0.002590054024446023,-0.007616708295512109,-0.04310900532349055,-0.013067087824761132,-0.028349725216507422,-0.04206936586857085,-0.0004321560876194341,-0.037160287247027024
0.0595862,0.006061129319654276,-0.008764026258514726,-0.012076501530569774,-0.012281032924384311,-0.005901927789084501,-0.03903714748297055,0.011571678978025987,-0.036594032823143406
0.0600517,0.011445923688712844,-0.011017523409433667,0.017307395455524763,-0.009949946818867333,0.005000688610091101,-0.0329083492662733,0.02049689699403568,-0.03643960775432871
0.0605172,0.016152344737981276,-0.01288855131610591,0.039971329771576344,-0.009585325409825625,0.002582227631009363,-0.030466736841345817,0.027251853948317726,-0.037737421052884725
0.0609828,0.02276100746262119,-0.014621418165319663,0.047394189089688836,-0.011110185565990931,-0.004424789089688829,-0.027603685981216323,0.02242257810336974,-0.03900032845279275
0.0614483,0.030934530612100743,-0.015054043367437035,0.04131768482139704,-0.011498206505115554,-0.008260910194034563,-0.02521047116334123,0.007981936229495312,-0.03934730344902272
0.0619138,0.03502612720102739,-0.014868268199743151,0.031512504599229454,-0.01106628152508877,0.0012936428972222405,-0.024642430057737176,-0.012417555594238301,-0.04003015725876457
0.0623793,0.03937881592056758,-0.013888241719959457,0.028615683439918917,-0.010823683439918918,0.024076757001013537,-0.021534081616577584,-0.020278701279027006,-0.041058206136942464
0.0628448,0.0430488297738415,-0.01362485114288682,0.027112732650635067,-0.010157451953444066,0.031242537362033276,-0.01869001068452266,-0.012783636331938703,-0.0407996260864907
0.0633103,0.04474954701344556,-0.0135958,0.03026492365151986,-0.00960047895670861,0.020855597858829296,-0.017665546232454372,0.001740349444210428,-0.03918332518916299
0.0637759,0.04014233263895904,-0.0092991671006506,0.043331891514772285,-0.01063497506509759,0.005262963318343008,-0.01686598629107145,0.015894848239041384,-0.038340157245049813
0.0642414,0.03528309972878843,0.0037944245239439857,0.06059739864107062,-0.01149188337853526,-0.0008227814771827522,-0.013529249864394218,0.022106351955173652,-0.039034131694573176
0.0647069,0.03321872103409464,0.01441418556658749,0.07452052700352033,-0.012239345976149589,-0.018026053825689736,-0.01041481855634326,0.014305314017126505,-0.04444016104081854
0.0651724,0.0343878476681709,0.0146029,0.07576286119283453,-0.011099252331829101,-0.039986083946396044,-0.008812378119138207,0.007260725496409198,-0.051003987271043535
0.0656379,0.036325673274672496,0.010813891238209597,0.06493811044440988,-0.008578502300436676,-0.04519956096978224,-0.007102988937772923,0.007522023367117334,-0.05757099521423696
0.0661034,0.03957919659287416,0.005300300057305731,0.036827881260807854,-0.006647838926841008,-0.008590001760868653,-0.006615772742993251,0.019016677228353884,-0.05835593665525568
0.066569,0.042342142443483735,0.005706784137876353,0.009325320609159063,-0.008058546644485905,0.019567713898130872,-0.0031078699667288576,0.023723021368514133,-0.05683728040268472
0.0670345,0.041678340388764744,0.00612792893377204,-0.005114789117456953,-0.010108703983805175,0.021069366385867424,0.00166800024821141,0.013534238645073566,-0.03408700211600829
0.0675,0.028079304099152724,0.005430669576591561,0.00013293720377333172,-0.009191076091221837,0.015132114302400803,0.0065461,-0.006765593419968246,0.0014998912702253154
0.0679655,0.013696277214660315,0.00158453264195697,0.01174524162053534,-0.008105642577819915,0.010024535096205585,0.006189227733459743,-0.01759496336827617,0.009370489565149043
0.068431,0.0014666864518678067,9.657871532783087e-05,0.0296714186499737,-0.00975621807438178,0.01864172695932553,0.005014481925618219,-0.025947364865481427,-0.016499392400398882
0.0688966,-0.01006527037990602,-0.0009481137802333877,0.040420583101255875,-0.013232230678977514,0.02813971378023339,0.005921379982745135,-0.03201013797488252,-0.04646966898744126
0.0693621,-0.01526758098271825,-0.0022799116399453002,0.03806620295371748,-0.014539630657227052,0.028952737705601347,0.006340336886666916,-0.03878506065652979,-0.04819958360747357
0.0698276,-0.017673112772342986,-0.003583495326811581,0.029546092636177954,-0.014252524711258907,0.025359875288741094,0.0058747,-0.04488417788128018,-0.038740459090431965
0.0702931,-0.01909766204756987,-0.0052929544570838455,0.015015774899240544,-0.01382511749350242,0.02578728250649758,0.0058747,-0.04687854686659782,-0.032899849497190145
0.0707586,-0.021556676174879587,-0.007662822563720588,-0.0025314410232536748,-0.012951805640930148,0.028274042329298706,0.007608011281860294,-0.040554413849305145,-0.03242230564093015
0.0712241,-0.020323981908714376,-0.008896,-0.01034413901627913,-0.013295213005426377,0.025064298571498535,0.008215821748643406,-0.030038350812002377,-0.03269548699457362
0.0716897,-0.015291319058933986,-0.008896,-0.013795137199004262,-0.01444554573300142,0.01586172241761904,0.007928238566749646,-0.01882269238486655,-0.03154515426699858
0.0721552,-0.007144187253027232,-0.009498514589616213,-0.01971589352169031,-0.014955821352595947,0.0016570978726865105,0.006347943199508549,-0.0024832572948081063,-0.03077655835846485
0.0726207,-0.000782696178646946,-0.011400010675902423,-0.02858573400084447,-0.013725963996622126,-0.002620468001688937,0.0051176796788580635,0.006663430588267887,-0.03108293700464458
0.0730862,0.00551255055136555,-0.014573391627852627,-0.039174108053666064,-0.011748814108835114,0.00864882511644212,0.004394197193346231,0.006926064023238047,-0.031012755503803502
0.0735517,0.009282397534613159,-0.015887762425975702,-0.05007235648397345,-0.010895715606493927,0.025649372263627554,0.003102193638963555,0.004988597361452979,-0.02927220924545748
0.0740172,0.010171463633944663,-0.015005936366055336,-0.052390907883295854,-0.0109102,0.03458616241020494,0.0022493363660553364,0.0014666909195731248,-0.027964001206000587
0.0744828,0.010352057903897989,-0.014665345452464493,-0.04411311925556882,-0.010590111363116123,0.03206706137456141,0.001268568178696739,-0.006624272851978477,-0.027132979541812863
0.0749483,0.01861063054466387,-0.01552286392053038,-0.029568078901855557,-0.011611647232597123,0.022464758385724627,0.0009620300461663521,-0.015021903246184161,-0.027029709446519425
0.0754138,0.037381119817472615,-0.016538302141288083,-0.022580066983665194,-0.012155899049004418,0.013668990566761484,-0.0011130240171393815,-0.016064954975095504,-0.026990320490812625
0.0758793,0.06374989879424794,-0.016551397588495893,-0.03016498107455937,-0.012101933142140975,0.011352864042715804,-0.0014826529572461676,-0.0112459,-0.02599881651393652
0.0763448,0.08193386023981428,-0.014109633619494105,-0.05240200109443457,-0.01256243893658235,0.008502084048735259,8.902463252435842e-05,-0.005289523808920984,-0.02455562912600923
0.0768103,0.0791258415948423,-0.0123583393938091,-0.06649565793459689,-0.0122881131312697,0.003368926621899889,-0.001014765656348498,-0.002332338204527308,-0.023110525073257608
0.0772759,0.07004745463781212,-0.013291726051714498,-0.06485063527599705,-0.0125887,-0.0005334846404021799,-0.002433367002403654,-0.002287420172381654,-0.022722852103428993
0.0777414,0.06201853777057963,-0.014374067161908224,-0.049538098505281174,-0.01195212024639954,-0.000998392345292698,-0.003790859507200922,-0.0028185797536004606,-0.022500502468492466
0.0782069,0.05748629628734338,-0.015454009284455325,-0.027543010214026362,-0.010223200928445532,0.0004918018580165708,-0.005238285606843235,-0.005039189787099142,-0.02171499396285303
0.0786724,0.05811011436484592,-0.015317431736008792,-0.011125322163136499,-0.009880642848350453,-0.0003132428483504535,-0.006402439718939849,-0.007241114426392744,-0.019326307736743757
0.0791379,0.05943453691774478,-0.01663989219896202,-0.00026174481418267165,-0.010269192616451045,-0.0027456446233828364,-0.0077051630822552244,-0.010176633548059404,-0.018325992616451042
0.0796034,0.05899204409852624,-0.0166171,0.004956700769492654,-0.010387458245244927,-0.004598295655158153,-0.009931023605895033,-0.013767063359579428,-0.01889005590147376
0.080069,0.05642732177749031,-0.017090929679783623,0.011165583138351162,-0.010870635644501938,-0.007256467333764534,-0.01071237822250969,-0.01558962080051744,-0.018927435644501937
0.0805345,0.04448569531455714,-0.01818552370950297,0.01213739048796994,-0.011190865133759244,-0.009259186386608319,-0.011179854225701781,-0.013639830516198811,-0.018025945774298217
0.081,0.011712899661491635,-0.019723044851462024,0.004130551472994242,-0.012311384919163696,-0.01230114190547354,-0.012048599661491636,-0.009409840406210037,-0.016403946350725528
0.0814655,-0.025811907575869892,-0.02160527433861754,-0.005917567701177714,-0.0129244,-0.012991952577067697,-0.013192547422932304,-0.005847610651773268,-0.015027536427656555
0.081931,-0.046317517719250745,-0.020957598581771986,-0.00815395052583999,-0.0129244,-0.009508560686940953,-0.01620478656439437,-0.0011572989908595472,-0.014178858859625373
0.0823966,-0.04794386493506051,-0.020496540427225395,-0.00510552070681262,-0.0129244,-0.005456697883771417,-0.018126668077485725,0.003616020275377948,-0.013805876027231666
0.0828621,-0.044504583557778456,-0.018993631577337206,0.006349432758284581,-0.0129244,-0.0002927670289632917,-0.0205860891251126,0.011079961595251528,-0.01327239177888923
0.0833276,-0.028365084040876405,-0.01774175946559745,0.02082955628215662,-0.011917965152547012,-0.0015205973678947423,-0.022903314685936472,0.009126899745764968,-0.013689286927216692
0.0837931,-0.013147958143806999,-0.018322898581858364,0.03732414506948757,-0.01238949290929183,0.002064688654866927,-0.02423854238872666,0.0065132732108313125,-0.013849604254424901
0.0842586,0.00023640461010043226,-0.01871586124656943,0.04812493604475851,-0.0139315,0.004637601558211787,-0.02490379844178821,0.0021490701880886435,-0.0129244
0.0847241,0.012042165262662713,-0.02007363315783284,0.057255105204823464,-0.013798789122889548,0.0062104,-0.022866521813258867,-0.002099953332549296,-0.012957577719277615
0.0851897,0.01664990383384498,-0.020666459882721182,0.05476972815257566,-0.012768551495587895,0.005985585630515131,-0.019485581210276073,-0.011460070186776963,-0.013215137126103027
0.0856552,0.022339599208779103,-0.022195905403088474,0.04222743692469223,-0.012892398967615105,0.004691905161924476,-0.017720203097154684,-0.04396551582676659,-0.014171196902845315
0.0861207,0.02108602474821301,-0.02144020608405763,0.020497693342631577,-0.012798209699397241,0.0025114299581579127,-0.023029116643421062,-0.06225710448945233,-0.014685868594418566
0.0865862,0.01946478770583871,-0.0223419103412055,-0.0006396125042422958,-0.012942410341205501,-0.0008540147822586439,-0.030601841469862504,-0.04619599978991899,-0.013119218194313642
0.0870517,0.018188524437151184,-0.02128680090055811,-0.022338459690694708,-0.012687919479234066,-0.005202147523465205,-0.03518757556284882,-0.009658849774860473,-0.01470704437151183
0.0875172,0.01940606223290641,-0.020968343349359615,-0.03094057619573802,-0.012786808380565583,-0.0060595972160335295,-0.03726651587428568,0.014981440340098502,-0.013234486698719234
0.0879828,0.02993451091225206,-0.021619793904588874,-0.034313954147189574,-0.010822725764658335,-0.008757117029518745,-0.04129804847068333,0.023805589484797263,-0.012523094323493751
0.0884483,0.04179559654322213,-0.021134628460887945,-0.037449926139534725,-0.00969674385200852,-0.011358843284296188,-0.04355001229598296,0.02073688383509502,-0.01163908615644823
0.0889138,0.044609964111314335,-0.021300656653197494,-0.03891122711626844,-0.009959949294483956,-0.015748066028496484,-0.04448,0.007461167538931871,-0.0112459
0.0893793,0.027064498338649743,-0.020819001670434756,-0.031708754697312255,-0.011262318479799234,-0.0184634,-0.04400815470639675,-0.007169826522523248,-0.011761981201666497
0.0898448,-0.004905466892393885,-0.018393894582546744,-0.019497125213534538,-0.011013596614091714,-0.01965983446196943,-0.0432657640676131,-0.01540025741185069,-0.013994865770138878
0.0903103,-0.029752277587582168,-0.01648344830609184,-0.0021495912488073334,-0.0102388,-0.018833348306091843,-0.04195199774145579,-0.01857189924715193,-0.013084777117718271
0.0907759,-0.03638829465261792,-0.013707794198342461,0.018920989199367872,-0.010597202787259903,-0.015900899651592512,-0.03680258989618285,-0.01545168571529299,-0.012565997212740097
0.0912414,-0.038369891925326416,-0.012633772049782391,0.03863798385065283,-0.011615404037336793,-0.013277000340382362,-0.03497908788798962,-0.013398611460488074,-0.012219195962663206
0.0917069,-0.03647705817300694,-0.013919553343917363,0.034231097347176456,-0.012505073407421541,-0.013841255043902063,-0.032274239809487466,-0.00806157791899023,-0.011305633280413185
0.0921724,-0.02609605309052134,-0.015123668339981066,0.00842968981201208,-0.0129244,-0.015385783954206176,-0.02689308981201208,-0.003781046909478656,-0.010703242752672888
0.0926379,-0.0030264701480380357,-0.012548190113040607,-0.014973839738921359,-0.01237511996500257,-0.01499301143130186,-0.02338542556912108,-0.004618175784137601,-0.01290353354566708
0.0931034,0.029595603526025006,-0.012321705613057682,-0.023164469638683675,-0.014552675467754806,-0.015023177338774034,-0.01792554719347116,-0.006473380037296151,-0.011497022661225965
0.093569,0.07146625955931453,-0.0131424218506552,-0.0244984493001456,-0.016418670467794265,-0.012987829993413066,-0.012078189091520261,-0.014091849300145601,-0.013539280915066673
0.0940345,0.09795569690564383,-0.015805606581733328,-0.024986151096955556,-0.0176242,-0.0149386,-0.010968568779966931,-0.020826573036066647,-0.013791406581733327
0.0945,0.0896178806386916,-0.01697056848882381,-0.02755296265569702,-0.01570475822953532,-0.011259622292197423,-0.020706794928835183,-0.024824034442065206,-0.01543627657918525
0.0949655,0.04948157113428281,-0.017050580005785174,-0.03452031229611495,-0.01516926552512914,-0.006963198988861397,-0.03863933783281443,-0.02499509106182863,-0.01708872442996601
0.095431,0.0029119724841581303,-0.01871048097501382,-0.041290537479742366,-0.016261604756246547,-0.008551218573578764,-0.05731741336592481,-0.0254631582154185,-0.016953613247102237
0.0958966,-0.03981154977463431,-0.019770260478002188,-0.041307192600073636,-0.017854100330344153,-0.009178132452415598,-0.06152230706958221,-0.02317297871365148,-0.01820676589586365
0.0963621,-0.061530655815570844,-0.02061578390873734,-0.03990374020240365,-0.018818862931553007,-0.009039203133956657,-0.05995683531648197,-0.02194885942762297,-0.01910518390873734
0.0968276,-0.07221687106243739,-0.0231041737768147,-0.044044783794365217,-0.018201163669137117,-0.009396963579010046,-0.055628927248147164,-0.01959118183456856,-0.019841617140469576
0.0972931,-0.058414612448248346,-0.02211186477756045,-0.04612896308203175,-0.017235522987579605,-0.011228203283770643,-0.05698928448136941,-0.01934396398343947,-0.0201684385062102
0.0977586,-0.02990046754871898,-0.021364121572605647,-0.046300191158257564,-0.01592066195707529,-0.01355711552668505,-0.06341518213177001,-0.02046226985518372,-0.02058177748376034
0.0982241,-0.000611158235431487,-0.019903830785078302,-0.03786747952296602,-0.016022994043199245,-0.013587929055910374,-0.06930062132873811,-0.02204451118550811,-0.022380115371937362
0.0986897,0.017736387215180126,-0.018340354255696398,-0.023711196265858055,-0.017590612515177306,-0.00938838297721441,-0.06718467633289259,-0.023644279789874784,-0.022726873961997844
0.0991552,0.035674145182707784,-0.01685521707309584,-0.0051369878040542685,-0.01764800461415876,-0.006686634146191685,-0.06579343876035045,-0.023763157784920427,-0.024819006341523325
0.0996207,0.05172236216740093,-0.016929954934125604,0.0028007406853380722,-0.017937054934125604,-0.0030818506587439705,-0.06185199572461837,-0.0224267061990362,-0.0250095
0.1000862,0.058493566853641515,-0.018422378012264175,-0.005449438591960273,-0.01846713048352968,-0.001588917935638852,-0.05490167617777899,-0.019310158745210918,-0.02436793498084367
0.1005517,0.061657917844704924,-0.017520755633303277,-0.015076525822262297,-0.01923373708886885,-0.0021738789636274315,-0.04620924407132863,-0.017228651644524594,-0.02507846291113115
0.1010172,0.06859371425265935,-0.016720471432385458,-0.016143571423486054,-0.018700214288256974,-0.004708151998645906,-0.04140761833004582,-0.01936274284697211,-0.025611985711743026
0.1014828,0.08320871328934575,-0.016308804287467813,-0.011502770537414372,-0.01801470857493562,-0.006885274275193137,-0.03585466859948497,-0.023029561001180705,-0.02537260428746781
0.1019483,0.09661786972364818,-0.019352710252625048,-0.003633175868145437,-0.017973539529171502,-0.005005947009626519,-0.02931449537359016,-0.029514541801438844,-0.024678346509723833
0.1024138,0.10434915201693885,-0.023052676008469424,0.01344078163458866,-0.018987490210778137,-0.002837006854723021,-0.02501769657263849,-0.040009801592241524,-0.0250095
0.1028793,0.10636750555950682,-0.025510793985321606,0.03357661804403517,-0.019412920450857057,-0.001291938494892231,-0.027063231431715812,-0.048703723458196256,-0.024843906014678393
0.1033448,0.1033677624539336,-0.026461850184265563,0.03863456114718971,-0.018967,-0.0016978832719114797,-0.03165372118650899,-0.05104650204608321,-0.02457622425335674
0.1038103,0.09009975220070701,-0.026560331502687735,0.030428005491936794,-0.01692030792730008,0.004349286580763123,-0.03795214409420179,-0.04568634217595621,-0.023794368497312264
0.1042759,0.07078063262633906,-0.025314983498159076,0.003689193645622476,-0.015985195389262494,0.011755185682107944,-0.04151923300368185,-0.027174695146422723,-0.02331768835173635
0.1047414,0.052744187692519796,-0.025254366474242656,-0.01566526144157216,-0.015160758092803322,0.012805932371213288,-0.036958449711363986,-0.011662582082577274,-0.02294988323712133
0.1052069,0.03643671701696325,-0.024055749971597574,-0.025752033295463432,-0.01368471661932929,0.0066794775776867965,-0.03429803904728797,-0.003560366647731716,-0.022590649857987873
0.1056724,0.04008599274577207,-0.021558827330537725,-0.02662798660888307,-0.00976343124216922,-0.0008298232917232358,-0.03426281575297777,0.0011636472796645266,-0.022068943937068094
0.1061379,0.058105600106915956,-0.017471338022753677,-0.017664186541086403,-0.006117341895791885,-0.008297664833664913,-0.037270819573144626,0.005435945260520285,-0.02409050285641859
0.1066034,0.06489239036024892,-0.01367318354208788,-0.010921739248953843,-0.006622479467970551,-0.012788965066503682,-0.039909960266014725,0.006983376200122239,-0.026358074667481593
0.107069,0.06175251040070364,-0.013366740347375157,-0.006057300086000333,-0.006454690098015558,-0.01597670032671853,-0.040756930032671855,0.006576569967328147,-0.025375669967328145
0.1075345,0.04017415886892073,-0.012422635302061127,0.0010918711844723683,-0.008884141769303314,-0.012646177052073132,-0.0344091,-0.005661188245507163,-0.02523959407452531
0.108,0.011590809127385507,-0.012057246671367802,0.02025399777052734,-0.009234834899864592,0.007740259031512646,-0.025645002006573346,-0.0433156647343931,-0.023090139550555642
0.1084655,-0.024201634654197217,-0.009825647630428792,0.038031816340504385,-0.009017714299457394,0.051109265294159,-0.02076357071365041,-0.09309378505057997,-0.025169990484243
0.108931,-0.06207585042312863,-0.009129461557787722,0.04964365812632986,-0.0076093980124674575,0.0934815946367307,-0.028402477266840226,-0.15457423599249842,-0.025615338442212275
0.1093966,-0.09542875381363425,-0.009524089634587826,0.04405052028270266,-0.0060190822211406815,0.10013742978080609,-0.029622670667315592,-0.2036626270137278,-0.026294547111543727
0.1098621,-0.11735617615013008,-0.008450717154960975,0.029314453140254434,-0.004232727615013008,0.08361068953994798,-0.019542720084726826,-0.2470358115026293,-0.025662636192493496
0.1103276,-0.123256288963883,-0.006512457513153871,0.014284329293916894,-0.00484516944819415,0.0812057833108351,-0.004819712469762594,-0.2819161916146503,-0.025569505518058498
0.1107931,-0.12274503975724284,-0.0055862397572428385,0.0009393827016330393,-0.005507506828504773,0.0922694741895055,0.0056277810180102705,-0.3101370973923302,-0.02710499143305215
0.1112586,-0.11724663282618937,-0.006061778057489775,-0.016965793112764086,-0.004544686641309469,0.08300868015214319,0.013810132047761783,-0.3281903648562395,-0.028574333586905313
0.1117241,-0.10538956724416819,-0.006722471919531681,-0.026312251997564297,-0.00494726404023416,0.04400264772323229,0.018784745077705084,-0.3229389832355509,-0.02778333595976584
0.1121897,-0.08301482108345211,-0.0068818,-0.03420681223157524,-0.007112608888761594,-0.016449622257561237,0.023203634453888393,-0.3037664944360189,-0.027702594454052057
0.1126552,-0.053483585522369544,-0.006492636153229222,-0.0422779815241976,-0.009024320877223189,-0.062261765033090354,0.014632695613884054,-0.2751440238686568,-0.03053040769009372
0.1131207,-0.022257838725661325,-0.0056913181544501895,-0.05790570553696007,-0.010837491940314735,-0.08534471872581664,0.004247714546605531,-0.24788878309424697,-0.032720213134330677
0.1135862,0.011935584761049356,-0.005510770928193515,-0.08814527407538747,-0.009313338353741641,-0.10841918125840397,0.005400903502645391,-0.20899523748319207,-0.03303807092819352
0.1140517,0.03536634842983035,-0.002632269094455832,-0.1202481968596607,-0.00925088907638316,-0.12623492589886787,0.007523476945819389,-0.16817709738287884,-0.033533122462876506
0.1145172,0.04918680998794256,-0.005473155610344265,-0.15518232163609433,-0.004647132585411809,-0.1422344554542521,-0.010516187727479523,-0.11641021233815566,-0.03293461122068853
0.1149828,0.06182323169334254,-0.004858873215955621,-0.1761131692284106,-0.005735261398249677,-0.15067861028481,-0.038067172749741945,-0.07352407590904865,-0.0317038653857947
0.1154483,0.0784267085583638,-0.0042077526730321686,-0.17904311469203935,-0.007851354672987502,-0.15946864063474983,-0.06053073450107428,-0.036410398921465414,-0.03023889265398033
0.1159138,0.08341070980047595,-0.0018172299161668109,-0.16600767872335048,-0.006774484096364497,-0.15376364315504773,-0.06125385877956132,-0.012709333912815618,-0.02867312991616681
0.1163793,0.08131738722444481,0.00034685597584275103,-0.1412898214613616,-0.004968301872499584,-0.12717370302831116,-0.053141038326665564,0.019090249282525347,-0.025345236454165972
0.1168448,0.08172712885157837,0.0022129330823415197,-0.11315165735635209,-0.005662732329366078,-0.07164500016765916,-0.04974348673353156,0.056791855216856084,-0.020976636094243283
0.1173103,0.0829937951955326,0.0025177,-0.09311108419166951,-0.00667412677793741,-0.019146988445008478,-0.05992908406506757,0.09118908737179642,-0.018108765696250948
0.1177759,0.07444437849527182,0.0006971808433592124,-0.07817907825558246,-0.0068818,0.02325660471244355,-0.07755274160385768,0.12156145443530439,-0.015196841124478949
0.1182414,0.05967971456603444,-0.0022011940110049353,-0.05059452139591572,-0.008462598822759302,0.05821007675413461,-0.09490279966364551,0.1675289605717134,-0.0135958
0.1187069,0.03965213908131207,-0.003240576629090195,-0.02893420040955947,-0.008877071088904237,0.08026657983029051,-0.089484028210348,0.20056466214736635,-0.014540449742868305
0.1191724,0.022667215059682083,-0.0048188981289538765,-0.009615502370146793,-0.012171830214923128,0.09004862195345281,-0.07761619675700843,0.23195231287640736,-0.014873664171938502
0.1196379,0.011961632193746416,-0.005539,0.013110595213734947,-0.012186503029970002,0.05751420795997176,-0.05714793561250717,0.25710698671374776,-0.019117726817558564
0.1201034,0.01390676462879143,-0.006020996448322127,0.01960093966647848,-0.010042376384078998,0.006030183472300633,-0.05369301983323924,0.2740674574149118,-0.02539679583038811
0.120569,-0.011572337470965933,-0.00583602685762078,0.007086817892868903,-0.010106576198705114,-0.03816596715626357,-0.057847664189838964,0.29108537009826496,-0.029103694103785636
0.1210345,-0.056114505771509976,-0.008286989015918695,-0.012821553077541847,-0.01212350782072023,-0.06103012607030959,-0.05253662867473202,0.3056297322216668,-0.03284811619851587
0.1215,-0.08285399602605666,-0.00955791469356866,-0.02340306879780995,-0.013684939066834757,-0.07523912005127775,-0.04567776309415941,0.31141151253047095,-0.03468600250693561
0.1219655,-0.08189043296517035,-0.012267451310371512,-0.038186098593029016,-0.013562080275799804,-0.0895921659862846,-0.035698911861971126,0.3208995960002579,-0.03608519073079994
0.122431,-0.07052582466474912,-0.013141651948865454,-0.043285558915698415,-0.011522278785980609,-0.07706204363829529,-0.03249350952082668,0.32935020217236605,-0.0359394472225057
0.1228966,-0.06808532058366627,-0.013109942047460597,-0.04322597853620568,-0.011095742047460597,-0.01591972682087683,-0.023953085252996473,0.3428043959235933,-0.036370084424650645
0.1233621,-0.07142052987117295,-0.010745680779198926,-0.040634296457328765,-0.014050363307375297,0.07933450207553532,-0.002502098295738898,0.3523935615136815,-0.03595394023529593
0.1238276,-0.07434640201275965,-0.009197050201275965,-0.038994152616587535,-0.01797069798724036,0.13855569758468844,0.037827438685453935,0.354840915152279,-0.033287252616587534
0.1242931,-0.07137768716401971,-0.00890017871640197,-0.03513482331322563,-0.020939412835980283,0.14211815540317635,0.06855350471956147,0.34771608794887027,-0.029427923313225628
0.1247586,-0.0550796739709254,-0.01013002182415482,-0.02567033202962608,-0.023014041746058488,0.15131528675427072,0.08379839763536487,0.3263274988086834,-0.024455041150400186
0.1252241,-0.022653341377509267,-0.011434879292846891,-0.009948557382573966,-0.026208413034062114,0.1855036825830279,0.09338753787854068,0.28958307777054865,-0.01824775207892565
0.1256897,0.02389514696684077,-0.011524398593762539,0.0023804200329184625,-0.02842370140623746,0.1865920469429794,0.08674771100008026,0.24976769812853256,-0.014204276749194611
0.1261552,0.05790796908860607,-0.009949726559688177,-0.0013986990346190737,-0.02999837344031182,0.11573208685235588,0.07666980998200434,0.21764457626189743,-0.012472090604592343
0.1266207,0.07399652466837207,-0.006788060554076473,-0.015012660554076473,-0.029769484972981514,0.008571845636281517,0.035695152210602106,0.18494092817565969,-0.011730966573171003
0.1270862,0.08399926914924072,-0.00849273128130338,-0.03583253586640678,-0.02671403429542031,-0.06458036557672368,-0.05356937274539992,0.15531341692092532,-0.003821026393511895
0.1275517,0.08958789954216947,-0.009598066636144632,-0.05380619940482032,-0.02241427147840865,-0.11425049415050884,-0.13590549364689528,0.12714573948804483,0.00334243318072316
0.1280172,0.098491353280637,-0.009095848021319991,-0.07070903600900419,-0.01628160659167572,-0.14192317339008323,-0.17257189993919653,0.09676673211244764,0.003920025297416111
0.1284828,0.11127277711053041,-0.009377151292623762,-0.07892190051875589,-0.013692763454224417,-0.17514509001948372,-0.18979269647396038,0.06011254285050214,0.006772645506653103
0.1289483,0.10585600470374532,-0.010854335179600747,-0.08297439529625468,-0.013036129640798507,-0.2056752700825281,-0.18843832410199626,0.022934918839867452,0.009819302769401121
0.1294138,0.06322318986858975,-0.009256838154915174,-0.09812526639342713,-0.012158766334200937,-0.20263983588074402,-0.0778506675034714,-0.011081383212806006,0.008216179661860886
0.1298793,0.009262146831607827,-0.0069880684283687745,-0.10957394060088853,-0.011213030481219155,-0.19047603048121917,0.08151211911019263,-0.029513950514653272,0.011291094364406517
0.1303448,-0.012589392522903569,-0.004566954316435505,-0.1197044929172016,-0.010066670568291886,-0.18970354615295906,0.15896176582416216,-0.03854646977969583,0.013384293780894181
0.1308103,-0.0052379129115836445,-0.00425183699281808,-0.11453627532779913,-0.010258436241621548,-0.19478790961963996,0.1606967623043286,-0.04549880493791553,0.015854064205766107
0.1312759,0.03492908440095958,-0.005172744180965346,-0.09425425344772276,-0.012184377909517327,-0.19645259342694307,0.149476871293618,0.002545896159415843,0.016876767457103963
0.1317414,0.09704384839537178,-0.005333394176805068,-0.07502605514030682,-0.013621818835361014,-0.20200320136577624,0.1596961537348981,0.08957530604521298,0.014111086987833919
0.1322069,0.14394900238111902,-0.008801901313720835,-0.06624350236329185,-0.014448400985290627,-0.21219339926103203,0.16111615031951662,0.1158468009496363,0.010216152125882774
0.1326724,0.150379206466417,-0.01457414682649274,-0.05563403364739957,-0.01928427269961495,-0.20614421496456345,0.15190133137686515,0.07829836741420163,0.009710575451486417
0.1331379,0.12925317264922473,-0.01676183147431687,-0.0463199615831698,-0.02367238017983169,-0.18943571160682937,0.1442133129858682,0.048150090995715863,0.01011798357332215
0.1336034,0.11657196079669555,-0.018899246635506965,-0.020432887712639843,-0.02863137981304177,-0.1615647612640911,0.1270772240209699,0.011713888180035412,0.008058283411232596
0.134069,0.11477340621258349,-0.0162135097889603,0.01174639298579747,-0.028713935763768256,-0.1115523144131495,0.10367192503463778,-0.014623078017222232,0.006142313642439367
0.1345345,0.12416007253869145,-0.017336493692287697,0.05006844369706326,-0.026172327228071574,-0.0612494376034857,0.07804862791823139,-0.03313854638444545,0.0158022234668638
0.135,0.1161825024118489,-0.01772602265370678,0.07484542870410428,-0.0235854712978302,0.0,0.0560057912339804,-0.037207107845027586,0.022613842903302567
0.1354655,0.09796871312511782,-0.016809536909775928,0.08661202914357478,-0.021398459722324698,0.0,0.04571517766201146,-0.03254885153985638,0.02631167525472699
0.135931,0.09042451571883288,-0.014137294746997871,0.0895145948330271,-0.01926950520329193,0.0,0.04488687894213577,-0.02337627877007731,0.026688
0.1363966,0.09085212553211659,-0.010709567603745139,0.08022158510868539,-0.016024720502475113,0.0,0.048619924950597554,-0.00030632969268950877,0.021518885492594626
0.1368621,0.09000787664445706,-0.007038645651999542,0.05459783263089873,-0.012197728259997707,0.0,0.059438722269545476,0.02485895950577652,0.01452551956399679
0.1373276,0.0835510517648055,-0.006477175347091103,0.022874927657162963,-0.009390376735455518,0.0,0.06898363382619344,0.03426354529959511,0.010595227429637725
0.1377931,0.07000224496020341,-0.008543098003733667,-0.025719502473906607,-0.004854963475415065,0.0,0.07383960012645958,0.0403937477152273,0.007305290805623971
0.1382586,0.04244345367672985,-0.010138783088318039,-0.08015158144757742,0.0009293973996137351,-0.0013507180997627685,0.06609741215935873,0.0562664658938749,0.0011719459827226573
0.1387241,0.015698574540694572,-0.01119230697751706,-0.11119543344158461,-0.00212840697751706,0.0,0.0609813978212405,0.07635535444213663,0.0012080698431714294
0.1391897,-0.004992323440761985,-0.011616139189648995,-0.1173244909461981,-0.001777221620702006,0.0,0.04833359499795311,0.09777186622403294,-0.0012698853437115105
0.1396552,-0.0023148058302824,-0.012253,-0.10272732651573199,-0.0003549824654955809,0.0,0.03035409822022149,0.1104303834087115,-0.003392623333288755
0.1401207,0.007063301507586823,-0.012253,-0.09186838026353127,0.00038532671721396396,0.0,0.018508048552306644,0.11956169651357616,-0.0052435433226709
0.1405862,0.014955839080800783,-0.010799468390727096,-0.08490237280367499,0.0018117217468743387,0.0,0.006151672413235084,0.12712413275894618,-0.006120412643709162
0.1410517,0.009830721656934448,-0.006607995627140721,-0.08508412609321482,0.0005267116284185997,0.0,-0.007698056686131103,0.12079707531642465,-0.00422714781357036
0.1415172,-0.00113860334761072,-0.005171801332593205,-0.0937297368667932,-0.002220338199386403,0.0,-0.010654099089890064,0.11448917805645045,-0.004166119180964313
0.1419828,-0.013503455692798705,-0.004831234662757023,-0.11494778479150984,-0.0031648540343347225,0.0,-0.007941135450644437,0.12289266376146815,-0.006975040343347227
0.1424483,-0.018140992811948958,-0.005564792882376611,-0.14270876525928344,-0.0016137715295064439,0.0,-0.010469750670764137,0.13775379950587213,-0.011245507470895942
0.1429138,-0.01478017961964242,-0.005833661141434164,-0.1588407807109109,-0.0026892445657366567,0.0,-0.023375347013700937,0.12673028097633823,-0.014740794838644135
0.1433793,-0.0020221299258769134,-0.00922729967041787,-0.182920984913872,-0.007489635490371546,0.0,-0.04279279229160662,0.06403941257107555,-0.02291550655431763
0.1438448,0.020074553711118905,-0.013212713264456976,-0.19697796160058748,-0.01246668466151852,0.006209173731135143,-0.04961427583193476,-0.010720662567477782,-0.03065255221074283
0.1443103,0.04944578228387629,-0.01718434537301293,-0.1752143268598579,-0.012631736247161329,0.0,-0.05407499982569879,-0.10420770917203029,-0.038468918187641934
0.1447759,0.07332719007031455,-0.01698449172618496,-0.1561864716679593,-0.013428278285903907,0.0,-0.057972796595985546,-0.1676591404043463,-0.043766819571475976
0.1452414,0.08810608872472257,-0.014849732348335446,-0.13376092641791462,-0.010717653421393468,0.0,-0.042623802389862936,-0.17560963324026804,-0.04294475342139347
0.1457069,0.08782855287574501,-0.013184517254470096,-0.11461103551223399,-0.0071096873846852055,0.0,-0.020421017145429165,-0.14175042501254773,-0.039336787384685205
0.1461724,0.08120582072955,-0.01355246618418488,-0.07903452356518383,-0.004841039664853446,-0.00010832808529058134,0.005814692703516315,-0.058023766996301074,-0.03640081065668939
0.1466379,0.08068106511902307,-0.01494772314158933,-0.05256374611810541,-0.00626472635202371,0.0004172872478384766,0.016526704388281556,0.009177482176929515,-0.04008002846010818
0.1471034,0.07840065298278352,-0.01396789899184005,-0.03258471952924298,-0.008742588512766504,-0.00010633044069574328,0.018120842503709975,0.0491918441962607,-0.045339715135981576
0.147569,0.09613316902423898,-0.013618631360846564,-0.03165264242559609,-0.00967822091777156,0.0,0.017969032544338626,0.029117890118742537,-0.050077310828160554
0.1480345,0.11965089321066821,-0.012236821510197686,-0.029336524904769366,-0.009588296605428318,-0.0011848883011218209,0.01876073585014104,-0.027189198873909522,-0.05071102755398467
0.1485,0.14980796749591055,-0.012655283751511315,-0.021302051247421874,-0.009912774601128466,0.0,0.036315415454301656,-0.08356492676924417,-0.0576669550003556
0.1489655,0.16016676224026136,-0.016151664486733736,-0.014061235513266263,-0.011650254828911246,0.0,0.046967209657822494,-0.11452793555324514,-0.059216472585544376
0.149431,0.13898414964402406,-0.017701617380455285,-0.012511282619544716,-0.012166905793485094,0.0,0.04800051158697019,-0.1389396551537143,-0.058958147103257454
0.1498966,0.08051991171121815,-0.01530177166640407,-0.015206475926217702,-0.012253,0.0,0.04551457166640407,-0.18538975959216783,-0.059358077399121426
0.1503621,0.0009047910119162714,-0.010285401886105295,-0.020906189739717838,-0.011098801457444999,-0.0012069921264330362,0.03558873430964335,-0.2185153063303899,-0.05954061771897128
0.1508276,-0.07560976450943041,-0.010360979739291433,-0.02147510724138659,-0.0115816,0.0,0.029250170333138592,-0.18889103164119242,-0.06967667095815397
0.1512931,-0.12354797534738061,-0.01112329526405141,-0.01811752071249998,-0.011351012172889067,0.0,0.022111372398563218,-0.14747990903526192,-0.07654823133942026
0.1517586,-0.1613465012253703,-0.012248010340079671,-0.01490867095589182,-0.01125587634803606,0.0,0.015174536519639396,-0.10097635418240897,-0.08240073488046123
0.1522241,-0.1727552406360971,-0.012097850630826341,-0.014007981002413386,-0.01155610633252887,0.0,0.01217223667471129,-0.058494034961710864,-0.08705434435710672
0.1526897,-0.16884861050599334,-0.012598733685371809,-0.014597883157314097,-0.00952224841582686,0.0,0.0009391098882047498,-0.019167672212993918,-0.08880223368537181
0.1531552,-0.15808997825801158,-0.013213512670970767,-0.014290493664514618,-0.006755742980631551,0.0,-0.013508104706646646,-0.03146316035824896,-0.08941701267097077
0.1536207,-0.15489401768227928,-0.01385529274180514,-0.01545758548361028,-0.004165329032779441,0.0,-0.029780226266531245,-0.07524860011097043,-0.09124917822541542
0.1540862,-0.17764884882004578,-0.01547286734458451,-0.016888567286765976,-0.0015516190531255742,0.0,-0.050440561893748855,-0.1165040857390651,-0.09529355715937672
0.1545517,-0.2087248801705226,-0.0157029889159925,-0.014824853572702914,-0.0003692759846504175,0.0,-0.058093427218815746,-0.12366338959405829,-0.09710213753132607
0.1550172,-0.22961046732528959,-0.015904187726745525,-0.01130280950599332,-0.0019329263604731467,0.0,-0.05050819274414322,-0.11996348409881713,-0.09716395004631487
0.1554828,-0.24471446541652994,-0.017554843416820617,-0.005754007473884775,-0.004434800783548866,0.0,-0.021502724966570602,-0.10936420668365478,-0.09879384341682061
0.1559483,-0.24555000633165827,-0.017663877391002242,-0.004012829233632868,-0.005045628985003735,0.0,0.007519797993423807,-0.10244547429169468,-0.10205286927450635
0.1564138,-0.23029942305972667,-0.015799571329865442,-0.0028850665313510772,-0.0045319,0.0,0.05118028575953823,-0.10727549158209441,-0.10715674208952788
0.1568793,-0.17039337711614372,-0.012903067387320256,-0.00470008706103956,-0.0024699902711765535,0.0,0.07833054610206328,-0.1308283997839276,-0.10938636500928708
0.1573448,-0.09089681530430642,-0.009962950403103885,-0.003916904061694635,0.001294600806207772,0.0,0.10344060453785493,-0.16189200480659086,-0.11314205120931164
0.1578103,-0.0478985509009862,-0.010894323755979051,0.00042941243766730913,0.0031573475119581022,0.0,0.12765621923188705,-0.18672853506920645,-0.11593617126793715
0.1582759,-0.03499169252712828,-0.012832410985133713,0.005789627925605277,0.002548363004955429,0.0,0.15594086841848856,-0.204131334935706,-0.11918748497522286
0.1587414,-0.023959826475945946,-0.011545977211460454,0.007497049326064997,0.0006459911541581832,0.0,0.18147400167992056,-0.2109934507355145,-0.12329523793179523
0.1592069,0.023393273273979484,-0.009265855707231216,0.007081055294272098,-0.002341981512111387,0.0,0.18666877089144687,-0.19522435422478848,-0.12435523401089177
0.1596724,0.14711827813610043,-0.009170746799082505,0.007544904480637059,-0.004310865690654179,0.0,0.13077353713842782,-0.14615032822144414,-0.12336516174930284
0.1601379,0.2941289300220237,-0.010760468595540834,0.007403468595540835,-0.005681937332133161,0.0,-0.018979934423831002,-0.08055088306090723,-0.12290185205866229
0.1606034,0.37845377100400335,-0.00974653938189237,0.006501368394826392,-0.005248244566371547,0.0,-0.1484965043902531,-0.053700460618107626,-0.1209076241364462
0.161069,0.4096108173608588,-0.007629064088085086,0.005896375453738596,-0.0013157904493008722,0.0,-0.26132714724813055,-0.05581793591191492,-0.11712637320006444
0.1615345,0.3879987993594433,-0.005546446736988619,0.0069339271589203355,0.004912280421931716,0.00025691131697168216,-0.378488366541341,-0.0704845824229775,-0.11009827831227313
0.162,0.32644850769357353,-0.006078706879772105,0.009348275359869774,0.006721513220935684,0.011421313220935684,-0.48942830206515675,-0.09515100683513344,-0.10134588480097668
0.1624655,0.24428435578129687,-0.006529229135181655,0.0023653526000650127,0.00473211157786995,0.002757515141119572,-0.5625434160139645,-0.1221576286084195,-0.08640279894647566
0.162931,0.14755706241230254,-0.008016047007854743,0.011386818861214723,0.0011880718092269068,0.005066832957767654,-0.6309771512126672,-0.15498792557031782,-0.08084051481903275
0.1633966,0.011591635741952815,-0.0069493240986097556,0.015746210936201856,-0.004135425918853983,0.002923630637517983,-1.8551875408463876,-0.18763887651111727,-0.06944903793323139
0.1638621,-0.14708869789521392,-0.005821204060196243,0.013834400526196522,-0.01510353524444463,0.003035939097558593,-5.323128393288459,-0.25389972432383345,-0.055733511691736196
0.1643276,-0.26996733078405144,-0.006919332633099307,0.012884773669006939,-0.007292565266198613,0.003691603151053122,-5.491487164215847,-0.23802146798616028,-0.0552224
0.1647931,-0.3353051370591022,-0.007452704425754396,0.007551055742456038,-0.008359308851508792,0.001291430084105217,-5.49335396549014,-0.13561456044677858,-0.0552224
0.1652586,-0.37605649824843007,-0.006840197844562387,0.0022874967668435804,-0.0138766114510392,-0.0013545950152736399,-5.49455530053886,0.04757759901624599,-0.0572574010777188
0.1657241,-0.37320944321328453,-0.005574798168541812,0.00038939725281271877,-0.02241796502827727,0.0033905595339027085,-5.494871650457864,0.11116365002857743,-0.0578901009157291
0.1661897,-0.34482709524938115,-0.004952431382422373,0.0007755827806826561,-0.02999170771972034,0.006164358779099322,-5.495173884308789,0.06926340008547015,-0.05614829414726712
0.1666552,-0.26981393115625707,-0.005018861215946185,0.003561091076463428,-0.03619344981109759,0.0014047501889024139,-5.4952163,-0.004347380741791672,-0.05302073779765349
0.1671207,-0.15503180302985695,-0.005442087269429556,0.005004275486151698,-0.04110562721501723,-0.006954265266019733,-5.49535987903457,-0.019207837266127174,-0.052159632748707885
0.1675862,0.07048364918395628,-0.0060481425621499735,0.0034667510353038403,-0.04863544482725246,-0.01581865517274754,-5.483457998409847,-0.012484242953025417,-0.052322433151882584
0.1680517,0.20968246025050105,-0.007352312696338454,0.0014297123821969276,-0.052925273262334656,-0.015520954060079395,-4.677559986675379,-0.0021232881074356464,-0.04954397420475923
0.1685172,0.2789509040658692,-0.005845918838328221,-0.00200785442148579,-0.055768132801993275,-0.006375005977324488,-2.572256988031088,0.041877773161068284,-0.04961078258176817
0.1689828,0.2854792482732442,-0.00251694933556837,-0.00952218390891858,-0.047497817884996595,-0.0018008901596771624,-1.3262359099690753,0.06998221503049121,-0.04582178616961957
0.1694483,0.26426163411297926,-0.006184518070860378,-0.008310905232980337,-0.050312545758871154,0.0064645978293257555,-0.8313176193217581,0.09606438846971008,-0.04177126890428831
0.1699138,0.2517592600306826,-0.004379246389219053,-0.008381904291681855,-0.05061168921553828,-0.0033733320971145895,-0.5360619829966501,0.055074079792878386,-0.0397417004196481
0.1703793,0.22474101316042655,-0.0041003014425541615,-0.009811725998874058,-0.042538978864986005,0.004467897876708317,-0.12506941730555632,0.00048300135128781334,-0.03071868990721448
0.1708448,0.20622075217414323,-0.005166251557896539,-0.0025361794510106207,-0.04715679278132096,-0.0014804863216140874,0.24509771002909417,-0.008355923604805034,-0.025028272417754675
0.1713103,0.16298151025784288,-0.00526664915101016,0.00032316726191680884,-0.05017677500940389,-0.031342052057963955,0.44395674862702217,-0.006890551463381706,-0.019065020802070246
0.1717759,0.11664425855456491,-0.0037932847539800217,-0.0016749093730822017,-0.0518654,-0.04675637375863522,0.49414692459812737,0.00032628350698280374,-0.014848976705591526
0.1722414,0.048762255138242575,-0.0034371092195926625,-0.013268424016243435,-0.04807005444936331,-0.060893532763979005,0.5393967079833868,0.03345233374540196,-0.015059283344347186
0.1727069,-0.0005409220842140278,0.0008890961122853704,-0.008389380564025651,-0.0463694615771996,-0.08619401633858637,0.6423730171720412,0.07946754416842805,-0.012184392845607616
0.1731724,0.0020223998398285234,-2.517260162890377e-05,-0.00885249012761588,-0.03359802598025302,-0.08119489428627867,0.7768504057137213,0.0835659977217575,-0.008994993165272532
0.1736379,0.03195390878505384,0.004770981574331314,-0.007728685358243614,-0.036338826056213115,-0.06596038163460935,0.8745428289845645,0.029510275835743033,-0.005911631175468922
0.1741034,0.06439658059776064,0.007077221968605045,-0.006784089015697478,-0.03699698901569748,-0.024285072149069116,0.9832955766340448,-0.026438519507094617,-0.004556327746075631
0.174569,0.07654095785083379,0.008905655452723038,-0.006323640486183522,-0.03456076037811468,0.003085416823125077,1.0809424110958106,-0.047351599391680106,-0.005094484810289035
0.1750345,0.07085495043142034,0.011740014435397106,-0.003702085564602895,-0.03199930364735222,0.022418342443350624,1.1929322518402519,-0.06768872973916011,-0.006612582086726086
0.1755,0.06464581501471957,0.011277162580091014,-0.0035248,-0.028889775480546085,0.03344815305450681,1.2596184464342957,-0.08648036001717857,-0.008146443549772465
0.1759655,0.054979146167401495,0.009297569018473185,-0.006144530981526815,-0.02192430724852768,0.04684261472061657,1.3413101742964735,-0.08219070392915256,-0.007528499118072556
0.176431,0.039492772646547436,0.007725999075094272,-0.009530351695660504,-0.010114181659077274,0.05490649630037708,1.4363595061872423,-0.06668182835013277,-0.005684648920943316
0.1768966,0.02623768372206147,0.005731415607825309,-0.013170030386585185,0.001412337568698764,0.04594565307989579,1.5191256053027067,-0.06553902428911754,-0.0034326916537643776
0.1773621,0.02011706929337653,0.00378392101099556,-0.01650859255257904,0.009202315956017759,0.024801591779875624,1.5956339901041838,-0.06887750357947427,-0.002180772279335245
0.1778276,0.00861170505008315,0.0012594447658977523,-0.019610218411367415,0.015640660652223592,-0.013697689816161825,1.6882868030937743,-0.07895588957363144,-0.0016233263545303363
0.1782931,0.0008804807091803477,0.0017291273224207641,-0.01977405738903795,0.017937812052116774,-0.03971231429481068,1.7343152391010677,-0.07483173959345142,-0.0030937012489632982
0.1787586,0.006493255281353716,0.0024818006856959763,-0.01750389588582414,0.02203671617943564,-0.05484204360727469,1.7605046696637219,-0.04226076093257679,-0.003602946367306026
0.1792241,0.023580986833084173,0.0037310154032120157,-0.01637851344759099,0.022020661506316687,-0.06202511931445408,1.7790616810338336,-0.010228007232440328,-0.0029343326944326446
0.1796897,0.08410573173330715,0.004888857660022846,-0.016134454254367797,0.0219883,-0.06113878014268226,1.8039230262258195,-0.01162455957195323,-0.0010905761712187085
0.1801552,0.20297013869865208,0.0051831641265652675,-0.016556668379846654,0.022579044506336493,-0.04556774283336548,1.8465229856762417,-0.014616330025647682,0.0012286257723662965
0.1806207,0.3127586093455177,0.0052033,-0.016329188637787474,0.021508040315630736,-0.01554568362986557,1.8916122964563673,0.0167315640788973,0.0049655363465503435
0.1810862,0.35862170248674907,0.004910670127894587,-0.015110880511578348,0.018975861023156695,0.0125001025983788,1.9204467959399028,0.05212900248674906,0.007441137753712308
0.1815517,0.3073076235043944,0.003021320099459342,-0.014183310049729671,0.015666066832432237,0.024338248528771755,1.9310494331675678,0.07593698303291264,0.00724560351567546
0.1820172,0.22325125961099396,0.00159540783327669,-0.013575480874957517,0.013499800305432828,0.01735153241124783,1.9303772926971134,0.0891849781402583,0.004035711597198621
0.1824828,0.07070036634557464,5.6712487457939636e-05,-0.0110977686079032,0.005361059894756132,0.0050325729981027245,1.941484060589094,0.09475738466793925,-0.0038162540486292064
0.1829483,-0.026545823260696357,-0.0007925181938083142,-0.009965348589229588,-0.003698215921893797,-0.011670537944594075,1.9515342460884526,0.058237007731193224,-0.011176984170007674
0.1834138,-0.11434135140305127,-0.0016104213860361277,-0.010564748049949267,-0.019632470951024984,-0.03244184864647182,1.9720577379534536,0.004091024689615037,-0.018092995181381504
0.1838793,-0.1645260944221425,-0.0038589399140113185,-0.014745628554964023,-0.033063176900514586,-0.03828159152798406,1.9756184777299954,-0.00526332508320956,-0.02014920541500192
0.1843448,-0.22058785772808231,-0.0063168462477985726,-0.015851170680617404,-0.03802140977312753,-0.03361933682378545,1.9664386465285828,0.0407870270656151,-0.021008323089734195
0.1848103,-0.2652804984343073,-0.009738346398368507,-0.01788061535402187,-0.037416154466802624,-0.02486085611482012,1.9514140177848858,0.08706919921715363,-0.019845890201223623
0.1852759,-0.29299040192516723,-0.013516995183550668,-0.023548494731557172,-0.037101267068037444,-0.014154778357041936,1.932835755057978,0.10092415096258363,-0.017011903612337
0.1857414,-0.2887332786097746,-0.015303683738501836,-0.036956624525599856,-0.04317110097106864,-0.000952317721440541,1.9088399266899057,0.07112864192911966,-0.010498827660974297
0.1862069,-0.26270127386515324,-0.01557485213744587,-0.048074448105302266,-0.049679061768722485,0.004199801081493137,1.8985356083070353,0.02584376163647492,-0.006702470075757824
0.1866724,-0.1972157534698867,-0.014817122195003859,-0.051970142187415476,-0.05525710646735081,0.013027545562544485,1.8772519736509032,-0.03872465839476212,-0.003814167466459546
0.1871379,-0.13634375435760296,-0.0138168313159606,-0.04453981127560485,-0.05554289169977194,0.026316516304557495,1.8373851465560027,-0.06873193753670301,-0.004814373214364164
0.1876034,-0.06850072085993165,-0.013318318506133058,-0.034525537012266114,-0.04956305792569448,0.03637843690527269,1.7737208686615473,-0.08550132863021186,-0.007786074024532234
0.188069,-0.04279523670295575,-0.013566357645672218,-0.03318406941731113,-0.044659636815518086,0.025663005944750187,1.74379108228891,-0.07006353300773353,-0.009390745874033308
0.1885345,-0.034851904029941795,-0.014199791498752426,-0.03682775100748545,-0.041826861744385914,-0.016966204982396236,1.7175582082457024,-0.10486789651601189,-0.011649008501247574
0.189,-0.04762718323768882,-0.013667488198429632,-0.0400215708094222,-0.03943149689293335,-0.043581211433358524,1.698661520366832,-0.16288871840343028,-0.012181311801570368
0.1894655,-0.07919418589999382,-0.011092397675292994,-0.046689566595081645,-0.02743074961487648,-0.05741958351229589,1.6625087732284658,-0.18733961100505211,-0.010546590486416908
0.189931,-0.10576578205778887,-0.007283797060301611,-0.05140952235175871,-0.012518188241206442,-0.044515150092949735,1.6205096815678244,-0.12185402596727682,-0.00993004029396984
0.1903966,-0.1033171662732281,-0.0039724161621775556,-0.05432716767564489,0.0014210452499836942,-0.023980156164919865,1.5919605482837742,-0.015857268316974576,-0.010350685252726002
0.1908621,-0.07668256101292203,-0.0026794704199378096,-0.05691305916012438,0.01060084447513681,-0.014153845553730515,1.5875646097899918,0.0738727810453002,-0.010997119608929514
0.1913276,-0.00683844326573077,-0.002506616129396485,-0.062248303526033104,0.024246269368287585,-0.008903389980857199,1.57142351652758,0.13574664326573077,-0.013304439885143198
0.1917931,0.0615139281259953,-0.002066620847053306,-0.06796876652056476,0.033927126840633114,-0.009196749298201004,1.538860807077108,0.0673942718740047,-0.01506459578920602
0.1922586,0.12933995443173588,-0.0005655880256403661,-0.06922974478974385,0.042178655522382036,-0.015026147897438535,1.4952895045104666,-0.0033289783804551533,-0.016143467184615783
0.1927241,0.19533907704678888,0.0016942665497518708,-0.0633879086857803,0.045022756847299214,-0.02781337566082023,1.4488590358157853,0.04451691585659952,-0.0162814
0.1931897,0.2693728272486354,0.003090254519236314,-0.053602695336563415,0.04116226355770894,-0.04084707456190783,1.4069330527365063,0.1630431477348905,-0.017784820225667533
0.1936552,0.3221919748343872,0.0015039706305920698,-0.047983497244042606,0.03708805788326869,-0.04530929957222641,1.3879844907120638,0.18197694104328924,-0.01987039552054881
0.1941207,0.33829056678802144,-0.0007554085472140601,-0.047842238720879816,0.0348285945729294,-0.041920188739250644,1.3727331133672735,0.13452837979123058,-0.020294086957504003
0.1945862,0.33456753491854996,-0.0019299405046874604,-0.05076448033764867,0.03220163948817038,-0.03071757838634837,1.32638848667254,0.09911565717665957,-0.01922522660979671
0.1950517,0.33022871556874855,-0.002332126444023295,-0.05410729106489784,0.02847450893510216,-0.020296448150148194,1.2545254298754662,0.08439815004589617,-0.017622532400758065
0.1955172,0.311986220747131,-0.003428213173354513,-0.05726408782236342,0.025166005186782754,-0.019868467458101734,1.1895773069690676,0.036539078239913675,-0.015341040315728123
0.1959828,0.27203842006998447,-0.004828133642667313,-0.05595299953599903,0.020107297486443257,-0.023691535924223576,1.1318064502710932,-0.048440997369809446,-0.013635266357332686
0.1964483,0.2163965953118669,-0.006428616390741535,-0.04776921988552296,0.014048983609258464,-0.025191227058765652,1.0992271380882594,-0.1031431868468663,-0.01356294733299397
0.1969138,0.17673076293672138,-0.008973336209199354,-0.03971628837489124,0.010038944187445617,-0.02955836034866559,1.0846815827448038,-0.12970622319681532,-0.013107295463888792
0.1973793,0.1539094137009595,-0.013516012518850222,-0.0339177828608751,0.006832646033819501,-0.03477550331208633,1.0439154359714815,-0.1397980618985415,-0.012938723033802477
0.1978448,0.13693347066638648,-0.016388902374420963,-0.029196168237422705,0.003708699926852369,-0.03464899268488353,0.9747428074062331,-0.08844604620994116,-0.011545017004653905
0.1983103,0.12590371856763283,-0.01792263740664798,-0.029933088340043917,0.0058747,-0.031200813713576275,0.922772657943347,-0.0004920980658772566,-0.011021987780056064
0.1987759,0.09839466335792246,-0.018046271657368638,-0.02655481268616169,0.00580066400022474,-0.027186649333857726,0.8761931860236153,0.11231043728999832,-0.010288157333183506
0.1992414,0.07527424586712787,-0.01897636699836031,-0.02150558798285666,0.005003405494894318,-0.025326379488086744,0.8565275553892525,0.13782255113299652,-0.010819663003403788
0.1997069,0.03303958681155372,-0.02095844258414508,-0.013350929663419688,0.0033478978465457682,-0.02409767870792746,0.835853185989922,0.08989081753907496,-0.011518080861381692
0.2001724,-0.021144639384093736,-0.02384661122826755,-0.006218240141183494,0.0018657660597254206,-0.02056917197180515,0.8067508068390655,-0.04546699552584999,-0.011751408991192548
0.2006379,-0.0724686887655452,-0.026758711953317554,0.003089468133019455,0.0021441445647596507,-0.016248543481922794,0.7608613496661674,-0.1750810358087551,-0.008933855435240348
0.2011034,-0.10112397330495067,-0.02432904660997916,-0.0013229704118440573,0.001893317767214021,-0.019289474050341468,0.7170327061231853,-0.21894352868278408,-0.009466760827074545
0.201569,-0.10945722960474616,-0.021504962386280104,-0.009658977816143428,0.002335346470060996,-0.024837055302786248,0.6838804894961559,-0.18098157138375567,-0.011502068002811476
0.2020345,-0.10776146811937388,-0.018391822844213496,-0.023832040616542944,0.003908613469488429,-0.026603367461657316,0.628982575895634,-0.03968987026134023,-0.016405115085417355
0.2025,-0.09205085517682611,-0.019508087151999615,-0.03401816145599885,0.0052619820434284615,-0.02391265955526902,0.5919577502214,0.15137101535898362,-0.02112789636832042
0.2029655,-0.06908913721427117,-0.021704251389316018,-0.04058083809036558,0.005900527618073116,-0.01929616550142158,0.5550771715538584,0.22274818365873209,-0.022607948610683982
0.203431,-0.04862737330188019,-0.02301011817757271,-0.04392720129259606,0.006072059527227263,-0.01256840646173344,0.5148118047988764,0.12598458539391857,-0.021702049058530723
0.2038966,-0.0320972575062913,-0.02190108663887289,-0.05456070418116165,0.004336703511297693,-0.012369284481502815,0.5055366827106685,-0.014845849516304088,-0.020320180553298456
0.2043621,-0.04729065251062548,-0.02083379836511393,-0.05446920653954428,0.005247328649345473,-0.009366745912784823,0.5044340745912785,-0.027449733641448246,-0.0193027
0.2048276,-0.06617706724125498,-0.02216585308535874,-0.052789690129862114,0.0032109675973965865,-0.0009896929220518731,0.4873581214925123,0.032324529938083754,-0.021887408945282783
0.2052931,-0.07043111704085833,-0.023090263480187813,-0.04579320313763961,0.0013353551294903161,0.01086708537402328,0.44911126282707164,0.07341058308244547,-0.02537458921120696
0.2057586,-0.047636536667860344,-0.021591299048983253,-0.04255181285663128,-0.00226791285663128,0.01778807428673744,0.4029789861639188,0.12763135227668948,-0.028759475237754187
0.2062241,-0.05078601722411199,-0.018615561001725053,-0.04243451407141426,-0.003029332934063733,0.014534432182932154,0.37629465493751385,0.21771043510634272,-0.029080693712450176
0.2066897,-0.08027453815133208,-0.015499314047420583,-0.0410529515072088,-0.0014983015608245093,0.007532248927431525,0.3623865,0.2773869289641218,-0.028268112486596074
0.2071552,-0.11285367308149959,-0.012565969706090785,-0.03016476390061595,-0.0012089954408638223,-0.002011094630841808,0.36297748594888607,0.2301230194303703,-0.025641121985658873
0.2076207,-0.13752121008610768,-0.012520093446113706,-0.020567398361194332,-0.002722502683591064,-0.009069106031493595,0.4024677489399327,0.14416342423866566,-0.023582250466047058
0.2080862,-0.20355881860422373,-0.011749248039123458,-0.015442351960876542,-0.006572927723802377,-0.02004651903924859,2.1202560562241186,0.09579308446198069,-0.02340262549864559
0.2085517,-0.256365535814685,-0.011650853935409005,-0.02205745771494664,-0.002878775815675333,-0.026060481899271303,5.425633125584775,0.012172338620535877,-0.025718963723513
0.2090172,-0.28850536153681006,-0.009101357593085295,-0.023857893175948455,-0.002007513998737926,-0.026310695076144273,5.44757454050672,-0.06395326702619333,-0.026677710831744892
0.2094828,-0.2988326226324093,-0.005512319604963305,-0.0166133182524384,-0.0032768309211679593,-0.01982153680513917,5.448691524736935,-0.10613959239722649,-0.026688
0.2099483,-0.28109952034138047,-0.002944988074305783,0.0004888134360763459,-0.01090304112671998,-0.007858247702776868,5.448981488074306,-0.16324194647635729,-0.026207390197897692
0.2104138,-0.24046053842447182,-0.0035248,0.008857450569795186,-0.018603991613872627,-0.005680347910750984,5.4495613,-0.18132132319049493,-0.026410126059190162
0.2108793,-0.18170328998708823,-0.003340350357562739,0.006782215881572626,-0.027458997854623562,-0.009923386159139728,5.449538250662793,-0.23707871022339497,-0.028024386569034505
0.2113448,-0.14315988345987965,-0.002239105484723251,0.00017482865562244265,-0.034066467091660495,-0.01405305443228781,5.449400636059232,-0.3367408791488482,-0.028987934827225684
0.2118103,-0.07493453702150395,-0.0011749,-0.01658943743939677,-0.039999326323531065,-0.014665341286060167,5.448943120432526,-0.46511445769060344,-0.028771797837371212
0.2122759,-0.0276380819505828,-0.000563604349009152,-0.03193457848181794,-0.041215774039784804,-0.010719634792073215,5.449501195650991,-0.48858930893848723,-0.027815308698018303
0.2127414,0.03847842477382997,-0.002747647286514104,-0.048631856946010445,-0.031035508041159232,0.0004765507737444297,5.449501951045792,-0.2616345726537959,-0.026986576992577747
0.2132069,0.10123596075727789,-0.004392566217495517,-0.05253994815436911,-0.02178688506007357,0.002784234699747616,5.449936636148542,0.05492524831444983,-0.024982392311536296
0.2136724,0.1662028805666558,-0.0062570838054144574,-0.05143642551665875,-0.015268622126803355,-0.0018093565938862644,5.449330589760862,0.3405285188648152,-0.021601770466661677
0.2141379,0.20184199067741465,-0.0068818,-0.061793262089822235,-0.012736395335863147,-0.0058076233206842695,5.449928334110689,0.6023978142599762,-0.017100495335863143
0.2146034,0.19221837761936966,-0.006638691572478398,-0.07423856900503603,-0.01158343876450139,-0.013405111703080168,5.450157895692833,0.6204832005278391,-0.015835332303751157
0.215069,0.16802344337283678,-0.006085612299294194,-0.08273300291363757,-0.009870320201643195,-0.022790595098946816,2.5596987298822262,0.3512171244501684,-0.015470842499592564
0.2155345,0.23014780898990958,-0.006457785656955527,-0.07062563254659117,-0.013068500698121766,-0.02100840347489987,0.5966631146708041,-0.02707800005784265,-0.014445855918091718
0.216,0.32814993729704056,-0.00961370411340417,-0.05229370272043834,-0.00824312164536167,-0.008520946325786694,1.0184177134949974,-0.19146040752111435,-0.013959282468042502
0.2164655,0.3427685463478196,-0.010521194099511267,-0.034618565687705306,-0.005615763601947262,-0.01952005934829327,1.0650022860311266,-0.08983816625231758,-0.014786030336739213
0.216931,0.31728208006216735,-0.00924123839700098,-0.02160450063703328,-0.011760412664280517,-0.026390098861263003,0.327983046887253,0.06955852906511793,-0.019214274925723515
0.2173966,0.2778610835301492,-0.01051322042042637,-0.020914818672990033,-0.01323215073651576,-0.059057137071575255,-0.49563859301025465,0.19674245103824994,-0.027273540760562043
0.2178621,0.25724190461257,-0.009981580228672179,-0.0165241003811203,-0.01655336005090068,-0.061335428265310805,-1.104997326339723,0.28798371125735844,-0.03566985249684516
0.2183276,0.19319099498350378,-0.013939383155894,-0.014718422867171581,-0.0149386,-0.05506347830443425,-1.588527820057579,0.2814835908259622,-0.03866510509030358
0.2187931,0.1174223179574537,-0.016401199076146,-0.018349387667301063,-0.01761442042412708,-0.04251874401092961,-2.031792344971339,0.1295323960316566,-0.03701157360508017
0.2192586,0.048579383560695036,-0.015018764657950944,-0.021047244383103902,-0.024215795754908676,-0.029495162740179905,-2.472818951783486,-0.11335972904093558,-0.03342269904111448
0.2197241,-0.007769138724421503,-0.014088085679426654,-0.021000442710873403,-0.03418699899972958,-0.02030231536005268,-2.9247036948564418,-0.2315727995542982,-0.02952402085530149
0.2201897,-0.059628668856672715,-0.014149017329373266,-0.010054394223542243,-0.044752235222582884,-0.01396812743817434,-3.320770362385678,-0.26967347350945026,-0.025496494223542245
0.2206552,-0.14548385087335375,-0.013419637761970303,-0.0065434291268624285,-0.0582916542660961,-0.0025525238498691626,-3.6409062469673086,-0.2117072741909442,-0.024228013915425048
0.2211207,-0.20988705192224397,-0.012949378908636762,-0.00757515581628683,-0.06999385696562427,0.021114038197713375,-3.9675207702891075,-0.0549801784704234,-0.024554966523201275
0.2215862,-0.23770307386868142,-0.013422753768134864,-0.00954144306522023,-0.08280504959083272,0.04746062702308731,-4.272053911942655,0.13321918320117201,-0.023400218492746056
0.2220517,-0.24499462798943403,-0.013894398007888631,-0.006899552475814827,-0.082457683116849,0.06634727719781244,-4.5323278835968015,0.2419760668507513,-0.0237998435686112
0.2225172,-0.25737086346017346,-0.01175983376307912,-0.003260675562236764,-0.0801850733132897,0.06608426729252163,-4.758637803458985,0.13179775308123823,-0.024395360449789412
0.2229828,-0.265698161715963,-0.008428896420102866,-0.004774737990862334,-0.075642886027413,0.04730998338086683,-4.913677074523824,-0.0804728071757417,-0.02560661039268987
0.2234483,-0.26255059088233007,-0.00440718452282827,-0.008048779564309775,-0.06979728314374423,0.021345488923529086,-5.057272202678934,-0.2671836461107324,-0.027589607738585865
0.2239138,-0.2312763376361052,-0.003577847750999061,-0.006678719377497653,-0.06407906387070925,0.0008052723799058131,-5.1674835548522635,-0.2800297032577875,-0.028931804498001874
0.2243793,-0.16291691208857365,-0.004099802955446518,-0.0005086546101939551,-0.06102738670049066,-0.014064267975269933,-5.239984063209746,-0.1355518482842069,-0.029181693560052832
0.2248448,-0.025589248139325723,-0.0038693190970685498,0.006614351988510632,-0.057930002168713336,-0.02641173289144208,-5.30268301192512,0.10889214999702788,-0.029094548494123542
0.2253103,0.07603805544639483,-0.0024368149529894875,0.008049349064810557,-0.05563766401780004,-0.029601453270652653,-5.334831210197182,0.21394332044886435,-0.03063009355374545
0.2257759,0.17450046546701992,-0.00030923829520756074,0.003260043730707506,-0.0483410757808547,-0.02739457329802179,-5.364488341548734,0.13632534643844382,-0.03726220406308705
0.2262414,0.21975884537655713,0.001065212024367799,-0.0024146284916604895,-0.03884771613886633,-0.026396177804360973,-5.376406560619322,0.007019060234327628,-0.044121366347668306
0.2267069,0.1992542255082942,0.0030926191944454784,-0.006974315166672871,-0.026130311138900263,-0.03658188657432439,-5.33523677719711,-0.07636346872223669,-0.048358778928112744
0.2271724,0.16980100347017454,0.003513628972073421,-0.007176539564269211,-0.021632119227520966,-0.045886102491583945,-5.299496738978521,-0.07926981869280764,-0.04777742229361886
0.2276379,0.13080304235346762,0.002600162528648712,-0.004019575171892274,-0.020713287815135834,-0.04938568653730933,-5.2143392525258525,-0.06946907540108198,-0.04331113477756138
0.2281034,0.07209109574131826,0.0019414809545218116,-0.0015080333408263409,-0.020238407195863593,-0.04547940002247902,-5.078995517695036,-0.05967140014133708,-0.040737242863565434
0.228569,0.02857326321005104,0.0031104816260226565,-0.0032292422148823647,-0.022364048069691268,-0.0267815513808739,-4.909230200113136,-0.11197113667038962,-0.041715881626022654
0.2290345,0.009498420706840805,0.0036446591487416255,-0.00684922814479159,-0.02294726868822758,-0.009889841286381186,-4.76897130064569,-0.21218457436182173,-0.043009203782625606
0.2295,-0.031118398993093706,0.0029647519091810398,-0.0082246,-0.020083617261931107,-0.004099264540827616,-4.649396383374811,-0.20329821934733983,-0.03945718180275872
0.2299655,-0.0975536590890048,0.0012899258600575243,-0.008647446865551191,-0.015365193919944047,-0.00258815388454594,-4.551245262855428,-0.0013897413479341762,-0.03273247352719643
0.230431,-0.1499339049728356,-0.0001974729282639715,-0.00741967624237249,-0.009636043645624256,0.02156890221989173,-4.426583009362036,0.27813956135082984,-0.0287022
0.2308966,-0.15034391479787595,-0.00047083995560467766,-0.006189565335310021,-0.007175740399557901,0.048632075062738804,-4.3421130050734655,0.34784782759494426,-0.0287022
0.2313621,-0.11830523010360078,-0.003028370009448874,-0.005670431996220451,-0.005704476663517042,0.06331880929679769,-4.206032187912733,0.2417821998336993,-0.03149468067485569
0.2318276,-0.09942673432674197,-0.008083100657815463,-0.003455291135168537,-0.004102688119209036,0.04251873211591137,-4.063822595416801,0.1356081516932163,-0.03582141815009418
0.2322931,-0.08789163969515905,-0.012997720645822643,-0.0013469525780595356,-0.0035964764141469957,0.00890619524001065,-3.934712247251991,0.07078525475529984,-0.03873078669691574
0.2327586,-0.07876447651047763,-0.015835978130088246,-0.0012956696268868655,-0.0026678075542034357,-0.020792329302029317,-3.812784536073257,-0.07779411009832116,-0.03855865705287504
0.2332241,-0.041580048270740314,-0.016381598128218405,0.0039127785525537185,-0.009704234669270378,-0.029815606614133492,-3.6796665302753704,-0.22441193502812035,-0.034535874781751776
0.2336897,0.05029806759943484,-0.016637676909368716,0.0019357083023324828,0.0032984601264970863,-0.03255951527494974,-3.5767282261750744,-0.2469629523587846,-0.03012083818737436
0.2341552,0.09950819207524175,-0.01760503514356765,-0.008694769958947565,0.005171358572612747,-0.01971644803939459,-3.4550498138312804,-0.18304557481561165,-0.024440312567639212
0.2346207,0.09632028247436526,-0.019732005929396834,-0.021867314041864244,0.004554729467920699,-0.011201274015849801,-3.3247345995126687,-0.1315167735630195,-0.023040958935841398
0.2350862,0.07514271589750111,-0.023525597561926938,-0.028494149104892015,0.002872832371881319,-0.01611111160331813,-3.1207603690810806,-0.09080873380327564,-0.025318422646240506
0.2355517,0.09412254403119452,-0.025330026204840466,-0.024340830214146715,0.004776061178772673,-0.025035087995805987,-0.47781018770251515,-0.030041888188548544,-0.03699275758379649
0.2360172,0.0907038712510224,-0.028291791402869693,-0.01731242549153733,0.006931605731420206,-0.027034207811795347,5.18389272222285,0.10608743369131363,-0.03677787520192105
0.2364828,0.055617904619936834,-0.026391132459249938,-0.009277808632181939,0.007852912976717929,-0.0050350649534101205,5.446573169057455,0.2186954236783777,-0.039293334528727755
0.2369483,0.02871240357243468,-0.024735089757452564,-0.008940109973050284,0.009011150134748578,0.009858763442855243,5.4479538401616985,0.2806174268505133,-0.03969208005389943
0.2374138,0.004265903916814653,-0.020871789297669918,-0.009473732791883528,0.00966504261839819,0.026501034560291827,5.448796232791883,0.2367712748976869,-0.040358032791883526
0.2378793,-0.004415835024612992,-0.01910098269498739,-0.011078421631265765,0.00882868702124054,0.03625730815632883,5.448738842847944,0.06824173158920749,-0.04060275715205624
0.2383448,-0.005182994621053117,-0.017625496867431437,-0.023209671028023196,0.0071520608228015335,0.0399556588455952,5.4489880587657975,-0.12225790998606771,-0.039895466993813036
0.2388103,-0.015133614656921368,-0.016347604867331122,-0.036685058615978566,0.00623522682524917,0.04543744881468141,5.4488899,-0.254578361603418,-0.03848715365049834
0.2392759,-0.006669585289913914,-0.01169221882128742,-0.047420272211583896,0.006497223823669536,0.038029766025111475,5.449463547647339,-0.24531526102272935,-0.03628627860221877
0.2397414,0.030297752419092574,-0.006769399133224899,-0.04531892249151024,0.006622495079669507,0.011491618464523845,5.4497824073804955,-0.03448282187360954,-0.03539415817719081
0.2402069,0.07749469673794755,-0.0010786460633686783,-0.047857608894610465,0.010043705416457827,-0.03422326355019016,1.580014691257809,0.2094208538934817,-0.03225552622901235
0.2406724,0.14348953699341255,0.0014098199800838692,-0.051526809136713994,0.011804221338207466,-0.07069928366495494,1.1862909333887737,0.2859612472098455,-0.03482381852237962
0.2411379,0.12898262308129269,0.00021603557867957404,-0.06389245819333285,0.009209342092465385,-0.07584245969820812,1.5785458786679691,0.2271157785851455,-0.03698226881722272
0.2416034,0.1357034865590911,0.0005359783291009775,-0.07195885914162202,0.004374830810055376,-0.07213721331640391,1.1937226057515014,0.16014521152671427,-0.04252553420264169
0.242069,0.1313992741388942,0.0037992652972983518,-0.07426925174316613,0.0014009474447013847,-0.0546456978877329,0.3099863500184827,0.02922692417338756,-0.041755535127250526
0.2425345,0.162339424150432,0.00571099186568186,-0.05690296472744476,0.0025417109917580797,-0.04762062367296646,-0.4928386286220712,-0.08917350421911675,-0.04491499216959721
0.243,0.14907015690206693,0.00627452534513573,-0.04460132357551973,-0.0008502530241514192,-0.04253212397730374,-1.0511506362674332,-0.10293214853922981,-0.0307990678360627
0.2434655,0.15439021237531142,0.006116522029779822,-0.037997728990536314,-0.0005033608352628801,-0.033066760354967625,-1.4707699517269683,-0.07964171706907866,-0.03045636019448928
0.243931,0.12944860302031322,0.0048619688257348906,-0.039881567942805576,0.002136051232408791,-0.017243807051057942,-1.9003115466804872,-0.1287978779295781,-0.03727457366458313
0.2443966,0.12516874184745158,0.0026974890093322233,-0.0451385756706692,-0.005609825227060539,-0.010233356274485383,-2.347233512972331,-0.12141234343127355,-0.036106638637758
0.2448621,0.06414284373692541,-0.0014735305929096604,-0.052273175339004274,-0.002329014498624203,-0.009368312938060227,-2.659067642092341,-0.0790508095744708,-0.034871069285155265
0.2453276,0.011159574292084414,-0.00775547514122818,-0.050457358123775345,-0.0019001664316862401,-0.018133690847119258,-3.0096857887513746,0.033397675486246184,-0.028772062781856553
0.2457931,0.024471118034811806,-0.010951756395873383,-0.05861269402799184,-0.0006936123137413652,-0.021941933194909675,-3.328644820277694,0.03645483764930695,-0.026769343572759403
0.2462586,-0.04385290712402678,-0.010564694754804637,-0.05983767031406551,-0.001481872903001724,-0.026822610321012068,-3.654925608529455,0.029551844650412225,-0.024558891612006896
0.2467241,-0.12277716606806766,-0.01278306429467983,-0.04123773161915834,-0.001395760122783262,-0.024099576838947777,-3.87091683844245,-0.07028906814532912,-0.025583773252389277
0.2471897,-0.22240095263565507,-0.01569310575251336,-0.03460004146028634,-0.0009888042186867647,-0.017762012902399805,-4.089904355823709,-0.2573468647688529,-0.0218204
0.2476552,-0.2516146364186985,-0.01641086411885899,-0.02856418260522958,-0.00249558274374023,-0.01464202837622863,-4.247245567229328,-0.3654351233925507,-0.021874071147226615
0.2481207,-0.22505038436205219,-0.015647566406557404,-0.025816147121224833,-0.005396241388045503,-0.018764127079935477,-4.384036030189768,-0.352611048755928,-0.022942706135528727
0.2485862,-0.15950098714679503,-0.0149610878504544,-0.021138611603783948,-0.0081346485981824,-0.014586794665265624,-4.508383095526822,-0.19899948897354525,-0.0229953
0.2490517,-0.08475668919063704,-0.012801241438131434,-0.008787395774832403,-0.01822951549766573,0.011431120169136434,-4.617097295488349,0.07008632713672684,-0.02227565774866325
0.2495172,0.06957209912894984,-0.009806182854508733,0.0025974078775573162,-0.00781621214088155,0.004542096467036452,-4.655742056735919,0.2565375628360699,-0.020067507136271832
0.2499828,0.1734116199711659,-0.008501541775365022,0.011782934202920177,-0.00905584555989683,-0.012662147780793722,-4.684867419320667,0.23637599615961677,-0.01850988420122956
0.2504483,0.2506379588190397,-0.008896,0.013454182341027925,-0.009774231552155918,-0.029141321937279988,-4.690060979138391,0.022003093101216856,-0.014685632620862367
0.2509138,0.27936213123897274,-0.008896,0.002016456574803986,-0.011073973116499547,-0.029791231436805524,-4.673294351675711,-0.15827024880881646,-0.015205529246599818
0.2513793,0.2815176826001652,-0.009551282135283282,-0.027206546829986047,-0.011278135729433435,-0.013138954271100145,-4.621953662474826,-0.3681589184329648,-0.01629751786471672
0.2518448,0.2405233900896681,-0.009144533357926718,-0.04440589127100765,-0.011975411094715522,0.0110912463756845,-4.555814010503617,-0.4289355009621861,-0.01658804445264224
0.2523103,0.20111444552047802,-0.008938410327734242,-0.048543657717387535,-0.01265048049736498,0.02330951690215753,-4.512834652075163,-0.4220566352124822,-0.017203679344531514
0.2527759,0.15525132857607507,-0.008277738800084563,-0.04732501640025369,-0.012601980742708057,0.030291289599323507,-4.447884715263943,-0.22985279339411357,-0.016361108200126845
0.2532414,0.11595866996944727,-0.007300844387000569,-0.034729633012448705,-0.012804271713443371,0.03363200707499883,-4.413756777655438,0.15640364076977534,-0.016261846824223106
0.2537069,0.08611832211989631,-0.006356886320370141,-0.03294911094370389,-0.013493255212132906,0.0384521922762901,-4.283355876325712,0.4762480694207463,-0.017156657948058877
0.2541724,0.04661137822140919,-0.007306118886068994,-0.028809594430344965,-0.012275148121957666,0.020806181305298273,-4.198536215895454,0.6141566395616871,-0.017963272577681693
0.2546379,-0.0025376459723755775,-0.007218379466368753,-0.028496632415525882,-0.011603609341450046,0.005066206886271579,-4.118917444121645,0.48886310052189685,-0.01768458652570073
0.2551034,-0.0017303994725223438,-0.007233382090257423,-0.042000437584137656,-0.012546325300153914,-0.020370441336142832,-3.975062436392518,0.19881361531729605,-0.015673522848869866
0.255569,0.011515950717254295,-0.005783865848193559,-0.0496594453333043,-0.01412896768975805,-0.029961451389562778,-3.831256341558164,-0.15854825361328717,-0.01610209101627068
0.2560345,0.013995897112211312,-0.004807237019951975,-0.03811647593478645,-0.016908486298004802,-0.022432624014594355,-3.6725622245593743,-0.3750222608395161,-0.0135958
0.2565,0.0013407758468350838,-0.007683400943901117,-0.014244401042622331,-0.01662086990560989,-0.010065204818226802,-3.53652035636949,-0.3807745030108006,-0.0135958
0.2569655,-0.017315896255707307,-0.012726972340317227,0.006111441882808083,-0.015017222562168286,-0.0031992695748115454,-3.3899535023643295,-0.22506526934469243,-0.014385812286713404
0.257431,-0.05421745910709596,-0.014825192730096817,0.011579171429980615,-0.014749508016001948,-0.012838350374385294,-3.2424574511445305,-0.03237628900494664,-0.01271192706446275
0.2578966,-0.10393526086376158,-0.01255373884111788,0.01089271942055894,-0.01374175057749935,-0.035800770144101976,-3.0741746253910462,0.15534485897096154,-0.008503489418617229
0.2583621,-0.12998902029230744,-0.01129366441196584,0.01014327117606832,-0.01298410195788164,-0.0503063110299146,-2.9001330822052735,0.24452795750156778,-0.0065096485758304
0.2588276,-0.12521167512586137,-0.01182448054157096,0.00908163891685808,-0.013647582589345173,-0.051633351353927395,-2.773666732284997,0.22369354300619543,-0.007969353401701611
0.2592931,-0.09250204375770278,-0.01281097322372668,0.002938178508488815,-0.014806263129658272,-0.05126961785084889,-2.620630049516411,0.1917508366526095,-0.01179929289490671
0.2597586,-0.046370717306625,-0.01360181673846797,-0.006732648955082032,-0.014550133761014456,-0.04466685287339688,-2.424722048356744,0.24677273954093007,-0.02048666138987031
0.2602241,-0.0287022,-0.015531599516711346,-0.01195835726926766,-0.01432233561072386,-0.037383135507657254,-2.3149947381905744,0.30227068787790795,-0.025919820979803394
0.2606897,-0.0287022,-0.019539076407587057,-0.017826405796359975,-0.015181080658768654,-0.018347748179638988,-2.1976335118414454,0.27049720636934477,-0.029641049521330835
0.2611552,-0.025873325124918873,-0.024016682357001027,-0.021768605028779232,-0.016992744540221958,-0.0031978832448787946,-2.0516858806623373,0.14787174201289224,-0.031727328591886636
0.2616207,-0.031968301739952625,-0.026128411715205736,-0.017639126033861013,-0.01713179563695622,-0.0068672600361395445,-1.927592834854461,0.053093311035393734,-0.03052996033861012
0.2620862,-0.03208057449203583,-0.02461086142057287,-0.007695497178881394,-0.016177400576013395,-0.023408067217110255,-1.7941748182330386,0.04099793818958001,-0.0309147572931273
0.2625517,-0.028905700771317284,-0.021481114726467018,0.010778739964606439,-0.01490644331853172,-0.03601602247535917,-1.6436406678370503,0.05998539180227944,-0.028423536430508906
0.2630172,-0.02507830247113098,-0.01929402998350342,0.03264942451929882,-0.01449632421049014,-0.030821696210820617,-1.5288192888937637,0.022258342861100955,-0.024869523723193055
0.2634828,-0.01893896560566055,-0.018744966998231076,0.058471033996462154,-0.01401973648720781,-0.00407876819988811,-1.3857047097800943,-0.07982002601484084,-0.017135435293575932
0.2639483,-0.014153220209511548,-0.02024051243452764,0.061462124869055286,-0.012972899231857895,0.019550760593482246,-1.3076375944058751,-0.13844513981732007,-0.010704634467558385
0.2644138,-0.009058794738603328,-0.02274606191158042,0.054596186186742286,-0.012619855921162708,0.03206576687772158,-1.2245350675808204,-0.13095901871850968,-0.005533994738603329
0.2648793,0.008784426046540315,-0.025344709515981476,0.02509828489824138,-0.01401971468858804,0.02483159113370678,-1.072735944527609,-0.07381061348656044,-0.003456292285614694
0.2653448,-0.006067580977827895,-0.030627762002324158,-0.039614740744671244,-0.0182956,0.023701605643879377,-0.8683841885989599,-0.023948667646203535,-0.00013299435612062268
0.2658103,-0.008579432171178415,-0.027599440283945353,-0.13381826235429267,-0.018291773565764315,0.0193027,-0.7204296732406774,-0.016777809098061258,-0.004644779240033934
0.2662759,-0.010347897769045974,-0.01828445415557089,-0.2658111367386782,-0.017850802230954026,0.019957275781412282,-0.5860576563886023,-0.045153606439902697,-0.015689618927596936
0.2667414,-0.010318512364951942,-0.012067004481778798,-0.3405181304204416,-0.01757105842336537,0.022872166306538516,-0.5109933693546761,-0.08747954240589635,-0.02261617867149046
0.2672069,-0.011215249132678198,-0.009974618690417535,-0.3626375483162069,-0.01697323391154787,0.02526346435380853,-0.42670046935433714,-0.16146001409812455,-0.02590421348648673
0.2676724,-0.01384804510759701,-0.0079960830460953,-0.2939905619477548,-0.0162814,0.02092702698243443,-0.302493100843255,-0.17772342730877413,-0.025891417661395515
0.2681379,-0.00938455620275815,-0.00878818618995984,-0.19159011933720907,-0.016959613911126464,0.0031531899031798033,-0.20338234610593794,-0.10016577229762395,-0.026446683149789173
0.2686034,-0.0037981557993475895,-0.0020004472908403703,-0.054127951393530306,-0.01529211262875783,-0.009678727603207645,-0.1418696061670535,-0.009896933632019886,-0.024938249484968675
0.269069,0.00622768829612339,-0.0044417095207140295,0.036560850933654666,-0.01283778608095602,-0.024994203670609092,-0.10204370297489301,0.06504060113958847,-0.024376732964138774
0.2695345,0.014329031759045298,-0.0029313961251530877,0.08306345398102585,-0.013201380986761532,-0.03292932175409836,-0.05816748510441184,0.07094059330926693,-0.02636260725136612
0.27,0.022795977636858727,-0.001053993762431133,0.10066759148380781,-0.013870130063413571,0.0009785044663545544,-0.008752803481298334,-0.049443645941605385,-0.031190054457797572
0.2704655,0.026242943807984347,-0.002174035247899036,0.11421152118797456,-0.01868553779184203,0.0016978302059259072,0.039398091500121184,-0.28580863852215327,-0.032449578096007826
0.270931,0.025686535185270643,-0.001281968520142238,0.11944990845599326,-0.01505452777444488,-0.0005043465637667625,0.08439924557754386,-0.48626242574766926,-0.02914737795774363
0.2713966,0.026611284205684326,-0.0036877526630518893,0.10557920341416033,-0.013183657805160008,-0.003433014656262233,0.11640927364561986,-0.46441005175101985,-0.02429899845192947
0.2718621,0.031230935935170845,-0.004028257568277841,0.09672499647113972,-0.0146029,0.0,0.18331933530695269,-0.17965300573423532,-0.0148680961307682
0.2723276,0.036390557197639145,-0.003503305784750438,0.09695764979936947,-0.015285216418533566,-0.0011156683705349968,0.25481351763926674,0.2494404874854693,-0.013845096635109867
0.2727931,0.040762354410473316,-0.0029348000311382005,0.12421305070565883,-0.012830480904451378,0.0,0.3092667624650544,0.5706101242540185,-0.012253
0.2732586,0.038267430119485336,-0.006200093518111547,0.16032262780679163,-0.010536094385023335,0.0,0.37810817626524923,0.5249458915420364,-0.01376881628879664
0.2737241,0.03680284472674993,-0.009756508005750725,0.17175379182125733,-0.010702648640390267,0.0,0.3773932912913252,0.19647597036583883,-0.0129244
0.2741897,0.031077498831891464,-0.017251461275077096,0.13735104418190971,-0.012129727151088013,-0.00016639282660055102,0.4011389810788628,-0.15654959965219428,-0.01327094459206112
0.2746552,0.025187651976887954,-0.020977935348612625,0.08692034664222631,-0.013978733921550269,-0.0004633402587999802,0.4171920176410407,-0.2987733978977607,-0.013204856876898007
0.2751207,0.023773361749571693,-0.018618493296720356,0.038744846342795,-0.012677774622865283,-3.1546709473214904e-05,0.452898912056524,-0.18921286138289348,-0.011103193910624967
0.2755862,0.024317491386751888,-0.016747059622631566,0.05270166635951897,-0.014527777599266042,-0.0038362796180329544,0.49857772357681795,0.11245896275841234,-0.01608862126403005
0.2760517,0.02319949229096424,-0.0155135564864902,0.14352531603805416,-0.011371183486881022,0.0,0.5355713118141618,0.4237071841474811,-0.02673552308648984
0.2765172,0.025530087093569364,-0.013057708649287798,0.2207855361558424,-0.009677360905429417,0.0,0.5386032597641158,0.5791328823410096,-0.032381472912376176
0.2769828,0.02019133367716245,-0.01364399821770233,0.27716853367716243,-0.007505356436704805,0.0,0.6301064748464636,0.5089768329791433,-0.039612840402526495
0.2774483,0.016410080010730157,-0.012946755230909672,0.27236453319107895,-0.007206322384545164,0.0,0.6914473789671209,0.2917437596869445,-0.03854382477982049
0.2779138,0.015439126853890556,-0.013801833567363198,0.2388635416389093,-0.006854328857684907,0.0,0.7431869932957484,0.008380714906977317,-0.036697187883980624
0.2783793,0.01944519426138605,-0.01879160825489051,0.1727505180807783,-0.0062104,0.0,0.7615395882077796,-0.14055000251657823,-0.03524236436038514
0.2788448,0.021268842874963917,-0.023249435011765997,0.07589282378618392,-0.006022932388875799,-0.0003561915884256189,0.7573628686386986,-0.22334125521119116,-0.034495596317682474
0.2793103,0.027866301322156183,-0.02397500778845501,-0.003318920147758596,-0.005230692211544989,0.0,0.7427878318715961,-0.39577421614013497,-0.03462496009445684
0.2797759,0.03284866100923774,-0.022070789713624528,-0.0364944180151163,-0.005662753002519383,0.0,0.7301882592855357,-0.5177246580542784,-0.03284511763269031
0.2802414,0.03543322782930152,-0.022764299547311757,-0.038732046038237704,-0.0064414004526882436,0.0,0.7303781625628389,-0.4544932953466996,-0.02932815662093564
0.2807069,0.03648571532813323,-0.02275731225752851,-0.06711293650402697,-0.008206510824797205,-0.003352500710550991,0.7384335967893013,-0.20834030034523604,-0.023424212968079502
0.2811724,0.037504813046367644,-0.025378309150484633,-0.14846713014106155,-0.009583332532418014,0.0008455865045226479,0.7295554475308372,0.06691974948447343,-0.015856665964640165
0.2816379,0.03972558975924376,-0.027041936746918748,-0.2636045030957997,-0.011762290367417487,0.0,0.7284620252898151,0.17003011994424716,-0.011763967469187458
0.2821034,0.03900375469713793,-0.023870305519883745,-0.3955768956694516,-0.010779215984840428,0.00025260924222378063,0.7318838026078898,0.0924011348275335,-0.013609009350506433
0.282569,0.03655049999610367,-0.01999473683984949,-0.486485916544373,-0.009792584210936456,-2.8642105468227913e-05,0.7430719704249527,-0.03713471779603962,-0.017648207264802148
0.2830345,0.034133085941116685,-0.017508420919906387,-0.532466139614051,-0.010852316208095389,-3.859302669787066e-05,0.7542354232936765,-0.09210208070873069,-0.0236513814538638
0.2835,0.031428420580945714,-0.01702932244160015,-0.5328539734935855,-0.01033175046516361,-0.0002982252325818046,0.7557422970945166,-0.05330962511807998,-0.027353119536116674
0.2839655,0.025653402714542063,-0.01584800135727103,-0.5012356798962445,-0.00858961250311487,0.0045319,0.7591359713134654,0.05070418423935753,-0.03397217674254953
0.284431,0.02233477774686223,-0.013683949668126185,-0.4106178815408889,-0.009041460612561211,0.003791627414988414,0.7732012293632174,0.14014351257141022,-0.03803529246086484
0.2848966,0.021346819639593624,-0.01001423481926167,-0.29798636878869394,-0.008900275689409966,-0.0008660455411447057,0.7980422078550591,0.1717594333344685,-0.039729007006494614
0.2853621,0.02651407481211856,-0.005969292742547713,-0.12656109196983759,-0.006670660219566548,-0.016133935553594297,0.8383850338354591,0.13270102538178077,-0.03635364925718429
0.2858276,0.019254174954766074,0.0002892991209991254,-0.05089342019289461,-0.008380131447422636,-0.032836047713370266,0.8556484358370658,-0.026812143482807405,-0.037062887452847
0.2862931,0.01902016179987563,0.0011293350052642632,-0.04037955071187567,-0.00900611974002069,-0.042718060028766866,0.8393305664384666,-0.23273843629504612,-0.0350501218286425
0.2867586,0.019993935028157266,0.0004836664489821575,-0.04305052101324226,-0.011944572425146528,-0.043739277401449575,0.8133570322043487,-0.32958250475996553,-0.0337377
0.2872241,0.021451004612086124,-0.0011297955054946653,-0.03826837781132959,-0.01378595964684137,-0.0382594864475979,0.7986612057412806,-0.2892424081478351,-0.033648288047115574
0.2876897,0.022214803017800867,-0.0032213255791800005,-0.04899815544845127,-0.013840571403019133,-0.03205777388455859,0.7921141062072761,-0.19536207169051822,-0.03284808436787935
0.2881552,0.02146357326683577,-0.00459867959030896,-0.07779808099751587,-0.013214447142855272,-0.027424767682578795,0.7830984539864584,-0.1340058480352544,-0.03134547566440973
0.2886207,0.01901988120168634,-0.00539759060084317,-0.1485615971400466,-0.0139315,-0.01778858834035976,0.760093762524496,-0.1510494908893681,-0.028560790600843173
0.2890862,0.017423227585379193,-0.004599263792689597,-0.19034054156035407,-0.0139315,-0.011135864939079981,0.7443934145673405,-0.22582578484029367,-0.0277624637926896
0.2895517,0.017015451110171106,-0.004409809709505571,-0.19585108648473076,-0.012743709667881844,-0.0030818167973342987,0.7264813283687248,-0.2897435752717976,-0.02735225455873108
0.2900172,0.015125667739889343,-0.006076780185793326,-0.15447159332126803,-0.013004571888524004,0.0025569355595773313,0.717114704918004,-0.2587073471563133,-0.026459195851365337
0.2904828,0.015177940494786652,-0.008968515830675003,-0.0888332812310925,-0.012253,0.010716696182513336,0.7113838657002041,-0.17395470493826004,-0.025057192084662498
0.2909483,0.017077465378695648,-0.006835954033607435,-0.0585902159940782,-0.012335203205626066,0.012694434940202576,0.7219863859154645,-0.09386453164876764,-0.026509848620031053
0.2914138,0.018237059071739663,-0.0029997540644973795,-0.05556980818565207,-0.01306293127971637,0.02051670995782726,0.7171612590717397,-0.03054421206820531,-0.028932526329131392
0.2918793,0.0200246444262366,-0.0003041116156555314,-0.08588472119492553,-0.0156352722131183,0.01855985903361211,0.712115648354214,0.0023500541458940753,-0.02899999168032255
0.2923448,0.021069812502165313,0.0001338644266237427,-0.11300825476592859,-0.016236148075541572,0.012247171169042722,0.7071978346179616,0.017454749964080838,-0.02778560384891686
0.2928103,0.021307521004378355,0.0004847475948172376,-0.09025488201819494,-0.0162814,0.004301178728764655,0.7020589860777414,0.03162605697356726,-0.02801204759481724
0.2932759,0.019701876598386996,0.001795518721290404,0.003586657480991438,-0.017573418721290403,0.0003074485164513889,0.6865964800248378,0.026257811073870582,-0.028676809360645202
0.2937414,0.019140921144717403,0.0027229130465166776,0.11286926075766511,-0.01890484050511008,-0.0009572949488991986,0.6425526609291894,0.008896202896163241,-0.029053444502818018
0.2942069,0.021957113982851058,0.0008320752596310869,0.1699537656332822,-0.02062100418167166,-0.0010840852356409996,0.6058955073077035,0.0161416081885128,-0.0285134311413846
0.2946724,0.02609856174442754,-0.0008801842488836964,0.15835152403389952,-0.02037558404820433,-0.002370342124441848,0.5857756299917871,0.016835080762375144,-0.029350929038118756
0.2951379,0.030507969864705,-0.0018115616441175,0.1145260279872693,-0.018408497069609196,-0.006815213510784197,0.5662917641872592,-0.006267886006365353,-0.029214482001961698
0.2956034,0.03125773312782269,-0.0039583562405910286,0.05499329776886799,-0.016324755624059103,-0.013271244992472824,0.5529207767045085,-0.006185068522960054,-0.028388184269524944
0.296069,0.03046616167950888,-0.006596927734970412,0.007631135942486291,-0.01658861277349704,-0.015382102187976329,0.5418388550272063,0.018485457050850244,-0.028520152143789557
0.2965345,0.028014258580541015,-0.012044759744851594,-0.07519106424332667,-0.01960531716108203,-0.01646822722486913,0.5268885432216406,0.03675810663214896,-0.0310521
0.297,0.027733791979500252,-0.016036720307496238,-0.12031588226998251,-0.0202324160409995,-0.016320091979500254,0.5198279914670065,0.026453631057011536,-0.032240132081998996
0.2974655,0.021808068866659543,-0.021071770124812667,-0.09934363124643789,-0.016672565831240056,-0.013475039833583106,0.5132768878282428,-0.02673263720417943,-0.029995457537013215
0.297931,0.026348454174536975,-0.02219993446226804,0.012382406653419257,-0.017467128429520713,-0.009070782604057689,0.5159092705385631,-0.07041425289012661,-0.028959364214760353
0.2983966,0.024112358414675617,-0.032422987755891655,0.14455498622147986,-0.017803167562526957,-0.004297960198851383,0.4981724134427033,-0.10795992594976915,-0.026820179602297232
0.2988621,0.023879658716421934,-0.03795485090831338,0.2214876096640664,-0.01811612040961929,-0.0035248,0.4908056121765023,-0.09541221464960718,-0.026486203208245105
0.2993276,0.022200882640348786,-0.04512795202218084,0.19752638408344433,-0.020252802368761518,-0.0035248,0.4749332085493801,-0.11708418359440116,-0.028317644887509874
0.2997931,0.02028455438692457,-0.048773742905308254,0.13784555796660664,-0.021127830795302834,-0.002898518201634429,0.45578482404973764,-0.18775078201973286,-0.02961906359673114
0.3002586,0.018371183874173587,-0.04755528848155256,0.11206143091788495,-0.020656297696310513,-0.0028534,0.44212968620643267,-0.251179492967817,-0.02840969078524205
0.3007241,0.015553505380815416,-0.04251319083283407,0.16866925047560458,-0.02290452338335223,-0.0034385752765274907,0.4285263226497059,-0.2578281271493685,-0.027939478710748648
0.3011897,0.014587133010978064,-0.03519625757010404,0.28260357077256926,-0.024343069011480683,-0.00671643204270851,0.4249421123249303,-0.11616902922502323,-0.02667146320427085
0.3016552,0.015848779350960834,-0.02540380861803332,0.35585774848858553,-0.023173507554212495,-0.009640090486779376,0.41061723444483816,0.11491881704099485,-0.02690001572422375
0.3021207,0.01926431357811677,-0.02038273305810414,0.36097844308279853,-0.023165118749357165,-0.0095674,0.4048073365500263,0.28991674706299403,-0.028015445431246712
0.3025862,0.02098977386291961,-0.01652278750788426,0.29595383900393313,-0.021945430685401935,-0.009110346572990313,0.39127506707197435,0.3491478942063336,-0.028336492756794004
0.3030517,0.02166350280737944,-0.012707771901007334,0.11751419939659188,-0.020194265013870578,-0.016916622838900334,0.37631192199934976,0.26631525063618894,-0.026884711268598135
0.3035172,0.019697441445130675,-0.007263720065846341,-0.1544115626260481,-0.020296641821174834,-0.03293539181083,0.36377686334438536,0.0385623323392565,-0.02685905632472716
0.3039828,0.01146270014827644,-0.001882173007454544,-0.39612268812842205,-0.021577640460698187,-0.0503001926900509,0.3532778951418183,-0.12660810298597236,-0.02764212178157086
0.3044483,0.005701085970978072,0.00035305942226209185,-0.5126050358820633,-0.02158314162034107,-0.05735233296272856,0.34451344972204645,-0.136541347955004,-0.028198678425179886
0.3049138,0.0033655131275119594,-0.00038970871140849234,-0.4935191910756118,-0.02135388478523475,-0.058233723914651085,0.34303409350816594,-0.060124415427744944,-0.02971213693288726
0.3053793,0.001982175985502993,0.0005035,-0.3541467059351617,-0.02078574631443781,-0.04862774812227785,0.33630866022281014,0.06929726828930473,-0.032061946291826626
0.3058448,-0.00038719073395580015,0.0034763101486271113,-0.17723672719894284,-0.02027778338427975,-0.035378508878068586,0.3349166097951041,0.12455704114462905,-0.03287420030567851
0.3063103,-0.005451944799029168,0.006641863314311912,-0.02458832502381786,-0.0203098,-0.025703206462992997,0.3336132408600805,0.11728606501020211,-0.03091281167844667
0.3067759,-0.0035523893010246175,0.008360333882476315,0.04443259905226199,-0.0203165717080476,-0.01976079220509582,0.32261885318373945,0.058331731196023605,-0.02840882367959508
0.3072414,-0.001092636469097267,0.008907752433110924,0.04897849732443693,-0.0209812,-0.022117573263346426,0.3127684975393225,0.000558659919762677,-0.027742109732443693
0.3077069,0.0016301621533492475,0.009413804861339699,0.07561696668104659,-0.02070804270799045,-0.0256809,0.304202414505083,-0.02681905538337312,-0.029128952430669847
0.3081724,0.005721888910500219,0.010192803298486191,0.1629036109885915,-0.019034358241443616,-0.02410921438798597,0.295779717636018,-0.02807854326486621,-0.029945050500884172
0.3086379,0.008326105130209552,0.0105745,0.2966318442634346,-0.018091414200720874,-0.020427472145621958,0.28833734200720873,-0.031446642602162615,-0.03087674773237217
0.3091034,0.012709772568873,0.009107664396587308,0.3630833302885019,-0.018840001362047616,-0.012597589103619078,0.28276842044493794,-0.006702716373018863,-0.032372295737906204
0.309569,0.016583358636665213,0.006495468578864545,0.29257117658883935,-0.019685597328851858,-0.006459990793254684,0.2834138727844703,0.02856423267451625,-0.03356227318223721
0.3100345,0.022747857594881467,0.004900212122683189,0.1520738619765231,-0.02007193636804957,-0.001855888487830803,0.2771612908958513,0.05666690245656575,-0.033168885469296326
0.3105,0.024610796416314962,0.005478594017258568,0.04043098749479635,-0.0209812,-0.0005519368349889374,0.27731155890661907,0.06209161024113344,-0.03219990870425176
0.3109655,0.028494610593162033,0.0032461833709266433,-0.05386199030408127,-0.021282301765527006,0.0035837141242160437,0.28301485547066746,0.0639608720384343,-0.03271330603591132
0.311431,0.0293736,-0.00015847510748165673,-0.151374531024875,-0.01995078429600471,0.00316112115520565,0.2907008388979165,0.05011699763646655,-0.030977489747215065
0.3118966,0.029397680614898974,0.0005757418446969291,-0.24633081136027307,-0.018289579846275255,0.0011929604611742323,0.2772486879580866,0.06986493885718546,-0.02559059948744243
0.3123621,0.030547325126863558,0.004024675380590669,-0.315021814103751,-0.01800216871828411,0.002055193845147667,0.25138177205435214,0.11182679231295549,-0.021279518183043827
0.3128276,0.031869572708724585,0.00568507270872458,-0.3329078299056731,-0.018824779531543438,0.004200052240268015,0.22494671440860686,0.13443062522110746,-0.019780620468456564
0.3132931,0.032597162666153624,0.006412662666153624,-0.2705820694318841,-0.018900281333076814,0.006883906665384059,0.20682792898367736,0.10859428004440148,-0.021272420888717874
0.3137586,0.03078129136185604,0.006383706002640971,-0.14585584510491004,-0.018967,0.013715195460479869,0.18866731244617824,0.07089033265357067,-0.025215420497981984
0.3142241,0.021404180643121558,0.009277557595432534,-0.004823090872364638,-0.014979204241614441,0.0389310674826734,0.17058052791570838,0.049766560926239344,-0.02981914261336911
0.3146897,0.02285076179172478,0.004738513556167062,0.12775485437697315,-0.017936004776034402,0.05466669614820665,0.17649781141884988,0.07269361833220146,-0.03599085223965598
0.3151552,0.018606325379682837,0.0023539150332219433,0.22445402604443848,-0.0182956,0.06565989667787873,0.19039214952529288,0.09394882631733475,-0.03846247462031716
0.3156207,0.016513349376588073,-0.000890082294313454,0.2806733632167268,-0.01888968354113731,0.07354140511237171,0.1915586418147087,0.11813946583545076,-0.039070241770568656
0.3160862,0.018726220050328722,-0.0039732860957964935,0.2587766117248537,-0.018254587984879892,0.0847387705164604,0.1754150616875536,0.11693751695185167,-0.038793706007560054
0.3165517,0.028406546060853292,-0.005803320574532737,0.13496512344500022,-0.018419662559333975,0.12678640528602908,0.1524869053710861,0.056681493049088046,-0.03949458229813095
0.3170172,0.03195067058206035,-0.005644427588907271,-0.09660792612495717,-0.0201173372319531,0.2141112797478422,0.15343057383380285,-0.018023007834633436,-0.03866466644673163
0.3174828,0.03191893340870365,-0.004703449698778229,-0.3404725325827239,-0.02237646533590626,0.367424701481501,0.14884554942345163,-0.03211840740493045,-0.03689859703828529
