Time,Rectus Femoris right,Rectus Femoris left,Hamstrings right,Hamstrings left,TibilaisÂ Anterior right,TibilaisÂ Anterior left,Gastrocnemius right,Gastrocnemius left
0.0,0.02925079091655211,-0.021226151662933124,-0.056833209333337034,-0.014169491757576095,-0.02018697636364141,-0.015266659037769614,-0.030826665939391245,-0.020203311818179297
0.0004655,0.027514031273929873,-0.017785394420066707,-0.05382613275409127,-0.014898282177856116,-0.031911547345326356,-0.014240270206231526,-0.1125060851381789,-0.02033656805766674
0.000931,0.02796151050280527,-0.01819295713370556,-0.04534622794235872,-0.014372124244996714,-0.027738899474780324,-0.014175014923935714,-0.12697474312890428,-0.021251189103279968
0.0013966,0.03065139510165943,-0.018896405763402607,-0.04834894278194464,-0.015692276081327543,-0.018071838248649122,-0.012111811526805212,-0.07006929234941361,-0.02177346664969145
0.0018621,0.03190347946081952,-0.01771418973040976,-0.0664971698109986,-0.015724456722262123,-0.016285189962953694,-0.009174263568655616,0.0006263575745753763,-0.021234996576803254
0.0023276,0.02910965482508371,-0.014681988819534517,-0.08134824551668528,-0.015639327241657366,-0.028879726729003897,-0.006676509308398441,0.04015686430436664,-0.019740215890307392
0.0027931,0.025800396181356013,-0.011533198103820806,-0.08401505542814146,-0.015622907428643092,-0.03781127600025082,-0.00465139618135601,0.04314386056960118,-0.018954092571356912
0.0032586,0.023590832162246587,-0.00852691903525543,-0.0799428422390024,-0.0162814,-0.03897276118969581,-0.002355218001561241,0.025070497108256262,-0.0182956
0.0037241,0.023796660607783775,-0.00561947662189962,-0.0778630739682902,-0.0162814,-0.036660132028231686,-0.0013686601167071908,0.010999872296833966,-0.018002437229683397
0.0041897,0.025984785508902777,-0.0036489599845289044,-0.07869267448667691,-0.01619073999336953,-0.028040648929150685,-0.004208034526459727,0.014717211055378217,-0.01847692001326094
0.0046552,0.027221845805123907,-0.0017245802744203184,-0.07690579141613904,-0.015366005831894422,-0.018968655044907565,-0.007369556424772509,0.021864825229512753,-0.020126388336211155
0.0051207,0.028565351507043667,0.0005997253286053064,-0.06283874747771895,-0.01587727575352183,-0.015849484862673586,-0.007118124246478167,0.021453738301677443,-0.0203098
0.0055862,0.027741666754975147,0.00039788316548396597,-0.03640737319325481,-0.017538437020634616,-0.022347579813881416,-0.0048210425515865405,0.01048077361726202,-0.02074718047954889
0.0060517,0.027107335140079007,-0.0009246946802513085,-0.018937915259858797,-0.017551486705662277,-0.031013320346478395,-0.004180432141553228,-0.010419381385913588,-0.021107230985975778
0.0065172,0.02484140362491193,-0.0018094478915242475,-0.013391848144577098,-0.01672765632542726,-0.038632110076865615,-0.004578894140085895,-0.04509537158423352,-0.021615244013559468
0.0069828,0.021910105552023232,-0.0010924095009091546,-0.014090568364381478,-0.015679500866876236,-0.04580560163175311,-0.006288505654022589,-0.08998739347910117,-0.021551205756021947
0.0074483,0.022021376623784738,-0.0010425639369613542,-0.012319172959502604,-0.014465718878507814,-0.05358665688472526,-0.009808675763233072,-0.10946908867213193,-0.01925060760711284
0.0079138,0.0208972582474711,-0.006312716634734453,-0.007360674129778104,-0.012773948696618511,-0.05330658329536942,-0.017113539321338817,-0.0780499,-0.020524721287426235
0.0083793,0.02297194355801371,-0.011340293422105137,0.005222745479552356,-0.01243299726518243,-0.050929327124858384,-0.026501183419897396,-0.011303288495018032,-0.021151479453036484
0.0088448,0.023384281024750934,-0.014656971726316489,0.01714086612344645,-0.014725475900996262,-0.04078819070156556,-0.031616937950498136,0.04763910131829923,-0.02278563747138276
0.0093103,0.022101368314085948,-0.017274361197635337,0.026447698166759105,-0.015327308162369461,-0.028974309643126864,-0.030511463724311592,0.07949518611958227,-0.023007723699786337
0.0097759,0.022146915716641492,-0.017564708769717243,0.032664703301338256,-0.014621344940334853,-0.021869329352625567,-0.0263098879289445,0.07794660729117199,-0.02190898623508371
0.0102414,0.023313401010931708,-0.017173417943353947,0.03868395926347784,-0.011971332270311039,-0.021157231842981065,-0.020523489939255436,0.07127698944571152,-0.02135210846621112
0.0107069,0.023179850455337315,-0.017574228788391703,0.040554224165690364,-0.009833886667782439,-0.02249305575543415,-0.01705014083514646,0.08356730166025098,-0.021619289166527195
0.0111724,0.0215457876117036,-0.017889500301861937,0.03970608159722492,-0.009471859050456574,-0.018904234715276663,-0.012642801207447749,0.12295686190676494,-0.021981313595744144
0.0116379,0.02059801390220219,-0.01681034170660657,0.038220515244494525,-0.0115816,-0.013358369511010949,-0.009343536156818811,0.1439041851167423,-0.02155762780440438
0.0121034,0.0201989811781585,-0.015275921767237745,0.03974281980364025,-0.011356718821841503,-0.011288245498072984,-0.005170685105353486,0.130526475287366,-0.02047845530122442
0.012569,0.018103481959448352,-0.01240824060016225,0.0433701562758585,-0.0119813312619085,-0.014022685083427598,0.002878623424060372,0.09263627518085993,-0.020628040918140175
0.0130345,0.015957172820597196,-0.009802344050127709,0.047748718040966996,-0.013209225154651217,-0.03162373779095298,-0.00032991730440981267,0.03609010686491927,-0.02187705754093897
0.0135,0.014191266609221818,-0.009713266523054544,0.053797670120623226,-0.014200873930052217,-0.05490001438315898,-0.015046170418650811,-0.004651800344669094,-0.024363411130259395
0.0139655,0.013402327440918918,-0.009614809146972972,0.05796308108935136,-0.01371431580619517,-0.06478340729686488,-0.02992963847987996,0.001569531183015077,-0.026788615189492476
0.014431,0.01203974823533918,-0.01006355596818925,0.05615849884114698,-0.012409777523240195,-0.0504639700378922,-0.03885906979556908,0.056954683370267885,-0.028530721555050945
0.0148966,0.008426631843787264,-0.009830420972697623,0.04912973683530897,-0.012253,-0.022277143888677502,-0.038639605761003365,0.07548958182894368,-0.02941705602244512
0.0153621,0.006534382986486898,-0.008425484149324345,0.03897914011940144,-0.013171781119932589,0.004758018896863275,-0.03938449020810786,0.01704638812039119,-0.030870687178716102
0.0158276,0.004308495476995557,-0.007852049247594304,0.029197912454557596,-0.014130732831729536,0.016313359236717312,-0.04502769562188928,-0.09796839547699555,-0.034282314784037274
0.0162931,0.002324202124854932,-0.007418794476130872,0.0017982651553938968,-0.014871719945230899,0.016109328992341635,-0.044761813694893515,-0.22979635898499703,-0.033110453461127905
0.0167586,0.0020957407499630366,-0.00892742139879451,-0.025825031968992076,-0.014434743650911805,0.018211280731412503,-0.03801929974382881,-0.33298731295657574,-0.02907053725409086
0.0172241,0.0035681109693266435,-0.009630012902870999,-0.04290567591309545,-0.015400636989775547,0.02706461369052372,-0.028426715624068077,-0.37466540578726965,-0.02675117476720382
0.0176897,0.005798810334754167,-0.00901033727403463,-0.04154243382911657,-0.016144203444918057,0.025329625295191203,-0.023841352234471667,-0.3481450165520573,-0.027122994910992685
0.0181552,0.008959770232318835,-0.0055751616449876305,-0.03298131120817957,-0.01685930087361612,0.006023369787212864,-0.025068970446573913,-0.22717226790843847,-0.02792033748139625
0.0186207,0.007047162579911913,-0.002814212425977949,-0.03191844799885847,-0.016604623537627344,-0.0002777504618018913,-0.03555617276795752,-0.08717462384549528,-0.02677962538483491
0.0190862,0.003906114407093703,-0.0008045550868184383,-0.0448868391564262,-0.017569462711487557,-0.0016246373765190973,-0.04307343983006882,0.0043950594962885725,-0.02889193389730015
0.0195517,0.000217783406097178,-0.0012820477124258173,-0.06941473834437441,-0.016809936383432245,0.0006784837509776194,-0.043405045533728974,0.04346954108570637,-0.02904507311174493
0.0200172,-0.0020603273594332855,-0.0021363710607653183,-0.08621643086171793,-0.015670838585646243,-0.0006029588565108625,-0.03884865434258497,0.054148540524929366,-0.027763545674214907
0.0204828,-0.0010478893769528177,-0.0008646036380820657,-0.09740615467340277,-0.015091021828492394,-0.007849005701065306,-0.027375690853708945,0.06726402045007897,-0.025947641983543265
0.0209483,0.0025607124591267762,0.00099497568959735,-0.10785343891722801,-0.014722677963528946,-0.020088450301085543,-0.01095854012157018,0.12469027126512726,-0.02652690736794914
0.0214138,0.004630422193511508,0.0019678186389211656,-0.11638644552898324,-0.012488233999242763,-0.025995560752225116,-0.0027061252655758285,0.2003067426634542,-0.028171400689061273
0.0218793,0.006810486032596051,0.0018056252257544535,-0.1260040896446673,-0.012314012161368319,-0.025726775677263364,-0.007318920710665381,0.2920619961699695,-0.029332789084178763
0.0223448,0.010721509013646888,0.0012039293825158635,-0.1202879791339007,-0.013216555926226205,-0.023921688147547592,-0.018751141732198592,0.3194390674192372,-0.03369503913861451
0.0228103,0.014522139075015756,0.0008465419022712949,-0.10392275102425078,-0.012931741902271296,-0.02449131619545741,-0.023571257457515843,0.26887951618477923,-0.037681667030358766
0.0232759,0.016019126544640442,-0.000286705305915986,-0.08580736507281071,-0.013184569132998107,-0.02688172612096557,-0.01608556955667298,0.15442688926219877,-0.036140049377135705
0.0237414,0.020426599260200424,-0.003215847657672837,-0.06829052335338202,-0.014215661794199667,-0.025992078184872883,-0.009967125548872658,0.06113394042519907,-0.03414919899043546
0.0242069,0.02027742702774372,-0.004021205108156331,-0.061913066884381814,-0.014973599673427287,-0.010425464924945527,-0.012072170091605402,0.02261293724405638,-0.03391910804731075
0.0246724,0.01981507696473511,-0.006103908145506506,-0.060664594569662326,-0.013348843212077912,0.006930478596613194,-0.0176581730789351,0.036967411091298794,-0.032501391854493494
0.0251379,0.01834903395327718,-0.007939384901512544,-0.0532347556260991,-0.010001120751260454,0.013875116994958187,-0.020583204731211537,0.0424197957562431,-0.02817787404678199
0.0256034,0.018731398086203672,-0.005330294572703075,-0.04639410191379632,-0.007882780862036741,0.005824650956898163,-0.01595420925488958,-0.003906294415657049,-0.024292320493202974
0.026069,0.01802084415143272,-0.003402798993330105,-0.03247111291222259,-0.006607269559041624,0.002883486706361943,-0.0059665106904646615,-0.0391544735857212,-0.020187902603173394
0.0265345,0.017582584415831475,-0.00044976851291199756,-0.02089796007132885,-0.008187978572243872,0.006805781817835933,0.006146597720755412,-0.020322007142585377,-0.01987365877233108
0.027,0.01620276416504167,0.0009184093265600104,-0.015856913749651785,-0.00802701194498611,0.006289609326560011,0.018325195416782736,0.00239932127154612,-0.023103816528203373
0.0274655,0.01682797576984312,-3.56656869221093e-05,-0.023502555041460507,-0.009344551618105164,-1.3350039209463556e-05,0.020558248702374597,-0.04128724495853949,-0.025648989354538396
0.027931,0.015367156955309694,-0.00042672570051770583,-0.0378535472331487,-0.008828151421607106,-0.013602951615476326,0.01313865088114283,-0.1612209731275356,-0.029466462274571368
0.0283966,0.015722475912253456,-0.0011242483593538392,-0.04397628697764695,-0.0089166033732227,-0.028363356419246148,0.001095615935923858,-0.2903636809666446,-0.03267680477859999
0.0288621,0.017433399986252356,-0.0022635089399878753,-0.04126018399841535,-0.010311249993126178,-0.03567945000687382,-0.006019599986252358,-0.3576407999725047,-0.035842462491407726
0.0293276,0.019139423299966707,-0.004008245476382313,-0.03246141704788414,-0.011866611556108929,-0.03080575780505255,-0.009435686572286564,-0.361541443903311,-0.03680948499921526
0.0297931,0.02002741130850829,-0.0027586219474248115,-0.030550372025216172,-0.01095953449252145,-0.031138924420601507,-0.009046120710836466,-0.32160061102669996,-0.03632852194742481
0.0302586,0.02034872791674867,-0.0021917767457439214,-0.0338706577273666,-0.011265363958374335,-0.02773023733795841,-0.01007070493467499,-0.2483121941158728,-0.035966514606540705
0.0307241,0.022584355744019714,-0.005141777667976166,-0.03628159362855146,-0.013865042105752226,-0.02471730089537041,-0.014199753121816379,-0.17122799833707497,-0.03679003341199588
0.0311897,0.024980102073633773,-0.007694529587624556,-0.03475073096220937,-0.013754838015469305,-0.02311020315880606,-0.011387229587624555,-0.09174868170961373,-0.03734211123712633
0.0316552,0.02635378185186819,-0.0073861314230098405,-0.0263523,-0.013012451459669738,-0.020549796049849134,-0.008847411850452598,-0.0029657907829813116,-0.037942293416415224
0.0321207,0.026662916518086083,-0.008322904583204296,-0.015209444939924656,-0.011090077083978519,-0.015979149523128955,-0.009330519240182735,0.0776158954167957,-0.037741001876354895
0.0325862,0.02616478627188296,-0.009153195625971092,-0.006559209152078027,-0.012872238492311405,-0.0037339832438739095,-0.009087787415892713,0.12761560572004876,-0.03638824623154159
0.0330517,0.025857255103747156,-0.011062780410247315,-0.006542717756997236,-0.010245564486005528,0.002110973904461453,-0.01023203551399447,0.1403578935304117,-0.039102135513994475
0.0335172,0.02600223322642063,-0.012766314119565244,-0.009308721018978807,-0.0102388,0.006172452582969388,-0.013001421018978807,0.14754983149294584,-0.038801942109002355
0.0339828,0.025346531968372197,-0.013235502505481599,-0.009973569691463064,-0.0109102,0.014552387300267698,-0.022320032610236802,0.19613079271785636,-0.03683144625750631
0.0344483,0.024436361909958768,-0.012286919727148748,-0.006664824097109854,-0.011144140818553758,0.025148676180082458,-0.029512776180082457,0.2641601144164765,-0.03590274518851486
0.0349138,0.022410714602648315,-0.012596592236604393,-0.00775661388923025,-0.010254584473208784,0.028994774993968197,-0.03342201288680334,0.2898104873539511,-0.035783468946417575
0.0353793,0.02163761658454532,-0.014833787559253592,-0.013681298351508959,-0.010942272613849642,0.022548408296947497,-0.03389593817840572,0.2383854049548228,-0.03531244522769929
0.0358448,0.02215399257782092,-0.01629945760004527,-0.018719099486397973,-0.01276188159959257,0.0120724239995473,-0.034329856290608085,0.14130729788906893,-0.03374836319918514
0.0363103,0.024744070106733067,-0.015399189679800798,-0.01778805871920319,-0.014725867453679894,0.011612901067330674,-0.032892546959288234,0.08623542366583666,-0.0340734
0.0367759,0.02477912314849586,-0.013158371055495518,-0.011578005796008619,-0.01566201381773494,0.016903728797286736,-0.028560131114382617,0.07874703111438261,-0.03343012214043458
0.0372414,0.024106580712397456,-0.012666835534298093,-0.004071748740086649,-0.01562301870981553,0.025055823484083563,-0.017232045121392644,0.09435882238521626,-0.03314443553429809
0.0377069,0.019895359741744504,-0.013010736576488933,-0.009418170874187802,-0.0142672,0.029665096429932463,-0.0012937232769545998,0.11096904925493994,-0.032683673264676895
0.0381724,0.01718419079315009,-0.014057997961273577,-0.02536688174406374,-0.014757847678567077,0.025528013770833975,0.0016407021570490957,0.0951591021176082,-0.031735845311073
0.0386379,0.012518769911166008,-0.013541208334387326,-0.04467585454440706,-0.013954370162641607,0.020901015869710146,-0.005143623952621871,0.03585914985194335,-0.035700629792720685
0.0391034,0.01125284181747154,-0.013213317325144795,-0.05663098414396639,-0.01732706139884164,0.02605931506891949,-0.02016249622210498,-0.03013856534971041,-0.039188567778909465
0.039569,0.00971302646920109,-0.01239862646920109,-0.06269669412319563,-0.018101431374398545,0.032309808710982345,-0.029883007611569777,-0.06436023400012812,-0.041600331374398544
0.0400345,0.010205607735462597,-0.010976584529074804,-0.05530160330671752,-0.0189338077354626,0.038507661883700785,-0.03425973480958169,-0.08468017845364369,-0.04131579667027262
0.0405,0.013528993364064507,-0.009936711670508063,-0.03373520978192922,-0.019000611670508063,0.04053530746498302,-0.032562541647459683,-0.08938024087514428,-0.04098865331796775
0.0409655,0.01593699345373051,-0.010247506546269486,-0.01549681489849666,-0.019289640180595768,0.03814553236404722,-0.031082572911943208,-0.09338702217936658,-0.039747649803102
0.041431,0.015241604302856834,-0.010893852151428417,-0.006979887091429499,-0.018311947848571583,0.028342549766314742,-0.03355730456143004,-0.11152047226511584,-0.03719302286101556
0.0418966,0.014080959506153092,-0.010313529753076546,-0.010461821481540722,-0.018892270246923453,0.015575543437247161,-0.03907036734577281,-0.13183166977275773,-0.034726695885356894
0.0423621,0.01383188960705697,-0.009233270867224244,-0.021453369167320158,-0.019095624877992722,0.0008344974451210496,-0.04185484531772953,-0.1493787810974909,-0.03229371873983272
0.0428276,0.013299331779455918,-0.00771012711782367,-0.031653967626146244,-0.02001333177945592,-0.0023041667741764233,-0.04315691004644833,-0.15919752186179356,-0.030171432502639747
0.0432931,0.012710806520798795,-0.009043542850916375,-0.04222086774996423,-0.019129808694398395,-0.0037585708261752837,-0.0427151043471992,-0.1603363425693805,-0.028854926083195176
0.0437586,0.013081940537416714,-0.010872579253689136,-0.047124558074408636,-0.01765156128372758,-0.010451374223225897,-0.040496161067242756,-0.14848451079964667,-0.02902421935813621
0.0442241,0.012856743895802538,-0.012253,-0.0364258805209873,-0.01469419000986302,-0.019102312208394923,-0.03467972441678985,-0.12258610838956058,-0.03024667805209873
0.0446897,0.010630659096365251,-0.012849521204846334,-0.023313534879403085,-0.01674938689339264,-0.0250201172157446,-0.02901667672114636,-0.09214795099812627,-0.029681223239976268
0.0451552,0.010265422165972553,-0.013192164593880146,-0.008779402443822212,-0.015992676210402252,-0.022859432560583554,-0.0268198971544637,-0.06640602756413509,-0.02744432094406145
0.0456207,0.009658422517756298,-0.01318010006904313,-0.0006012314604161281,-0.014866130635189628,-0.0171298793398261,-0.030291426255923303,-0.042280368470540744,-0.02633200360008074
0.0460862,0.010260016365126792,-0.014581683634873208,-0.0051563401182737716,-0.013687294065965878,-0.011891550887609128,-0.03855021043109267,-0.009317495672062793,-0.026986129856302443
0.0465517,0.01176547746915569,-0.015177022460806995,-0.02223233864687703,-0.013857274647263473,-0.006966710332173654,-0.04337740468838922,0.035041701410946105,-0.02906264178424551
0.0470172,0.01423333640862916,-0.01601342718274168,-0.02791374538705626,-0.013356849922857895,-0.001120731718543315,-0.04479153309656233,0.07743751662542327,-0.03020462876163299
0.0474828,0.014668855045313236,-0.016751972477343384,-0.020475171373817592,-0.011985229969791176,0.0024547173119886592,-0.04235513407221442,0.11400703107331696,-0.028670259939582353
0.0479483,0.013321374838262396,-0.016637524946087466,0.0019578942351513398,-0.010046074622612255,0.008589625808688023,-0.04196810899960075,0.1365934191812388,-0.028102290353448828
0.0484138,0.013943697885166249,-0.01561,0.03469371610935676,-0.00821443570128933,0.010210338267945415,-0.03372050055842882,0.13808704249761292,-0.027852834490100252
0.0488793,0.014793004027471215,-0.01561,0.05451077509794792,-0.007506722748630877,0.008228623935900497,-0.0208394838979239,0.13440671588095807,-0.027145037205583766
0.0493448,0.012555503918714251,-0.01561,0.06203861784428435,-0.0069087429237685676,0.005029241492418528,-0.006557186301322674,0.12964527680565135,-0.026705960165824282
0.0498103,0.007869734342442758,-0.015418166369869778,0.04788495526924107,-0.006714005995509687,0.0037357872966680902,-0.0031411384541759598,0.10858888176030981,-0.026798343915451245
0.0502759,0.003664654704207261,-0.01636050032442809,0.026994516702509016,-0.00577677735210363,0.0021799092406630167,-0.007752374056827967,0.07115887702767555,-0.026727079674095034
0.0507414,0.0002782092081237721,-0.01680748763630843,-0.0010097715138981062,-0.0057186104224185305,0.003149110785907672,-0.011617621935304485,0.021677416609726798,-0.027667526305167046
0.0512069,-0.0009757873465219876,-0.01899462768467679,-0.027241592305060965,-0.004486549230506096,-0.0015830569254451333,-0.016009295383036578,-0.0149386,-0.029927192305060964
0.0516724,-0.0005942410090560706,-0.024561435498693718,-0.0526233471916398,-0.004509573102960497,-0.0052249367979099485,-0.020086464501306283,-0.03588729480313507,-0.030347591398345784
0.0521379,0.0030811110447806675,-0.025975064834707687,-0.06167057494212921,-0.004368252279258892,-0.007486743735532301,-0.018672835165292313,-0.03249458439670155,-0.029075282886033418
0.0526034,0.008086072451920041,-0.02511298557272484,-0.06439949705704623,-0.0023030065604024005,-0.010260275739355637,-0.012495013120804801,-0.0057556446308152385,-0.02712718557272484
0.053069,0.010707005814074154,-0.024711658804021184,-0.06006357674370339,-0.0008013411959788136,-0.010321514871559715,-0.009614726324419098,0.010812994010636923,-0.02663121179396822
0.0535345,0.012728499727945923,-0.025289228493698832,-0.051977601088216314,-0.0002237715063011653,-0.00902194005744589,-0.010336731448855276,0.0067700922075716215,-0.025764857259451747
0.054,0.01358971234407983,-0.02696211021309817,-0.05090544751385473,0.0016241313496217192,-0.0004619203439846399,-0.010279340059853752,-0.020418531185198336,-0.024940689076574613
0.0544655,0.01401315589730972,-0.028881791266934926,-0.0619364,0.002639700874729819,-0.00039026924919310175,-0.004942052835755354,-0.055634689887633565,-0.024103451345698045
0.054931,0.015324277794425547,-0.029615036619610718,-0.07723043445950827,0.0022998362453987586,0.0,0.003883626714374323,-0.08200625699289042,-0.024700304929416075
0.0553966,0.017558402231621677,-0.027652203828415343,-0.09964064827698664,-2.6766962645459203e-05,0.0,0.010315064502814834,-0.08713830836568798,-0.024360062702711634
0.0558621,0.021926792904229137,-0.025556263486500405,-0.11144521630657055,-0.0019460092107996762,0.0,0.007739336183800486,-0.06997655084187548,-0.02282081630657054
0.0563276,0.02466675189369694,-0.023167385152285225,-0.10975264356611228,-0.00420678381917617,-0.000717593678229849,0.0055746176322014,-0.04764376275565788,-0.020697688913803906
0.0567931,0.025325109710686054,-0.020226576942185444,-0.10111198454026539,-0.007137942246904482,-0.001249321737268722,0.008254959027184918,-0.029918761528907278,-0.02044609038222682
0.0572586,0.023430663222102983,-0.01555002937126626,-0.08744264923632783,-0.007048077829441606,-0.0014475918152167585,0.006412945040974766,-0.011295681611051493,-0.021060954053244367
0.0577241,0.022608107866748217,-0.013587551689079174,-0.07860391002406872,-0.005080762955166582,0.0,5.252915690435165e-05,0.0009371230873905846,-0.019756812889373004
0.0581897,0.02283092435232643,-0.009224751295347139,-0.05641292483766144,-0.0032319310880816075,0.0,-0.017394995531382428,0.01242432435232643,-0.020481124352326432
0.0586552,0.024671036998202837,-0.007476143998402522,-0.039002986503893854,-0.003264774500698896,0.0,-0.024935207000199685,0.013335774500698897,-0.021875467934015215
0.0591207,0.023829925534715534,-0.004982588685757399,-0.026947682105928537,-0.0042536943428787,0.0,-0.024851394838759394,0.0102870282856065,-0.0215951056571213
0.0595862,0.02212089961243917,-0.006121995869329565,-0.01954162026579135,-0.004823397934664782,0.0,-0.023284752387888605,0.007438510326676087,-0.021025402065335215
0.0600517,0.020369355022453538,-0.009461820814622053,-0.010615092578587379,-0.00558502416292441,0.0,-0.02612761076971498,0.0052033,-0.0199741
0.0605172,0.018143355141630686,-0.010808550877483981,-0.003921981039660203,-0.005834037928469224,0.0,-0.03154004485836931,0.005365948286123104,-0.02009608621459233
0.0609828,0.01417737951007074,-0.009858232713025475,-0.0003475268958387306,-0.0053735268514818494,0.0,-0.0356951407076756,0.006640660108873169,-0.021170306133726547
0.0614483,0.011666458830740113,-0.008602730819713068,-0.005369285147205793,-0.004397099252055923,0.0,-0.0393220261333754,0.007198642482057753,-0.022286187772801527
0.0619138,0.010991257587281257,-0.006160788957367486,-0.03145558736402969,-0.005085901593337801,-0.0003869862323363888,-0.044990965926848064,0.008489168168269265,-0.023964383990915182
0.0623793,0.011833797178891532,-0.002855768360845184,-0.06971963593245979,-0.006092525763609269,0.0,-0.04613871638398932,0.013918304742942296,-0.023815701472196506
0.0628448,0.010961479226091492,-0.0008112059102089897,-0.0895570001763541,-0.006176210454421223,0.0,-0.04204001209028586,0.017014983635369785,-0.022796358182315107
0.0633103,0.01304824498777508,0.002127902298198888,-0.08687953495350934,-0.006539337535470254,0.0,-0.03685367450341644,0.013670187109827208,-0.021672885379152382
0.0637759,0.015474872657711714,0.002942877329442696,-0.07025904857069454,-0.007980469997430883,0.0,-0.0372384881945873,0.007984765722360085,-0.022197543898963557
0.0642414,0.02027589233031557,0.0038419740309448094,-0.06047386725383435,-0.010165785118740571,0.0,-0.034146414881259426,5.0300446286985425e-05,-0.021838937009561184
0.0647069,0.02721105845967063,0.004588107537901189,-0.048880029255090884,-0.010201328308065874,0.0,-0.029774152847181153,-0.013158598074588287,-0.021298164154032937
0.0651724,0.03365711470558625,0.006521924411675876,-0.03856643527080441,-0.008912117058882748,0.0,-0.02622882191192756,-0.021216168381982814,-0.020653558529441375
0.0656379,0.03668373803543253,0.006840703803543254,-0.03210356210284948,-0.008601396196456747,0.0,-0.024564135201482686,-0.01954927717874048,-0.02094010380354325
0.0661034,0.03443044064467924,0.004996204677022835,-0.0300128512159395,-0.007753156196628441,0.0,-0.025830932624779094,-0.003710469503433807,-0.021466930496566193
0.066569,0.02944525907850398,0.0037171818429920416,-0.02440975907850398,-0.008198131706535815,0.0,-0.027649919888043092,0.020483459351416433,-0.021626121033452926
0.0670345,0.026342606001486083,0.002050400101190518,-0.013701267701128872,-0.006566417650049261,-0.00018285885044334762,-0.028667385299856348,0.04178387634846465,-0.020990893998513917
0.0675,0.025167678787482,-0.002449269825520145,-0.004642161026786622,-0.005778505610679493,-0.025839078787481998,-0.02768233788132815,0.03897203965104029,-0.020912769825520143
0.0679655,0.026705403179017356,-0.009289961787914934,-0.0025272847023906165,-0.005145038212085066,-0.0242276361881863,-0.027970779499474494,0.020635915297609383,-0.0224918
0.068431,0.02664912953284669,-0.013921779488479235,-0.006521363737226485,-0.004118459065693378,-0.0261915171021899,-0.03829084551710482,0.0021926078478585907,-0.0243381
0.0688966,0.025504709043168997,-0.013891580908201893,-0.011325649075588404,-0.0030179453259749764,-0.02962293068436936,-0.0460620581187574,-0.008158091404496064,-0.02397246671426134
0.0693621,0.024278799090433952,-0.013379681300902014,-0.01141418617873718,-0.0029610267329595904,-0.03160304634162363,-0.04726301687996588,-0.009544356097293958,-0.02285180956321314
0.0698276,0.02178867611564693,-0.014850140331390586,-0.008966320994171759,-0.004349352330096793,-0.03367193609492155,-0.03960338066278117,-0.004189417990931105,-0.0212760567784281
0.0702931,0.017309671983166134,-0.01522483057263099,-0.007228085991583068,-0.004793403227047076,-0.04643069878670278,-0.02961915730349925,0.002288079051975942,-0.01983627770947604
0.0707586,0.012151584264131071,-0.014291021132046033,-0.0031405315849034523,-0.0030233918641384373,-0.08467531615855753,-0.017114694716988493,0.01145590246788332,-0.019264776437792515
0.0712241,0.01263704164759198,-0.011617048775750826,0.004447581990041046,-0.002242157906175589,-0.11968160602935496,-0.009003961247138797,0.014057449428322284,-0.021000483947755416
0.0716897,0.013733155651744012,-0.010772844348255988,0.017309004344960084,-0.0033595130431200103,-0.13557911245262966,-0.006474859131007983,0.005911515947813158,-0.01831212377203721
0.0721552,0.014546045764999682,-0.009345408470000637,0.02877121359050712,-0.004446618647499523,-0.12607106776199337,-0.008054037294999046,-0.01140355344774768,-0.020139237294999047
0.0726207,0.015505388102544156,-0.008329211897455845,0.03723003418786796,-0.006186506327611486,-0.09767231716872171,-0.013037869880235493,-0.0255591438230571,-0.023618833430100832
0.0730862,0.015006226241850546,-0.007538075124983527,0.042981519906855954,-0.00896592400811651,-0.05954903544499819,-0.01848613731252471,-0.023707567155701697,-0.025520612437508236
0.0735517,0.012128145104745316,-0.004742745104745316,0.04330897083192488,-0.0082246,-0.037633594142794935,-0.017027268415615377,-0.0155322706284719,-0.0250095
0.0740172,0.010992947256280998,-0.0036075472562809977,0.0448698256037596,-0.0082246,-0.03337660221105374,-0.010074223863575139,-0.008721083537685989,-0.0250095
0.0744828,0.01187509454853761,-0.004328926695052741,0.04257141153326071,-0.008385463662694336,-0.030493247870566374,-0.0026523703067518616,-0.005812411533260708,-0.024687868483820798
0.0749483,0.012393744525431294,-0.0072717109491374134,0.030726848823754205,-0.0075532,-0.010619964750447634,-0.0031458332118530596,-0.004621212357252157,-0.023858962175031747
0.0754138,0.012324569701966619,-0.009493861641219136,0.014476770032293486,-0.008337687055975724,0.006712184021470137,-0.0027347831192828637,-0.0023781217639939306,-0.023021805785464068
0.0758793,0.008364293662265567,-0.01174752017496551,-0.001879700653378603,-0.008213317688961655,0.016650946933115036,-0.0028101517011582416,0.002257215406922307,-0.025190562136072833
0.0763448,0.005436323703017227,-0.011837319506573284,-0.020076765414838573,-0.007802001729310365,0.02062473578606704,0.00029474395847509354,0.00922478222273708,-0.026443633836276844
0.0768103,0.0050749795175636,-0.009725442170963801,-0.036225902412182,-0.006723633728326794,0.028820514451981395,-0.000641554210763195,0.015649494508007487,-0.0269447409648728
0.0772759,0.006696259789932963,-0.012318816022230387,-0.050313577177123876,-0.005606470994442402,0.03289596754168198,-0.006509054558354769,0.015928827226739828,-0.027627629005557597
0.0777414,0.010239719950765504,-0.020220336251739777,-0.06468654890292283,-0.005844265450069591,0.017986140238487443,-0.015459667151878964,0.011061452798886541,-0.0276951
0.0782069,0.01572412121208347,-0.032419211647831916,-0.07667557249037503,-0.008781878787916532,-0.011784352727250081,-0.023286684242416693,0.0009090186555003354,-0.027973782793458177
0.0786724,0.020681908105217504,-0.03524598703927615,-0.08701159249326136,-0.01223354180920293,-0.024114333703985424,-0.027120990953985357,-0.004945432763188285,-0.02787513447362343
0.0791379,0.0218204,-0.036298185278505,-0.09526814017953478,-0.01247153178455828,-0.014909305037584922,-0.02694558785637219,-0.007088756071813906,-0.026215603748651325
0.0796034,0.021345237448409733,-0.03453190498993055,-0.09865537140865419,-0.010054248066433315,-0.00860247016608329,-0.025756474033216657,-0.008158475534981939,-0.02397629849823472
0.080069,0.022031757604187442,-0.03111671161220097,-0.09626368860721218,-0.010704569198397294,-0.015020311392787823,-0.02597355569639391,-0.007574767308594882,-0.024132469198397295
0.0805345,0.023778423593271612,-0.02800576776981355,-0.09125436307818668,-0.011986217396644107,-0.019909036610051084,-0.028529906508389737,-0.006296551878170089,-0.025448576094966157
0.081,0.025576878005751508,-0.021727914575975324,-0.08221865598563537,-0.012203560976240674,-0.0030157657221744605,-0.031421721910714205,-0.006496660976240675,-0.025631460976240673
0.0814655,0.02661143774418658,-0.01547456316042314,-0.06914271562501129,-0.012558073273026018,0.0,-0.032348964471160556,-0.007156246546052038,-0.025070753453947964
0.081931,0.027873017144019564,-0.008989169281936424,-0.053240979667531885,-0.013326812304150917,0.0,-0.028338447298048214,-0.0034845446736345913,-0.024271387695849085
0.0823966,0.02850870014912288,-0.005499655447685083,-0.0425717412313161,-0.013668346044667202,-0.00013759044785923867,-0.022596101566913725,0.001121982537193642,-0.02396160947757932
0.0828621,0.029594205488988733,-0.001993594118940643,-0.03242230784141248,-0.014506301176211872,0.0,-0.01872549814463931,0.00528140313656499,-0.024724495295152516
0.0833276,0.029980766866883918,0.0028388656655804045,-0.02462411076834747,-0.013660033133116081,0.0,-0.02224675169780177,0.00800131276647512,-0.027232462466149243
0.0837931,0.029400435884091834,0.006062551188642843,-0.02071284115908165,-0.01432087176818367,0.0,-0.02814477278596038,0.008996806292766528,-0.029246049829133865
0.0842586,0.02977935117531507,0.008119523237027394,-0.01639830443198627,-0.015218804701260281,0.0,-0.031002518535767114,0.008364702350630141,-0.029464120886397254
0.0847241,0.03031511703589344,0.007757734071786877,-0.012507546676959056,-0.015836395059822397,0.0,-0.031158262881657423,0.007965416714154712,-0.02842115572611919
0.0851897,0.030487000359946607,0.0070474295563728055,-0.005407006280025216,-0.018602092385497145,0.0,-0.02658965478178246,0.009822505665440791,-0.027593253192667002
0.0856552,0.030565289832955287,0.006167707394214337,-0.002302600924276792,-0.022163662803394248,0.0,-0.02267343349949858,0.010962105545660752,-0.028215389832955285
0.0861207,0.03176788475537079,0.0054968445632797,-0.002182,-0.02598755424242451,0.0,-0.018362431301247522,0.010825889126559398,-0.02948918594966658
0.0865862,0.03407812083844502,0.003665973806602849,-0.0020385085308698555,-0.02961675774174644,0.0,-0.01617941606485641,0.008599489871459259,-0.03143643154834929
0.0870517,0.03616081327874133,0.0023834792904973475,-0.0022064044262471104,-0.031064302213123555,0.0,-0.013498182295011558,0.004684570438003126,-0.031656389645248674
0.0875172,0.038179539239874646,-0.002068901258558479,-0.003086617719623951,-0.03131006076012535,0.0,-0.011026808859811976,-0.0006731050591852273,-0.029663411301006026
0.0879828,0.0387239388314518,-0.008329496561695718,-0.004719816494355405,-0.0307656611685482,0.0,-0.011843408247177703,-0.004211702404436711,-0.02816627188204855
0.0884483,0.03881270048725409,-0.019914999927494775,-0.003959197076475483,-0.031496443385817224,0.0,-0.0191645989529866,-0.00743475856319912,-0.02844550097450817
0.0889138,0.03882176144841127,-0.02750226425264789,-0.0013684550262106105,-0.029568565072503564,0.0,-0.025106637152534556,-0.0090639,-0.02855933574735211
0.0893793,0.03925442400024336,-0.03051731670190913,0.0001469910766003811,-0.02755848329809087,0.0,-0.026845438900636377,-0.010082828175720643,-0.027582226374204526
0.0898448,0.03696147757746882,-0.03015232842258528,0.0035248,-0.02001747249307026,0.0,-0.0208913614086176,-0.008892615647899702,-0.025376404563447037
0.0903103,0.035845480621384526,-0.027970624005541792,0.0019413107628580533,-0.013696099140088076,0.0,-0.014542724005541791,-0.006810932510390859,-0.022500469747618126
0.0907759,0.0359197,-0.026616733972459963,-0.0002928799484046611,-0.011129598719187837,0.0,-0.012393416853403283,-0.005644312640052462,-0.020609238185810782
0.0912414,0.03545232428768723,-0.025741116712325502,-0.006735794999936338,-0.0059243640000509286,0.0,-0.012253,-0.0027344672500286475,-0.019698609537690412
0.0917069,0.03298531900146254,-0.02165843800292508,-0.014984722870344191,-7.521801399457286e-05,0.0,-0.014342330504803477,0.0007118460943539629,-0.020662791554905538
0.0921724,0.0313886072366552,-0.018818158333008976,-0.019206435913764978,0.002414163167200849,0.00016178039761377655,-0.014770346381672399,0.0019563139089154263,-0.02136866648869835
0.0926379,0.03078939593538925,-0.01583616163075228,-0.023741008351888953,-9.095574743932418e-05,-0.0002414966098029464,-0.01851720157149485,0.005857440862363622,-0.021727520093974963
0.0931034,0.03009824380755778,-0.012186445240552771,-0.02728618976460805,-0.001288043091060288,2.9948650467972296e-05,-0.024341428729255644,0.011232589048110553,-0.02360014722311933
0.093569,0.02922317376684047,-0.005520196720855059,-0.029979188522992705,-0.0022384098374348227,0.0,-0.03023027376684047,0.009595604918717412,-0.02622067984659297
0.0940345,0.02733711945705824,0.0029564145132638486,-0.028453850512187833,-0.0016358950562056099,5.3697881230975694e-05,-0.03265900282502537,0.0032159516065811927,-0.02786532510710897
0.0945,0.02601184361387208,0.012535904257418611,-0.02452226681186978,-0.0004440502178046667,-0.042070746789021306,-0.030313538527818224,-0.005088195742581389,-0.028736731277225584
0.0949655,0.02474807636234567,0.018556469855938982,-0.021205302715466962,0.0008388345179709421,-0.02651968480945604,-0.024673246218284654,-0.010984653544688442,-0.02784457198843575
0.095431,0.024985774321005495,0.023749739876480765,-0.020333525678994505,0.002098963657281371,-0.028386685184917576,-0.01622562629659067,-0.015501414197486263,-0.0270237
0.0958966,0.02436479108140391,0.025963217837192177,-0.021208070216496632,-0.0005147840582508435,-0.03888918292597876,-0.0049117635624447015,-0.0172140227603503,-0.02705039108140391
0.0963621,0.024761580153638628,0.02490630576890498,-0.02421863490361994,-0.005058580921831771,-0.04765377938544549,0.002273089097017137,-0.01812003969272274,-0.0273594
0.0968276,0.02537358245795025,0.02313232702170272,-0.02681572106077613,-0.00969512106077613,-0.04922458191968716,0.004389987710248745,-0.01721754385512437,-0.027680908771024873
0.0972931,0.02588675462118521,0.019280517224325756,-0.02914123130255939,-0.011809627727111253,-0.043153081515259165,0.0012885195413370415,-0.015869690757629583,-0.0273594
0.0977586,0.026659161741678667,0.010918320058609335,-0.03310549735817733,-0.009431328767002669,-0.03671980264182267,-0.004849120841534665,-0.015130108708393333,-0.02636672342440319
0.0982241,0.026306690517396925,0.0036983344603425637,-0.036932532950744626,-0.0009000126434707666,-0.032629245594215386,-0.008270209482603076,-0.013631274042024613,-0.026532868545924106
0.0986897,0.0239337575531491,-0.003671897217260068,-0.041115573159726505,0.008797935188493287,-0.020437281333754928,-0.012841046370821195,-0.010121122226191945,-0.026234622226191943
0.0991552,0.02061037311239891,-0.0082697631412014,-0.04308711873199845,0.011531418731998443,-0.004146018731998443,-0.021783069801979266,-0.007533127492799377,-0.025713518571613404
0.0996207,0.019189447815648443,-0.010012393126928818,-0.04290189941892255,0.009550585672780183,0.002773289925691717,-0.029247492545851364,-0.006654809086900524,-0.026360707163609907
0.1000862,0.018363387075636804,-0.011158745188466964,-0.039877138679481144,0.00832143867948115,-0.0009360386794811501,-0.030128922318028172,-0.0062491354717924595,-0.02780005341599767
0.1005517,0.02123804021230806,-0.01444463452230687,-0.03336311600846328,0.008876285053077014,-0.007246523581681586,-0.024140956403557436,0.0020045713504804187,-0.026688
0.1010172,0.024650399189868406,-0.01764815175773278,-0.027599264421085883,0.006018909442076317,-0.012180565231217475,-0.015561806736742347,0.014603726421401784,-0.02361823126294175
0.1014828,0.02669397710554457,-0.017927233439118104,-0.02268038034310658,-0.004478399261384741,-0.015203003931378684,-0.00996106734429574,0.02326269602382273,-0.01979432086156821
0.1019483,0.02531423227335357,-0.01617678233377323,-0.021931470126216275,-0.019318190401720628,-0.018967,-0.009187801199784922,0.023010790401720625,-0.01985912366515138
0.1024138,0.02238060308544243,-0.01638016395081888,-0.02423543954843682,-0.03253183968743095,-0.0214998970535517,-0.011493381768502805,0.015777233794534357,-0.02144717909687364
0.1028793,0.022178516127383526,-0.017561883787343895,-0.02936684027287225,-0.04296436783050553,-0.01905683976123678,-0.014121803753234866,0.011022455888620306,-0.02253160008527258
0.1033448,0.02129555202158846,-0.017183416918947952,-0.03340341939028348,-0.04599172701628667,-0.015524833033501948,-0.013238764495162515,0.006607485055090407,-0.02379303105946359
0.1038103,0.020143084405819144,-0.0175517678383092,-0.03723498355147812,-0.049080950178482095,-0.009190266270039778,-0.012086284405819145,-0.003035131664313979,-0.024864650059494033
0.1042759,0.01920708118798481,-0.01885135698888836,-0.03976018441298362,-0.05196981397777672,-0.005770286022223282,-0.015905560213887168,-0.015883102147217318,-0.025776518812015193
0.1047414,0.018319138263694232,-0.017335579332233994,-0.03913243826369423,-0.0518748158664468,-0.006191568267106402,-0.024764690277228756,-0.02674122681144156,-0.026664461736305767
0.1052069,0.01650428813396807,-0.013875094066984036,-0.035684212880380844,-0.05005152576076169,-0.008247162373206387,-0.030782769320571265,-0.032568438913053374,-0.026295894066984037
0.1056724,0.013607451606749428,-0.012426675803374714,-0.03394611096404966,-0.04657532192809931,-0.008826529678650113,-0.028175616446074483,-0.03271323759320448,-0.02484747580337471
0.1061379,0.009788784807481285,-0.012531542403740643,-0.03396343215401497,-0.03393557791364091,-0.009261003355885294,-0.01847664841375099,-0.02470456076875737,-0.022153968029372306
0.1066034,0.007022376711571476,-0.010969839143260843,-0.037467904283695785,-0.014345542554080676,-0.010876120489565233,-0.006864760244782617,-0.011169221101521774,-0.020228859893745486
0.107069,0.00628271077722143,-0.009102353214170316,-0.03958099971957605,0.006038141987189915,-0.013055747516012605,-0.0019800953415722074,0.0006420099068265319,-0.022505321133806936
0.1075345,0.004017245529317216,-0.007709945529317215,-0.043456022559036266,0.023150774262595125,-0.014348182678341453,-0.0009371717923413307,0.00649255776342595,-0.02467642158671899
0.108,0.004438314290465731,-0.007842107145232867,-0.0438087,0.03661257866408174,-0.016191846268225913,0.003061003430088835,0.008950942871397192,-0.02688743947456847
0.1084655,0.0055654399977491265,-0.008184184576378198,-0.04026528508346163,0.0384375,-0.017482739997749127,0.010041274411705804,0.005097715930705239,-0.02852033661327645
0.108931,0.005832180558888189,-0.00812893069142259,-0.03232200909822673,0.024528019553522688,-0.015821079651462486,0.012360917289027766,-0.012125440921896788,-0.029750301132247463
0.1093966,0.006525430274055695,-0.006740036376674937,-0.025822663623325064,0.009074184862972153,-0.012007870030756033,0.007646279136876793,-0.03540044848629722,-0.029920515489647678
0.1098621,0.007876798147778297,-0.005068461634138256,-0.02307715549359292,-0.0014226935802962271,-0.01017287018522217,0.0014946808676862267,-0.05541031469162925,-0.030529602131380142
0.1103276,0.0072175,-0.00429838446908513,-0.020006229998808526,-0.008291658889249136,-0.012007771884151948,-0.0012493568847476858,-0.06385417347868376,-0.029831914057924028
0.1107931,0.006893623584949869,-0.005653692106691196,-0.01801901792474934,-0.017976363206353565,-0.014844011320401055,-0.0050791541190607845,-0.06285245506320854,-0.02647053584949868
0.1112586,0.006585614499365628,-0.007500519231782998,-0.019072361536434008,-0.026299619231782995,-0.01570863654302349,-0.009521444225193515,-0.05125626259200208,-0.0257072403841085
0.1117241,0.0070275398755756426,-0.006911343899004197,-0.020250712201991608,-0.025710443899004197,-0.013057347545518886,-0.01276190855547692,-0.042565970310140686,-0.026001828050497902
0.1121897,0.007688982187454046,-0.006500686302951849,-0.022472096092929727,-0.016789393824170728,-0.005926048403935798,-0.013382486302951848,-0.03738498630295185,-0.026545824201967896
0.1126552,0.003573078812140334,-0.005778888878430391,-0.023139024891621677,-0.000745542684255412,0.001365777861270841,-0.012516794703035083,-0.03565618675758771,-0.026927705296964918
0.1131207,0.0023057985853141513,-0.005614599208051264,-0.02436329973601709,0.02388769053383534,0.00938289841610253,-0.00904270197987184,-0.03053550916496158,-0.02700480207464313
0.1135862,0.0012098579823083863,-0.00749327458045485,-0.024989524860151616,0.041891616216932694,0.0131402491609097,-0.004346013548862875,-0.017697987391744427,-0.02653517986731257
0.1140517,0.0023851381846713288,-0.008811367272451161,-0.02792078727346357,0.055101072036289306,0.01572001272653643,-0.0013131320393265215,0.01108229636529303,-0.024566618183658923
0.1145172,0.0024695146810100937,-0.007617447091986542,-0.030252205816026917,0.06358117922107738,0.01722425290801346,-0.004387344043030282,0.033588357128803766,-0.022564075586204102
0.1149828,0.004481188888957019,-0.006773042539486183,-0.030979595026324122,0.06562003417852236,0.015301486665360294,-0.009675423067479375,0.037584837565810304,-0.023702223493339815
0.1154483,0.004136471876616278,-0.007917414607793697,-0.029276836218708028,0.065037345406236,0.012019649734298053,-0.009635737310911703,0.026670745435631898,-0.023882931890645987
0.1159138,0.004512517247028482,-0.00948018049854401,-0.027139996517829112,0.06432506550594304,0.007785793035658224,-0.005781287299059826,0.008254474397060403,-0.025267668988113924
0.1163793,0.005474465790024825,-0.010352918287724987,-0.0270237,0.061144414033250584,0.0050396912266004665,-0.0006691235475760386,-0.010691156418396405,-0.027073284077749813
0.1168448,0.007294296477241734,-0.011025394715862601,-0.02530680176137913,0.047153450587211466,0.0012895312591274025,-0.00010097623208612654,-0.0259112894317252,-0.028212907045516534
0.1173103,0.00769040227140865,-0.011321806814225949,-0.02508889909143654,0.02195963136001421,-0.004073332048584245,-0.0010108693142609447,-0.028608189551520214,-0.02736115205155521
0.1177759,0.009515148459812297,-0.01173277551409459,-0.025425232663760126,-0.010839057149665534,-0.008149012242952705,-0.007410914299331068,-0.018028776026093114,-0.025158497431623114
0.1182414,0.009292651336075652,-0.009872624331962173,-0.024002211635085608,-0.02406429571748835,-0.009994527004113478,-0.01451100534430261,-0.007370345991773043,-0.026229929676264783
0.1187069,0.009526432107058056,-0.00960950458672258,-0.02276661023631465,-0.011099664369088855,-0.008265567892941944,-0.01940681850186306,-0.0027902493910788835,-0.02777930917344516
0.1191724,0.009240875660761082,-0.010855146035433517,-0.021870864767540014,0.010418513767061629,-0.008142019053150274,-0.020199692070867033,-0.01490648382069029,-0.028619619053150275
0.1196379,0.009300034018050895,-0.01354544861827829,-0.02234547916359502,0.01459211041820249,-0.01257611161889378,-0.017588234727341636,-0.03776070467342545,-0.029041496527265835
0.1201034,0.010708361715600228,-0.014039425941279727,-0.024223167259640434,-0.005900635774320501,-0.019300235317689544,-0.01627439320092016,-0.044761737029360135,-0.028467419142199888
0.120569,0.010951983000221365,-0.01601176928555617,-0.02431113692855562,-0.027827246603007314,-0.02627141078566685,-0.020439828162995513,-0.023490109674451698,-0.028810052285777533
0.1210345,0.01157798517502654,-0.01811431505449053,-0.023229713064724617,-0.03824215577939615,-0.025036269891018936,-0.027499755779396153,0.0037432934676376916,-0.028838940954422694
0.1215,0.011550362721395206,-0.016574149114419175,-0.02116861436651151,-0.04878914183255427,-0.02157069860860609,-0.032870966263718514,0.008275254807671871,-0.0287022
0.1219655,0.01145487627537391,-0.014405533517702417,-0.019847372816990512,-0.07919533351770242,-0.020898947449252178,-0.03509594842037915,-0.024742034488829383,-0.02744549117805064
0.122431,0.012238146275641338,-0.014332825475124409,-0.018426581147510217,-0.11429017647290274,-0.02718439294055927,-0.034044589033033645,-0.06914832478998607,-0.02719870705944073
0.1228966,0.01303662016371818,-0.013069761316167886,-0.015530907616452726,-0.13858594932739468,-0.03351520739943032,-0.03284184630028484,-0.09649379627874671,-0.02684413704022787
0.1233621,0.0137898957535122,-0.0129244,-0.013899946975619996,-0.1609489582975157,-0.03636019395123999,-0.031240552552893316,-0.10294418837396667,-0.025649346975619994
0.1238276,0.01468422033698891,-0.012965060168494455,-0.01308704067397782,-0.19243084773509775,-0.03414480890478604,-0.026098433612857883,-0.10381788688285258,-0.024582317648901217
0.1242931,0.015776232323086323,-0.013543657294221235,-0.015479643235553087,-0.2029984974809066,-0.03054035570489827,-0.018073860407978076,-0.09298348329246024,-0.02335873126353768
0.1247586,0.01816222411459389,-0.013702908792554053,-0.019773992198823052,-0.18626462622036222,-0.026586843969635274,-0.006853316593731,-0.05534222622036221,-0.0223239
0.1252241,0.019211730465039514,-0.01224265726278653,-0.02211957315702927,-0.16243257012092213,-0.026226233546370378,-0.005246463470671969,-0.030410680438464763,-0.022274673788214613
0.1256897,0.020822168722175377,-0.011920847277533985,-0.02227423917120503,-0.14651821088986405,-0.025652521779728116,-0.012405531877280548,-0.030391341832601955,-0.023009489110135943
0.1261552,0.02181327235582199,-0.012253,-0.016981489304058014,-0.14561807379729466,-0.022424012239934135,-0.027955562998833186,-0.03049514625563613,-0.024552336898647328
0.1266207,0.023178192205137838,-0.01223300840808432,-0.01136169248892752,-0.14854828464842257,-0.017434279876801042,-0.03872025314231408,-0.022865357630145924,-0.02636229579595784
0.1270862,0.023886901288371235,-0.012253,-0.00825241884680987,-0.14574402684690815,-0.014150226846908141,-0.04367146772973606,-0.02038990637222691,-0.02707608752541704
0.1275517,0.023578147100897215,-0.011611119098583788,-0.004786581971675782,-0.12753797081440563,-0.011762479828567726,-0.041772201183280955,-0.01919215847644341,-0.02658468315495674
0.1280172,0.022289235491965476,-0.008898632327202364,-0.0034473839631173247,-0.09543932323272024,-0.007387324245401773,-0.036355107069119055,-0.006312031314520827,-0.026119557438915468
0.1284828,0.01986937670404365,-0.008913453882659392,-0.00014228845914737438,-0.05663501553063757,-0.005181483946488291,-0.03140060577042631,0.009179338352021825,-0.026988792234681216
0.1289483,0.019614306651869744,-0.00931707460320963,-0.0038809791019301285,-0.017375637527744233,-0.003042544141710998,-0.03135347290233922,0.016544808352740158,-0.027709957483353462
0.1294138,0.016994588134836768,-0.0085603,-0.005539,0.01285915067448821,-0.0034446110448948623,-0.03206323477522133,0.011810379876531116,-0.027736985859843716
0.1298793,0.01408238772985172,-0.006737372637911032,-0.008273391043133451,0.03088164066306883,-0.0013980514108962046,-0.02870123186444871,0.012524942454029655,-0.02907828490805931
0.1303448,0.011032519459817725,-0.00697737282306475,-0.011147680024474837,0.04308003445992813,0.0014123943865036184,-0.024916659967366882,0.020063353404038423,-0.03164939387079618
0.1308103,0.008744983654687472,-0.008726711234410942,-0.014935713299739634,0.05213376538125011,0.004285655127083371,-0.025557777563541686,0.029854552113874052,-0.03449855512708337
0.1312759,0.009076538055650913,-0.009155849071239366,-0.01767476728584042,0.05572382714159577,0.006697801857521268,-0.03096222378716486,0.03714526728584042,-0.03647386728584042
0.1317414,0.009146679452098664,-0.0082246,-0.01855066164370401,0.04717744759588688,0.0085603,-0.039122033911642394,0.03719220497007915,-0.037307251369753346
0.1322069,0.008509433319101159,-0.008326333361797682,-0.02051325914738433,0.029755007213290583,0.00853486665955058,-0.046400120522375014,0.032636420287544134,-0.03882406668089884
0.1326724,0.009096682788258766,-0.00946675143431177,-0.024404379919635226,0.013101156828497008,0.011042744848420634,-0.04791346543436763,0.025848442828441152,-0.03758260153476774
0.1331379,0.0077433366169082736,-0.009858613514325938,-0.02532500811460751,0.01975577028651878,0.007642172971348123,-0.04803719581146203,0.01864737591864589,-0.0379885324283703
0.1336034,0.006592709563446678,-0.009879795218276661,-0.02707974493336836,0.05484009043655332,0.007483285654829984,-0.04092967704031246,0.012352320278120565,-0.03441686826057445
0.134069,0.005999241374383366,-0.010521395226032688,-0.02879007772148588,0.08993143433631139,0.007021527298239401,-0.027057847985431083,0.010751878394268114,-0.02940837294751857
0.1345345,0.006873935590824982,-0.011368838346559367,-0.02983223834655937,0.11114533283509061,0.008683238346559367,-0.006175639764507657,0.010259295828008457,-0.027105658897706247
0.135,0.010300569813078083,-0.011846835839036365,-0.029989568527106904,0.11234729936384602,0.0073014087322865375,0.005396458089300948,0.011967230823075893,-0.027267552074768768
0.1354655,0.010636742203708758,-0.012192562103858036,-0.03195545887318294,0.09859086707845148,0.011034696769324906,0.011775768565208225,0.011789094615541508,-0.02926804220370876
0.135931,0.010445330818319344,-0.010343038580209046,-0.031019391522371275,0.07105436648276821,0.011886437864470023,0.00672594468138124,0.014355701214630312,-0.02918464369599039
0.1363966,0.01287632113568846,-0.008226328072223224,-0.029457208746300992,0.041700501659024364,0.011981405152415386,0.0016561439304012804,0.016830215807930766,-0.030503284192069234
0.1368621,0.014025971521497428,-0.006489417087101543,-0.031704605695700515,0.028317112686390842,0.014865171521497429,-0.01324999502215185,0.02086278168527901,-0.03278728291289846
0.1373276,0.015655201230518955,-0.005502839015584836,-0.03137875975389621,0.02501732935194405,0.016462761715632615,-0.02442850246103791,0.024628041975924247,-0.033755780492207586
0.1377931,0.017200523619913453,-0.004257783466060582,-0.031069695276017308,0.037197263903112926,0.016895614042601474,-0.027299208910295088,0.028817961670468177,-0.034365111809956723
0.1382586,0.01763999080413726,-0.005177526025722735,-0.02885105041510006,0.06480559080413727,0.015122190804137264,-0.023831649733859803,0.034599823708137065,-0.03611144046351713
0.1387241,0.0194998428849329,-0.006308971442466451,-0.0283665,0.09541910012968688,0.014701471442466451,-0.017124214262555913,0.03895030494245854,-0.0382167951223849
0.1391897,0.021356709593332895,-0.0072175,-0.028389249307144187,0.10313660159900856,0.01566687326786047,-0.015746495842865128,0.04220981918666579,-0.03925395069285581
0.1396552,0.022434145244173552,-0.0072175,-0.02900495302318335,0.08251061881615228,0.017206132557958383,-0.019440718139100123,0.044364690488347104,-0.03863824697681665
0.1401207,0.0212474757704558,-0.0061732079101360585,-0.02946433987162294,0.016584388616209887,0.019185659130105007,-0.02896896771757047,0.0454653051138114,-0.036987604436482004
0.1405862,0.02013762674072866,-0.0063126080187350785,-0.028967940848711203,-0.0632830779991942,0.02135461028384251,-0.034373684298149666,0.04616080067123964,-0.03808999273630073
0.1410517,0.019890078848256797,-0.007838376091386592,-0.0266712302266919,-0.1439777046577369,0.024875097243129796,-0.0395452486215649,0.048541949540521635,-0.03692695229739184
0.1415172,0.020529926282636564,-0.010013765885265613,-0.026543306481322037,-0.18594904334569629,0.02641063960262905,-0.04031301980131453,0.048797873267104844,-0.03564733366447579
0.1419828,0.022539589299239778,-0.019404023847647424,-0.02762509326134592,-0.21720739771743192,0.0282664861172603,-0.03792612221238352,0.04947549444690412,-0.03415341110619176
0.1424483,0.02359007391485234,-0.031755365255762086,-0.026961855386257606,-0.19618039546871915,0.030663337061607676,-0.03220664743065148,0.051347106245652585,-0.033943869184044906
0.1429138,0.025342523595507583,-0.04330763014945282,-0.02488423592966322,-0.1432883080605297,0.03508366212997157,-0.019672074735667226,0.05176836124864563,-0.0323721240977024
0.1433793,0.027368628782386304,-0.041783532970077066,-0.02334269849813766,-0.10612117280523965,0.03964793957787174,-0.004087136574147059,0.04777945138579602,-0.03046400912209586
0.1438448,0.0290704270064716,-0.03687454331176133,-0.023029146608847632,-0.09996328114617327,0.043783405350590936,0.004616690415641336,0.043185150094066066,-0.0303807
0.1443103,0.029909426109847807,-0.02970780625457763,-0.02142057359231516,-0.1081511489575704,0.049005099985917885,-0.0016063008935110902,0.039875249269489536,-0.03165969940432594
0.1447759,0.029977631857091534,-0.022529590793651626,-0.021142885148512796,-0.10848838298181984,0.05217183759756985,-0.011160418304781435,0.03724407952852561,-0.031615704549216535
0.1452414,0.029417241326806405,-0.012214399238692891,-0.021765851591516328,-0.09467455759822462,0.05350025867319359,-0.01666913137575836,0.032678568624241636,-0.031095741326806405
0.1457069,0.028791118706518275,-0.0022618993042923885,-0.022257217591998883,-0.06672027031080743,0.0512139748260731,-0.01709837694525802,0.027443809005405332,-0.02988713741303655
0.1461724,0.027642840109829665,0.008702553372234061,-0.0210525423817051,-0.017469014503017386,0.04806871161083546,-0.016901071501005796,0.023375197728124564,-0.02812779286175723
0.1466379,0.02561763034479421,0.012353501185689031,-0.020167112602760436,0.03437825641956286,0.04192330776347251,-0.017059848023207844,0.025264115488838355,-0.027975679000884553
0.1471034,0.023769279443612942,0.017521620556387056,-0.01973234692747493,0.08110942617987937,0.03576913808756262,-0.01273900543228381,0.024701532133720998,-0.029225807327306567
0.147569,0.023358939831619133,0.01957553537885695,-0.02094627521047608,0.09883568426966557,0.03268503572297656,-0.009339965807166992,0.023722579663238267,-0.029023930084190432
0.1480345,0.020982250476969475,0.022228234161334844,-0.021665319846301597,0.09060233644999954,0.027510383210855107,-0.003950918418852381,0.019855183396302056,-0.031319774807877
0.1485,0.01824520075447496,0.023292959143949937,-0.022434744381825418,0.07871658633440176,0.01946818750130037,-0.0019223817121001268,0.014650898078626434,-0.03440243229554943
0.1489655,0.01653175879681319,0.01990354619672479,-0.022348943337494747,0.05647765175848304,0.01434687639043956,-0.008987006015934065,0.00967210481230745,-0.03674419768446154
0.149431,0.015744914791819102,0.014447397769471508,-0.023119836730909938,0.022984921939090838,0.005878305142375674,-0.0222823908478322,0.0004204786041955516,-0.03810540205090683
0.1498966,0.01566043134451007,0.011601789852497015,-0.024843288006803202,0.008650445756429424,-0.0052840728365231215,-0.027674910147502986,-0.008850927121785286,-0.03777690350605565
0.1503621,0.0179599,0.008671770302499458,-0.022858918985433876,0.015427734989650395,-0.023619616131983476,-0.023510676045614937,-0.019802390848589067,-0.037760822070530664
0.1508276,0.017369267747632363,0.003554458959661103,-0.022046340173203578,0.016514200881852254,-0.034440648393268394,-0.021236117590659458,-0.027585354834911757,-0.03371119355835663
0.1512931,0.018251027160527428,-0.00011002839472569546,-0.02093662716052743,-0.0014827054032313098,-0.03767976172896632,-0.02089205432105486,-0.027608761728966317,-0.029890398765801737
0.1517586,0.017947344589516495,-0.0033601913923180142,-0.021197766069349772,-0.010183961304802753,-0.0329188713339745,-0.02010897325554199,-0.02238347070427999,-0.026612689970828246
0.1522241,0.016906072326455607,-0.003670206791746728,-0.022040344225573855,-0.008466944652911215,-0.02604083446529112,-0.014198079118202336,-0.017814493208253273,-0.02383634125703785
0.1526897,0.015394009684646336,-0.0030928193692926747,-0.02252341614107723,-0.020216692467497292,-0.021936634225910683,-0.004801094619640923,-0.0169528,-0.021213966850161133
0.1531552,0.014655601148000514,-0.0035184808667630112,-0.02243808582066778,-0.058131442858476025,-0.02224045782390605,-0.0004400892646693171,-0.017659334098667007,-0.020228819598855426
0.1536207,0.015450372988558793,-0.0028610577269211294,-0.023025921785913322,-0.1119554,-0.02594294008694741,-0.004290344647833009,-0.018234356428173358,-0.020616013298247603
0.1540862,0.01556670548968873,-0.0035506746292577455,-0.023241035780343013,-0.16061009939472073,-0.02945063695539897,-0.014218832640766198,-0.019195302498795013,-0.021854135744840467
0.1545517,0.0167568936734297,-0.0031553579325579,-0.02394648186434113,-0.1660032857035285,-0.03541639118604678,-0.02263742726321818,-0.01837369087244069,-0.024942398237209357
0.1550172,0.019151078044446743,-0.004258053269713302,-0.024154895907156457,-0.11358271969052151,-0.04015597999106264,-0.020505068667779527,-0.017343356725725165,-0.027414256725725165
0.1554828,0.02220632674477795,-0.0021500170600270495,-0.023301008676784172,-0.016826652851785764,-0.047777017353568346,-0.013089012364422246,-0.014455328416482567,-0.028390016052060322
0.1559483,0.02224383411595706,-0.005668928048251505,-0.023125228048251505,0.07175504483345559,-0.05065496396653084,-0.012791096872697728,-0.00932053670832214,-0.03134882158552455
0.1564138,0.02168707087741961,-0.020381849656852833,-0.0228057153083711,0.11044535924122313,-0.06111221711230092,-0.01655716701935686,-0.004290603858062747,-0.0355286214064549
0.1568793,0.02196399597033134,-0.03334955736144203,-0.022061204849199705,0.10491490559091624,-0.06610141858709574,-0.020329547614307407,-0.002663524178011966,-0.03819445970331339
0.1573448,0.02197426618290406,-0.04335730299325251,-0.02122618390379575,0.08387992181067866,-0.0766206780572831,-0.018854729463232484,-0.002280236719671577,-0.03926216037775279
0.1578103,0.022122991293652913,-0.04286576731592359,-0.02207808973726832,0.06873374645096346,-0.0955254178724781,-0.0035633448945788584,-0.0016228605787119068,-0.03751807976700032
0.1582759,0.022906382524186416,-0.0373814841402612,-0.022600324626103615,0.05750410155250159,-0.11028063448658522,0.007927456345581218,-0.002275790330237992,-0.0341230473249236
0.1587414,0.025205354425242184,-0.029497392602775677,-0.022343877939251116,0.036023382160942696,-0.12553144861220197,0.01017886618224665,-0.006612100795674308,-0.028686147028017864
0.1592069,0.029425831054539157,-0.022579513420296522,-0.02232041896695396,0.013180012383039957,-0.1307232613672765,-0.0033179366011965926,-0.012948774492118275,-0.025329531202266536
0.1596724,0.034644114835028036,-0.014327561428927093,-0.021894294065988782,0.0062205430215813194,-0.12745128219796634,-0.01604477394443198,-0.0152743,-0.023740594065988784
0.1601379,0.03883958140171825,-0.005952761393720401,-0.02184780070485805,0.013556709291469342,-0.12321109906685415,-0.02100454441344794,-0.015317239767713266,-0.02332911907485199
0.1606034,0.04059891979776269,0.0007141768551341572,-0.020330742244693032,0.019680908574297527,-0.12339014224469304,-0.02795812934767629,-0.012441480202237305,-0.021704952492542135
0.161069,0.04213739897522566,0.003456814633059695,-0.019623993153591136,-0.0006910402850400679,-0.12364517254095013,-0.03982562061264102,-0.00854128028533476,-0.02347311967239905
0.1615345,0.04081896403450681,0.004086612111680167,-0.018791056613606704,-0.03962390454537716,-0.12414102343350097,-0.04871557369097608,-0.005518678746800778,-0.02692958937340039
0.162,0.04118462645701422,0.005425460624770551,-0.0172144435717065,-0.0968808205701936,-0.12077493667388982,-0.05300744465751673,-0.004489668471955066,-0.03234127760302044
0.1624655,0.043098232265938646,0.0037496276118465593,-0.01787514431723925,-0.13505503954979142,-0.11235925465126975,-0.051998826466999826,-0.007976978413803744,-0.03344437784138037
0.162931,0.04535446595824411,-0.0009434796034348183,-0.017220811347251962,-0.13259573194140123,-0.10013008827717654,-0.04072856463394551,-0.011113265958244113,-0.03369257423150131
0.1633966,0.048191024258814434,-0.007260426247104951,-0.01633637277644331,-0.10330573160032602,-0.0843483053886081,-0.015352731600326021,-0.013986472776443309,-0.03299300296474225
0.1638621,0.048475788658543795,-0.010535174430468605,-0.017190665975631375,-0.08365707284604834,-0.0726729649997045,0.004295927153951657,-0.014840765975631377,-0.03185394536582483
0.1643276,0.04786401281598333,-0.013487748736066684,-0.018255080776025005,-0.07302986660778328,-0.06424773695246006,0.004612938447949987,-0.01429421281598333,-0.0293070960482592
0.1647931,0.04944864065969543,-0.014229484936395195,-0.020673428931336217,-0.05292768445364586,-0.05969686890729173,-0.014832122721594508,-0.01481265045705733,-0.02846130239174679
0.1652586,0.04675271297291861,-0.016804246756770346,-0.020081138261276076,-0.0174028253378888,-0.05233691043023223,-0.020012693513540694,-0.008716140319842379,-0.028961485042812093
0.1657241,0.04304196330964672,-0.01877423179061644,-0.01887375813832372,0.0016132413333289392,-0.04144636949280424,-0.0016452989657354002,-0.00883074133332894,-0.02772203979314708
0.1661897,0.04122284884082702,-0.02100354429348437,-0.01958418505610654,-0.01617689411373565,-0.02778584388931229,0.018231695497331994,-0.008678319446561463,-0.02565362444275083
0.1666552,0.039655849009181746,-0.022956890049080695,-0.017346109205504525,-0.04270666635902278,-0.017587326889507485,0.0218154494999887,-0.011197500490806957,-0.024827439803677215
0.1671207,0.037226535566384535,-0.01971574166061181,-0.01728982819834522,-0.04985519045411505,-0.00475092048036998,0.015185786887669334,-0.017782168464785142,-0.023270665013127467
0.1675862,0.03594302882847271,-0.014901118585159592,-0.018391979185996495,-0.007783442976876793,0.000653425659361632,0.023042724821238106,-0.025927206440379824,-0.02297388364368432
0.1680517,0.03285123155245804,-0.015620966504768914,-0.019001417085882717,0.06366633009537825,-0.004856633495231087,0.04716682323792689,-0.03051352129515384,-0.027026442442881594
0.1685172,0.029582618989121946,-0.018757981010878055,-0.019890492404351222,0.09319527989234136,-0.014311543032634159,0.05552860469092029,-0.02662402468585853,-0.03095872315041632
0.1689828,0.026344957756127007,-0.019969812286439285,-0.02200298448774598,0.05229963870539952,-0.01741641205648377,0.025004192545845256,-0.011910872805251225,-0.032934100229955514
0.1694483,0.022375000314078675,-0.020178444734853827,-0.025128096155302003,-0.03647803673137916,-0.012395306908143272,-0.019871913502207864,0.0028096149116179424,-0.03330347818023879
0.1699138,0.01847354732209695,-0.022429068451935368,-0.028214844790886894,-0.10860364243386465,-0.0035257550349252903,-0.047793608061203974,0.008008165627339324,-0.03171740253121006
0.1703793,0.01670502765851723,-0.023549463121977022,-0.030028989365931066,-0.1181271029756705,0.00326500863392325,-0.051874634877877294,0.0013640626332486105,-0.027519244682965533
0.1708448,0.017337713235127034,-0.022752149799206402,-0.032022333365450045,-0.08178345559302505,0.010252291558240688,-0.047577605295881314,-0.004927651848283328,-0.022688480966478058
0.1713103,0.01765012139653497,-0.0250095,-0.03431577741259402,-0.044910318656341625,0.014694925899517743,-0.04332264539810145,-0.010342491763784422,-0.016938541378909436
0.1717759,0.01892103015827407,-0.02257799174152024,-0.0344091,-0.043553443799588615,0.014290184920862967,-0.03423303683401314,-0.02385542008530949,-0.015320269841725931
0.1722414,0.02037756942664689,-0.019519137229443324,-0.03375526433147943,-0.055434490445680384,0.009255569999734491,-0.015194589872592777,-0.04546391203780147,-0.01776536248401287
0.1727069,0.02214847446343579,-0.018291222152598777,-0.03163903492088088,-0.0489416188565766,0.0118133429795457,0.00917972148977285,-0.06299981550752906,-0.02294332342522527
0.1731724,0.02414276970052508,-0.016080871856392745,-0.029268138084064033,-0.02521750562872145,0.017315564005107073,0.026026263099528983,-0.05741707532924653,-0.030275238084064033
0.1736379,0.022704699821827982,-0.014659274777284981,-0.028573860664779342,-0.007496283393086145,0.017641110753865347,0.03187880071268807,-0.040691019369666515,-0.036231625757231066
0.1741034,0.015969296099083003,-0.015056382527439453,-0.02790716406208353,-1.4714552523511625e-05,0.005821766024457444,0.024585463104420408,-0.023902372810279217,-0.04032211942301904
0.174569,0.01014085163920558,-0.015372248360794422,-0.028006633118286352,-0.009521036109815275,-0.005184364982988445,0.02245450909866968,-0.008365661543796744,-0.04212496813529791
0.1750345,0.0038305622573999052,-0.01560565438860321,-0.02925042850712299,-0.03972569521511676,-0.005734158723347402,0.026913096465947497,0.02360175006199065,-0.04549144561139679
0.1755,9.776575695665587e-06,-0.013164553976879696,-0.030409289815808215,-0.055790140341863595,0.0027689255705961534,0.022967863108960717,0.045199175044540775,-0.04699073928975283
0.1759655,-0.00447520933711308,-0.012414049649191785,-0.032885830661928364,-0.02543898342527416,0.010085900155320432,0.018667266459572757,0.04439073610828526,-0.047716431283210084
0.176431,-0.005245865206636667,-0.01105515679410127,-0.03514314883020441,0.02791529785780125,0.006718370184911383,0.016750089050480997,0.027881473020987348,-0.045438092383041744
0.1768966,-0.002295384212914856,-0.012126892771364146,-0.037311742438910785,0.06336579234961592,0.000815342704873474,0.014420849135621267,0.027395251396304107,-0.043381974567810636
0.1773621,0.0028384210131628005,-0.015250504315907219,-0.037436562289581615,0.08191088119913258,0.0042993467358986995,0.0060517978963881645,0.03987633621060481,-0.03868816339572931
0.1778276,0.007215762913974928,-0.022188647029877002,-0.035900238221207324,0.1309601582879522,0.016191193282653806,-0.0018072906542072398,0.038917638640225474,-0.034318893282653806
0.1782931,0.011111880489932361,-0.03152230125879098,-0.035796681707494366,0.20024531963375458,0.03371579756487599,-0.015968891544986142,0.022434727965081495,-0.035237398782438
0.1787586,0.01451232901499905,-0.03449765151227997,-0.036080052417916585,0.21512215531308826,0.039949953194164924,-0.026736894129141937,0.008266276855859015,-0.03835447659708246
0.1792241,0.018469076868093272,-0.03473803868934387,-0.03576541859432556,0.1721852408693212,0.03673304725391174,-0.037977867792930935,0.012238300990098275,-0.04165931405674439
0.1796897,0.021468961528510806,-0.027663010459936455,-0.033961732958559004,0.09621738188998465,0.023384448818522117,-0.03783240314997442,0.02329542744422255,-0.04013624038283083
0.1801552,0.025118046565246348,-0.021734499989838736,-0.03355758475473352,0.023023955953578163,0.01413412965092479,-0.03020058475473352,0.03123019916039183,-0.03691458475473352
0.1806207,0.019936068626824194,-0.012329062746351616,-0.03363311372376653,-0.030230401528110035,0.006470037253648384,-0.017901341614002475,0.025161625492703232,-0.03042823921646976
0.1810862,0.01250066435829414,-0.0008108620738904422,-0.03238459502053298,-0.03584979730493668,0.006417289291511752,-0.007269024897335095,0.01014090269506332,-0.025727272407601583
0.1815517,0.010689643381332322,0.006675589620922961,-0.03291759906748792,-0.00950028489764048,0.00747647924184592,-0.011557648104614801,-0.0024649439949037356,-0.025218186486239972
0.1820172,0.011209822954323783,0.007854798525439745,-0.03700760463430061,0.009148831788566463,0.0025495581198098716,-0.029764545474289025,-0.008366940839988414,-0.027092760957061035
0.1824828,0.01504657000250412,0.007088447003279041,-0.03573080249561779,-0.00928895006453079,-0.0071635149987479396,-0.04811871499874794,-0.01591281250313015,-0.02994230437359143
0.1829483,0.017141539038635318,0.005864408007534306,-0.032278422787863775,-0.05869068121590338,-0.02212042698937951,-0.05632538649236402,-0.021196989878761605,-0.02853364598328663
0.1834138,0.018231807055542733,-0.0010222895519011422,-0.02407245656523415,-0.11368234591705435,-0.03360670020008094,-0.0538015840772184,-0.01086710114110378,-0.023582320456441513
0.1838793,0.013718783604469468,-0.01132443385629488,-0.02031539613238167,-0.14828926919835336,-0.03997045720305806,-0.0395058754767925,0.013120190666912623,-0.013013796805175174
0.1843448,0.008002875364114124,-0.022315071731133024,-0.02065247127212673,-0.15136021790836757,-0.0357519,-0.026504798925731283,0.012349313865211533,-0.006824009696405625
0.1848103,0.0016561507725853766,-0.033729457689268764,-0.02479584404574334,-0.10964157794135052,-0.02721516612775787,-0.020276515260251815,-0.01634796947949637,-0.006193596576705866
0.1852759,-0.004557673899850637,-0.038157318785248175,-0.028070888240527305,-0.033621510606278736,-0.02056489790579046,-0.016828894248339867,-0.04731137147254134,-0.009107368635184934
0.1857414,-0.004516604649523734,-0.03437849892573091,-0.030460105197321074,0.04687725546055695,-0.01861323116260086,-0.011867181425836738,-0.055768488004617006,-0.013322750811033216
0.1862069,0.002014459789941466,-0.030927361917979682,-0.03186413751421998,0.10634887782381246,-0.029635359116469424,-0.014380934818381434,-0.05188501591197054,-0.014017058080402687
0.1866724,0.011598854311416947,-0.025240583253162946,-0.029850171982521767,0.13892050294824831,-0.034573514972271874,-0.01902333064234083,-0.03408372839188961,-0.013449804574872796
0.1871379,0.0162814,-0.019371416473354535,-0.03002902353719563,0.16140119999520447,-0.03168012000047955,-0.03289209058329326,-0.008079172957259241,-0.008841280004315978
0.1876034,0.016196753249116506,-0.01169157533097735,-0.031094423375441747,0.1641903759777678,-0.03140896168772087,-0.053828940738562384,0.013570469318656245,-0.006139861040930422
0.188069,0.011614873977013837,-0.0001539110357675266,-0.03349171734865744,0.1564358747485388,-0.032586331470623155,-0.08474914886614458,0.02796699373397408,-0.0025556078559397905
0.1885345,0.007798531828776558,0.00595216061266923,-0.036035945447482294,0.14740390289208197,-0.03373119622072289,-0.09670694514187851,0.027585397413521794,-0.0007746481867623936
0.189,0.006697789331085645,0.011569309486684632,-0.03813129635065658,0.14193411953160104,-0.03762333357074292,-0.08863159042508455,0.017574030200515397,-0.0012195145091428367
0.1894655,0.010836224497342109,0.01498167464095865,-0.037503551981324844,0.15681868192166423,-0.042975536889629705,-0.0731639806142399,0.005950313828452996,-0.0040861015504752235
0.189931,0.015206162292953502,0.014665028878007153,-0.03864894224398569,0.1686394090738784,-0.05002261918823856,-0.07091005647069348,-0.008231638376477118,-0.009695176944252865
0.1903966,0.015623328784851247,0.01027152424588429,-0.04337119620801241,0.1445242598169279,-0.057855887152336576,-0.07823774317727686,-0.016081430329613445,-0.01608930910333565
0.1908621,0.011891261812894328,0.006572138187105671,-0.04732663550952611,0.0990327358468522,-0.05944361222764843,-0.07750805796409053,0.0033316885996648076,-0.02077373818930064
0.1913276,0.008459810739395838,0.00029629826371856604,-0.049766732599607906,0.028305897437315077,-0.054535304596912304,-0.06001200487109695,0.038253746092398865,-0.028271348210100692
0.1917931,0.0035585121292768408,-0.00114315808738074,-0.053303435422676446,-0.07250402931879525,-0.039648721892581035,-0.030726220298731653,0.03969181446636681,-0.0288322477449841
0.1922586,-0.0025514282664240236,-0.0028534,-0.05759946456452365,-0.21378745971501095,-0.020489139922018968,0.0019651031033765605,-0.007845981485462082,-0.026891492620514247
0.1927241,-0.004290686675327177,-0.000359565399247487,-0.05677896145149638,-0.32109129051392277,0.009042826649345645,0.02630145357349975,-0.06579569654536838,-0.032731503765185355
0.1931897,-0.0028029201482221633,0.0018463,-0.054238005055007296,-0.3552812504064589,0.02390650026365742,0.037803941758345505,-0.0939892358405589,-0.03715275797799708
0.1936552,0.0025527963632687545,0.0015646514504233577,-0.047002312091357745,-0.32442499551003745,0.03159367614521724,0.02374600492318824,-0.0812747251280196,-0.03962052063805708
0.1941207,0.012635850267795776,0.0005035,-0.033318470525737026,-0.27010058668266373,0.04228334010711831,-0.008354353896632461,-0.05061179280574031,-0.04262293654169531
0.1945862,0.017334415183946707,0.0005800253065778462,-0.026115624944505717,-0.23663330471521848,0.04402195950947545,-0.03532739911978571,-0.024190225824720003,-0.03994663297658622
0.1950517,0.018022840714425566,0.0025002191665035043,-0.025378434925309303,-0.2055033623247135,0.04082236166699299,-0.055823876666014016,-0.0012518194953637716,-0.027805240878855702
0.1955172,0.016670915353413543,0.003196410894933619,-0.02952477082242781,-0.16505115788782143,0.03542349984422568,-0.06124251351261001,0.017155286686259222,-0.01992508500123001
0.1959828,0.012374248009805933,0.006712302968972398,-0.038198043777560794,-0.09838748524978957,0.03167163873468436,-0.05781706399264555,0.024083232006537288,-0.014176263992645552
0.1964483,0.009994140660431014,0.006463602378792755,-0.0411294966331843,-0.012304916963399803,0.028855832874116014,-0.03556555425701511,0.032481676238308145,-0.01881549933694542
0.1969138,0.008311712441241417,0.007869337093258658,-0.04237623931696044,0.0680130405590594,0.030174394540963063,-0.008299992667528398,0.0380641036662358,-0.021803374105883795
0.1973793,0.011377235256723415,0.005972707782955333,-0.04475486370325901,0.11824378698487494,0.031069065514293906,0.012887328513785658,0.048297135960490664,-0.018921479336419737
0.1978448,0.01395088900325006,0.0019161848975909376,-0.04472596958738419,0.12732176233231646,0.02779479051033489,0.017762756771632245,0.05375178515744836,-0.013833716089779036
0.1983103,0.01646620268377569,-0.004074778600417126,-0.05323650199516194,0.09840978890004161,0.0197167834618109,0.01445317660525519,0.048949611535493334,-0.005481322088196629
0.1987759,0.018482954629888144,-0.009166871919684287,-0.06980795594480677,0.05428121453914205,0.010980526850559285,0.014296869074022372,0.037841916782830255,0.001924327357525173
0.1992414,0.020324586072638144,-0.007211831394881478,-0.08430125410222446,-0.010008911744606669,0.010139766731870562,0.013627621719134456,0.020444549161181862,0.00035550503348519844
0.1997069,0.025428861596204624,0.0014695947533650872,-0.08329216448355956,-0.07838450782716908,0.023117410714524007,0.014495028549449422,-0.005844124273841491,0.0023451159611589207
0.2001724,0.029986787834720058,0.006287894118735183,-0.07339511504160032,-0.09661598002813766,0.026893907235017934,0.013843862979219626,-0.03605632919088603,0.001303313116282751
0.2006379,0.03404067768756089,0.0025409396257794013,-0.05630007050921276,-0.06406498818367357,0.018204351442105846,0.017519176900957705,-0.06299342493444973,-0.005420261160823786
0.2011034,0.03839998352411929,-0.0039067994158037,-0.04783906216397795,-0.0016308291890603237,0.006310589413436014,0.02429181140460672,-0.047260260995585356,-0.013270075298017367
0.201569,0.039841597521488525,-0.01635000061962787,-0.04074638641328442,0.07734233788963422,-0.004470602478511472,0.027765440368145693,-0.018501399304496517,-0.0272945009294418
0.2020345,0.036761625696141095,-0.028624095603772208,-0.031240898029699187,0.1487065047807996,-0.007748099024442322,0.021909489802295023,0.002416071877931933,-0.040171650962590455
0.2025,0.03621306333041569,-0.03451591501312938,-0.019807514050941343,0.20284327315715203,-0.01005060500437646,0.012265284887921727,0.015724825120831194,-0.045320956021748786
0.2029655,0.03763243106460472,-0.03260877029663244,-0.005345752844399381,0.24661252632938632,-0.009929833787079055,-0.001730588906274276,0.025926091050044224,-0.04520486757415811
0.203431,0.04038389075926925,-0.023708993374952175,0.003924540901799517,0.26846057080236696,-0.006910396142882288,-0.015733048483221605,0.02907334475891723,-0.041883360187388086
0.2038966,0.04141389502726359,-0.017140583215395997,0.0009438254191677306,0.24760617589174136,-0.00725015816199011,-0.034688603272165816,0.02585900506759834,-0.03752429099967443
0.2043621,0.03916091104193179,-0.010613400205070577,-0.01247840316055863,0.16389602019377525,-0.016337695307423815,-0.06699308317185397,0.021242362443175712,-0.02884819870129137
0.2048276,0.038220055215172404,-0.009869997430811212,-0.022333432951920144,0.05756757789033739,-0.020120676605742994,-0.0766835597880476,0.019865307142063995,-0.02159579814990323
0.2052931,0.04076547502542676,-0.005563972893784642,-0.025201294395182983,-0.020287148183950637,-0.016894349719679052,-0.07556020838958963,0.018530078269134227,-0.016849521271930908
0.2057586,0.041744976169349836,-0.001226408381295322,-0.021983112126148903,-0.04491339081636699,-0.011997010723662629,-0.06786449714673458,0.014472359317508718,-0.015030566807215881
0.2062241,0.0433189642067218,0.0028040151052999797,-0.01709460637066694,-0.05332352718309698,-0.0103774276254549,-0.06015797180773536,0.004815521918324842,-0.01463370715865564
0.2066897,0.043864477915622826,0.004297448859423597,-0.01665462415165135,-0.05043669435429837,-0.003907888694173856,-0.05097534244372244,-0.021920181479627383,-0.009860189235871864
0.2071552,0.039309224591278544,0.00263525995776867,-0.021413945532106047,-0.03651593271293292,0.006147642754502372,-0.04517190726396577,-0.044263630814795396,-0.005207719980869976
0.2076207,0.03264760470202669,0.004513709201032915,-0.0310646733173896,-0.021753182793713965,0.02018657578798093,-0.044246128638754316,-0.041144467065259926,-0.0015860399043376165
0.2080862,0.026286284053472227,0.0022492311302742363,-0.04907417369893349,-0.026832250608581167,0.027195344869667862,-0.04723821963883942,-0.012655274849437795,-0.006307225311094691
0.2085517,0.022610722398219454,-0.0071242357359907965,-0.06256339907511327,-0.054222585666838935,0.023857677174588678,-0.047453420256855575,0.01271546412570549,-0.008800782311700174
0.2090172,0.02015853143306069,-0.025722018059472825,-0.06592940854656866,-0.1001713352255064,0.01756267333881418,-0.05197885142520448,0.029272754288707126,-0.008338051425204485
0.2094828,0.015938096776295593,-0.05136166995903175,-0.0579621243420869,-0.1205796130096149,0.015459482697373928,-0.06301467699849259,0.02616332488463234,-0.0057512448684173805
0.2099483,0.009018726624466209,-0.06448647148829667,-0.051807316352127146,-0.1098960153556562,0.01726913878404238,-0.07210410607978808,0.020874713312233104,-0.004522219392021192
0.2104138,0.002385344542237783,-0.05956079696115072,-0.050169726320413235,-0.11975000607394153,0.016568095950705655,-0.07488038683791486,0.017631524695667398,-0.00425745506161793
0.2108793,-0.0011449055231307274,-0.036408852957352834,-0.04353398934531348,-0.20116666688819815,0.014184026076336429,-0.07079976654513587,0.010692859922775499,-0.006161039321057163
0.2113448,-0.006536956782757461,-0.019716728156854945,-0.039821445837743316,-0.31057265328771166,-5.8078672785755094e-05,-0.06952025031922704,0.001939697942313277,-0.003772985889797468
0.2118103,-0.007096307721965856,0.00023338986196548382,-0.03280719660616774,-0.36485891157633954,-0.019301324470008773,-0.06702332457395876,-0.007551826959783568,-0.0004951418260054108
0.2122759,-0.0015396763245507249,0.016618333195851567,-0.0218340935533344,-0.3089955287879399,-0.03312869160390734,-0.05482369635203196,-0.02211307410008452,-9.13679284580675e-05
0.2127414,0.007722030539784431,0.019509251502471785,-0.01420105321471128,-0.22443082229321124,-0.03903366611378936,-0.04033992914458237,-0.039007092199820584,-0.0016977387216794522
0.2132069,0.014649794962834022,0.01837967824829669,-0.008030719604780119,-0.14688096194931324,-0.038452370520323714,-0.03429816313679875,-0.050925848668902506,0.0008177680742468328
0.2136724,0.018552712028620442,0.009541253808057945,-0.004389400983748643,-0.0733566378894005,-0.027511758533182093,-0.029080462930390034,-0.05646947477975575,0.002802708763822639
0.2141379,0.023294424215553056,0.00504782167686864,-0.00588387207224591,-0.012724558695127177,-0.017120007588597323,-0.022408787060555182,-0.04781865896860584,-0.0011168304664385031
0.2146034,0.033322592401623025,0.010761809266541118,-0.008173165407325319,0.027335048442565495,-0.017537118632923957,-0.016739818732765678,-0.03831927386854079,-0.011415560724133899
0.215069,0.04700576416661486,0.0217756581614971,-0.011263377713166246,0.0484190132764386,-0.023851891280356734,-0.006564675268753531,-0.029356671064627398,-0.015733969284274875
0.2155345,0.06125066146160253,0.032027436649592844,-0.014759228191994494,0.0657000448267985,-0.030939370479986236,0.009250689933989704,-0.01511046833880391,-0.00891309061200683
0.216,0.06931966368066904,0.03552250621954004,-0.0176242,0.07022860895054105,-0.0381018,0.019166084076106815,0.0019215644307552025,0.004683260945942098
0.2164655,0.07349475087363312,0.03201908580925233,-0.017423629046261616,0.058950453277061915,-0.037600372615654035,0.018916344566541815,0.020874020753475248,0.017803184735356057
0.216931,0.07840514468790416,0.021152272497449727,-0.016996257020806392,0.045568696397463436,-0.026327915903820973,0.013640345695757073,0.037081038246924304,0.03242095100700417
0.2173966,0.07892637695981589,-0.000280233917699564,-0.022080751136678706,0.05120285265580467,-0.007030712162668679,0.005891103558510644,0.04120033442729521,0.048156300764894515
0.2178621,0.07608071934876724,-0.01735408539746203,-0.031408137324073444,0.0733356509996536,0.004351824094996519,-0.001064854193078898,0.024600712122776175,0.0551123527030134
0.2183276,0.07257444256789738,-0.024703997881267762,-0.0361182197488295,0.08627219066219133,0.006419858599328699,-0.007153435564540882,-0.0011491536260780089,0.049873183968568685
0.2187931,0.07166137428102837,-0.025721815063870987,-0.03764096738780275,0.07832052885032222,0.005182842468064506,-0.016498047268266102,-0.024764015710766307,0.03411900209302402
0.2192586,0.07152590238575939,-0.02626386411323688,-0.042654961461509745,0.06856364596173616,0.00491181794338156,-0.02381562870056067,-0.02151180214871593,0.02138093016707053
0.2197241,0.0647755138896684,-0.029173800761890602,-0.050852885790123294,0.06686587263005227,0.00700547117085752,-0.024295997017024045,0.004641953363921257,0.008548070408966917
0.2201897,0.059175026670117085,-0.03133942231316207,-0.05236170501141373,0.06992925036226214,0.00948709855095149,-0.017891221074310182,0.018236579650214073,0.005989390911893418
0.2206552,0.05072100860392884,-0.03851781598133935,-0.04260723318919704,0.07061524299844495,0.014208843987559564,-0.008963455023325817,0.025114451818578232,0.006198089417841915
0.2211207,0.04095498310416805,-0.044178640130465525,-0.029811369703900737,0.06728464273699765,0.020748095023640646,7.132175383885934e-05,0.03059705601891252,0.0037523219905437406
0.2215862,0.03048925363103288,-0.0448569993398122,-0.027901596699061018,0.06889279075737086,0.020803119566879608,0.01202556482736756,0.02614595077838527,-0.0005860986796244076
0.2220517,0.024424981822538258,-0.04595959421408395,-0.033414571070419764,0.08432911899717535,0.011568928550665231,0.02387837761416582,0.01167451622100313,-0.002791288428167906
0.2225172,0.020041252602602005,-0.048130683350974306,-0.03441007895260442,0.10916906453347724,-0.006189442869851408,0.03870923533734604,-0.010895542611497989,-0.006284945616456764
0.2229828,0.016182732895869936,-0.052230729111983745,-0.03276525948676252,0.10194888350246988,-0.011601159536357673,0.03578152911198375,-0.011008867104130063,-0.0015994873359512264
0.2234483,0.013742396675843286,-0.030497054270252053,-0.028016634309903962,0.057708553036545575,-0.008315332005786363,0.026655846569009604,0.0015527052086434863,-0.0019106068619807925
0.2239138,0.013427126575396957,0.007280219546889518,-0.021724467362819758,0.02695718612007826,-0.005301185954026208,0.013823680504780804,0.01769870640492847,-0.00909556624108464
0.2243793,0.01597665563337523,0.03718275493299816,-0.014623187478510309,0.035994733099874304,-0.012357474109988982,0.007184663951323193,0.027797693694687403,-0.013989540659926136
0.2248448,0.022425803820886554,0.046340627206732064,-0.009083039729107392,0.04386384040633891,-0.029425434379602558,0.001732709678315029,0.030634570118515517,-0.023975714007125226
0.2253103,0.030226882009698332,0.042620312582758564,-0.0013457948935018816,0.023722824765896044,-0.05300219238954087,-0.006430142323929016,0.018981327669478135,-0.03400198374472307
0.2257759,0.03562406537266265,0.03339042703521715,0.004374921352016654,-0.01644176856106683,-0.07811944658604536,-0.007287046586045362,0.0017670436401481388,-0.04040497022426437
0.2262414,0.03766185319931651,0.02521920461460867,0.00946315319931651,-0.06356322452291857,-0.10170229206043406,-0.004496398982347052,-0.0078889,-0.046961643475726206
0.2267069,0.033327735901278334,0.01736369770370213,0.005129035901278337,-0.09281835490110094,-0.10982868130246798,-0.000839527858021168,-0.0078889,-0.051566643104891764
0.2271724,0.02335021851447281,0.006588339131621905,-0.0012526220114902253,-0.10935617531403626,-0.10532016425118676,-0.0017427106515775367,-0.013204449508465407,-0.05829830139434113
0.2276379,0.012387291721296049,-0.003517117218098069,-0.00446667797773629,-0.09971110727272942,-0.07966514369099606,-0.009477222525250977,-0.025629090399915715,-0.0627094534869088
0.2281034,0.004540996909049392,-0.013688595033052189,-0.004399983884203163,-0.07223068981853384,-0.0344218470736686,-0.021123111314751725,-0.029444156512423113,-0.05939091473494074
0.228569,0.000891705420560681,-0.022384363563983302,-0.004355320055519946,-0.04793564780214137,-0.0072159048955573665,-0.022597552706086474,-0.01988341034128125,-0.06256005113946426
0.2290345,0.007415390177841093,-0.03195331348949838,-0.008900694281054047,-0.0352482127530253,-0.008049989448880978,-0.023841314661844942,-0.011756210551119022,-0.07109652345444413
0.2295,0.016996282473285645,-0.03786823593879511,-0.02340426354966957,-0.01643950823660209,-0.013790583015260491,-0.025506812083915715,-0.011602281106823438,-0.0791190573128231
0.2299655,0.024394527210348755,-0.0455163562899492,-0.03448742417133362,0.01759659426478199,-0.013245471855025401,-0.02726385596046147,-0.009632396631497137,-0.09150705628994919
0.230431,0.023074013647513443,-0.05251152038918159,-0.03832554455882224,0.0462882672920435,-0.010060855394386845,-0.02634466743241625,-0.007423730677354219,-0.09812564451203132
0.2308966,0.018563355429213335,-0.060002770631007986,-0.03554799235888593,0.06103942131468591,-0.011636804584668443,-0.025774398471777184,-0.01904111367357184,-0.10281501222578251
0.2313621,0.012897583521698584,-0.06631725536613395,-0.031291237927624886,0.06486802030899043,-0.01618017279957223,-0.02789130287555215,-0.034401362077445874,-0.10198414080317704
0.2318276,0.008078550665520167,-0.07097844933447983,-0.03165219372779918,0.05601908818032072,-0.01905960473375172,-0.02582378864638629,-0.030123264955779695,-0.095277926508848
0.2322931,-0.004953257066089598,-0.08596199391023525,-0.041755721064873935,0.042807195135862786,-0.024030887303614364,-0.017624590310493023,-0.02677464427431281,-0.08805903374187585
0.2327586,-0.027308281502978145,-0.11201738483995394,-0.06010101472613035,0.02659131543277536,-0.02821326430770342,-0.004535548494741155,-0.023847340603748803,-0.08372396354732961
0.2332241,-0.04469050406487659,-0.13477914871769,-0.062202984490621956,0.019102414759249755,-0.025405627865392418,-0.0006087520324382938,-0.01808914529610194,-0.0823735184490622
0.2336897,-0.05170172562909795,-0.14610569634896406,-0.046653295453088967,0.018303814088622833,-0.015078375852036861,-0.004848286152253745,-0.010556129899257062,-0.0809093246297163
0.2341552,-0.0529052170952698,-0.14569172849211637,-0.020729223528441316,0.02154773982007693,-0.01155944478375196,-0.015620561879021767,-0.011870155147362088,-0.0793927
0.2346207,-0.04517406632292965,-0.13310609016456443,0.0006311556147356838,0.027201619788031473,-0.028014001786809125,-0.023644878759352568,-0.018951883451393606,-0.0793498941010074
0.2350862,-0.03616406527165003,-0.12083162078322855,0.007943574009560472,0.031902510196305134,-0.04629516446760579,-0.02651764511996425,-0.02495849895503127,-0.07895811433573971
0.2355517,-0.0200915035266286,-0.09277614374639115,0.0021574997571478212,0.040201481168081636,-0.05896155164188821,-0.02506593669313395,-0.02952007618504589,-0.07565725237009178
0.2360172,-0.009364421899457576,-0.06613880386228227,-0.009076136441122446,0.04454680710595853,-0.04643498849818067,-0.020644634388587543,-0.02785110303984554,-0.07343973541485499
0.2364828,-0.0006554987703800526,-0.04454350491847979,-0.01638587749322015,0.04409335143350148,-0.028690460363572527,-0.017318438814570587,-0.025288326195639692,-0.07616835266312143
0.2369483,0.006113312205171319,-0.012877841520942183,-0.013324992395289092,0.03480299809882227,-0.02065422884800626,-0.012757472752950428,-0.020362176555305884,-0.07671504514069441
0.2374138,0.014158468920136023,0.008626449546303937,-0.015124630630442702,0.021214281680517273,-0.022264831079863975,-0.012101687386575985,-0.015528718691150599,-0.07422306253139582
0.2378793,0.02276673162306047,0.02507425626814349,-0.020969858356166368,0.004653345998356592,-0.0217301796554696,-0.012405287766697092,-0.01096529755502271,-0.06939510906600033
0.2383448,0.03263408680459519,0.047943929046071365,-0.028295009808953282,-0.020395281669314747,-0.013017338632612039,-0.01059415956295589,-0.008579960627764586,-0.05968301213059611
0.2388103,0.03531889227419663,0.0789033726381708,-0.029752091249896886,-0.03224617392391199,-0.0011491949656119741,-0.007302990781302351,-0.014485424496083064,-0.051827878021110954
0.2392759,0.03441426643304144,0.09932112432549312,-0.028589011881187832,-0.02462183335578951,0.0022106239031550283,-0.004976909033317533,-0.022755860388373572,-0.045237351563203944
0.2397414,0.03200264794364587,0.11642031805617956,-0.029619410535189652,-0.005871087661875224,0.006093990676074976,-0.007042782450658459,-0.03605416259154379,-0.035189991774583484
0.2402069,0.031743955621473606,0.1198156741619648,-0.04004152101051083,-0.003092175477099209,0.01801365995183856,-0.015216936535771483,-0.04592373971125121,-0.0332054741619648
0.2406724,0.03513152085082448,0.12486386434106506,-0.059584735869803875,-0.011547247100731104,0.03651349627856246,-0.022772303754744847,-0.054364767918248284,-0.038154019062232876
0.2411379,0.03949807544722996,0.1339713947427622,-0.07413661649867753,-0.021087453673061,0.04649385930253769,-0.025486878598069918,-0.05472652490675529,-0.04682261579070702
0.2416034,0.043507937497238046,0.14323160002209562,-0.0750331990462038,-0.022296560462595944,0.04204056261323996,-0.0286422009979874,-0.04543849793773839,-0.06012722593722449
0.242069,0.043642262047879896,0.14055427077414212,-0.06529056855922907,-0.016454000416455002,0.03033189252310276,-0.03359112250628117,-0.042611011773333374,-0.07105800138200305
0.2425345,0.03863445290109286,0.1230441728537621,-0.04943061047376746,-0.01022812714623791,0.011992996584062943,-0.0304495786559478,-0.04576459419781429,-0.07803725393078126
0.243,0.031474378927527843,0.0918685933030864,-0.036521468910604635,-0.007872676671956435,-0.0023889932552798557,-0.02288049329018017,-0.03627930447624251,-0.07717869990438693
0.2434655,0.024584717596964185,0.05300441329174437,-0.029149698131259703,-0.0008185792332944418,-0.015226476821250695,-0.028180056503937383,-0.01744474375549646,-0.08272656982011753
0.243931,0.019011835254889153,0.029170643833552386,-0.02785911714108109,0.0025430695208059515,-0.03158308289140967,-0.03398872208258643,-0.004665539913510163,-0.08602880683486672
0.2443966,0.0106656189801703,0.010006041763720724,-0.0311779332517799,0.0031424629448399775,-0.04738911762239943,-0.035127137055160025,0.0026760993394797238,-0.09026084019801987
0.2448621,0.0023598030371283184,-0.009158836162232094,-0.03532540753520501,0.0005640283098633303,-0.05310227545773917,-0.02720528492958999,0.006798573573937921,-0.08817386001732085
0.2453276,-0.002112648739339655,-0.022353360138374512,-0.0358718779534053,-0.0063405570638243635,-0.04638863945608675,-0.018386117815030793,-0.0003753284625906341,-0.07686292457696302
0.2457931,-0.010624273689298627,-0.029462363640757907,-0.03643629665048642,-0.014581194047377006,-0.03509026575846011,-0.01248693970875567,-0.01516046490915593,-0.06778187580700083
0.2462586,-0.0204406760420538,-0.029120364308426558,-0.032499170484433536,-0.025938935073186727,-0.01290151145330061,-0.008194277431458865,-0.02463017465264873,-0.05421901701092087
0.2467241,-0.020992755237651383,-0.025011645252865682,-0.02865431607553791,-0.034608007013259376,-0.001348529813322688,-0.010327203117004167,-0.024397035411336112,-0.04747919922074896
0.2471897,-0.006704167880060974,-0.017705029630871484,-0.026543550401758407,-0.04337600380087167,0.005795667130107082,-0.01422409057816519,-0.02699496038544346,-0.0465049773554587
0.2476552,0.011118076849387875,-0.009580695093711133,-0.022261895982055475,-0.049781574184354846,0.018492036294481137,-0.011743732741103772,-0.03459410177668869,-0.049333100666258255
0.2481207,0.023146776451819628,-0.007982028676418737,-0.0162303790784317,-0.051679509702422355,0.031260257477823246,-0.004225517197074363,-0.031252930623990656,-0.05030387238780562
0.2485862,0.027106305316950276,-0.023426216739086188,-0.017632538352113813,-0.055427379588453035,0.031166135919388948,-0.010639299586754697,-0.016024688971981768,-0.054502884905403316
0.2490517,0.03322359369926253,-0.04297453856275898,-0.02684529369926253,-0.052909271917281224,0.015113091471785897,-0.02493204133648598,-0.004380521318009906,-0.05926644486349645
0.2495172,0.03938326968127534,-0.056320426737320864,-0.033004969681275344,-0.04777620859893722,0.007156843328352687,-0.03340159581175359,-0.0009156653515614342,-0.06645265705604553
0.2499828,0.05039232498972257,-0.08456845703599271,-0.033647512501712905,-0.03579700001827099,0.014622937486867727,-0.03764585000228387,0.010158616020851193,-0.07761398748915159
0.2504483,0.05505535284610096,-0.10891967039195437,-0.03287034119231651,-0.027507172718042736,0.020581250858906785,-0.036609621589755344,0.021038937183171364,-0.08253607244866212
0.2509138,0.05094327861006151,-0.14935621664585458,-0.039263275821048695,-0.015312598917485121,0.010678632168615513,-0.03348996479379853,0.02421125031297369,-0.08935648984727036
0.2513793,0.04169235029966022,-0.1675819249251459,-0.04754764380593389,-0.008961187062725662,-0.0017479609389388906,-0.031004629720196998,0.01620303066959978,-0.09501757197847822
0.2518448,0.026340543714049734,-0.1683825880297219,-0.054745206858820956,-0.005598576059443807,-0.00876940087368191,-0.02973164102229143,0.006739722193192372,-0.10470100840483787
0.2523103,0.010183012139613982,-0.14388453669941062,-0.0596703235745917,-0.00865352992496738,-0.010695709990219106,-0.03074437175466999,-0.001342641594823852,-0.11137722992496737
0.2527759,-0.0005935856903986989,-0.10513798141976605,-0.06374035989402957,-0.008323356349682533,-0.01906715339940796,-0.02942134558442827,-0.008665067311370268,-0.11212158132632136
0.2532414,-0.011205807045581417,-0.07015672466071127,-0.0638769664656132,-0.00717295982368402,-0.01682081761512984,-0.0280353472218974,-0.018091610502261504,-0.109474700271431
0.2537069,-0.018105146943795794,-0.03406945983993941,-0.05780795916861262,-0.007677448655353347,-0.0005390847169858954,-0.028885409841932483,-0.019143697982033483,-0.10275359627047594
0.2541724,-0.01971822597122032,-0.011390202624723995,-0.05198076614802414,-0.014704583223543108,0.016380906566747656,-0.033288278209431255,-0.01543612859923609,-0.09353957874382947
0.2546379,-0.01819601698993771,0.0032410162036027395,-0.048415283429440945,-0.029488332931428794,0.021711090555779435,-0.033631662162982766,-0.019403335724968166,-0.08086769804521793
0.2551034,-0.014051997633515598,0.01143196530065436,-0.04710156085401511,-0.0392581455822346,0.018584439809188377,-0.03076995450378471,-0.026453701040077424,-0.0722913631344802
0.255569,-0.008076811005341902,0.018064723444391004,-0.045387716925865844,-0.04270764449732905,0.0016527891166978714,-0.016957968063759824,-0.02434612440213676,-0.06276473205827995
0.2560345,-0.0024823295391820524,0.011324652910123406,-0.04761409876695701,-0.039018792713705695,-0.021866448928953255,0.011481490153605983,-0.011984039897596012,-0.052782402654113436
0.2565,0.009937466178148594,0.0005573551416160081,-0.0010954081504581394,-0.04086082655580875,-0.02608764042067441,0.04421037696914581,-0.0065313964467059,-0.05157629238564661
0.2569655,0.026339708188796353,-0.004729473862667173,0.0,-0.04497725409439818,-0.013699670263547107,0.09174100502779638,-0.010625553184531915,-0.04576428422190729
0.257431,0.038024423777840585,-0.0028072275713881957,0.0,-0.05094690269845756,0.005982013492287802,0.15233846664993378,-0.014684018380925463,-0.03350310833751656
0.2578966,0.04219255055964845,-0.0014565061948232563,0.0,-0.053650964770051775,0.02135219746534611,0.22326199981595582,-0.01279968649727517,-0.015174644155906705
0.2583621,0.04270639010310127,-0.014263506492420218,0.0,-0.05165167154539518,0.025916159381392356,0.2911364559743656,-0.012262572576407912,0.007112387833448934
0.2588276,0.04347666588690953,-0.047518815966428075,0.0,-0.04786788144973343,0.021385994673285922,0.3428611155474872,-0.015895615345685125,0.03150048547685992
0.2592931,0.0456394218426465,-0.07824713643735019,0.0,-0.04389845051729617,0.013394517080007901,0.37184014099201895,-0.021303031056058915,0.05619033043740624
0.2597586,0.045055543044683476,-0.08430067634012546,0.0,-0.03883157522298575,0.0086712299108057,0.3763767646585931,-0.027150207961690417,0.07642788065358697
0.2602241,0.04114049718799683,-0.06822057630846377,0.0,-0.03341274317229416,0.008922857930735393,0.3606139747083488,-0.03524561500698398,0.09411776405182722
0.2606897,0.03367133668648324,-0.04754180177369738,0.0,-0.034716757536556724,0.01031715698537731,0.33989221127126024,-0.03400823743907212,0.10715168927991915
0.2611552,0.017315916683122795,-0.014762831592184259,0.0,-0.04103298154281587,0.014975172996504242,0.30527464650124575,-0.017249882051053107,0.13361003016620931
0.2616207,0.012405933898972555,-0.006071072192881671,0.0,-0.04824462408812497,0.016331551540836868,0.2915264659287925,-0.006442728210084967,0.1420693501268324
0.2620862,0.010140219832570335,0.001529315580306867,0.0,-0.059762451494722604,0.005808566969447845,0.2601545225693701,5.672703279681985e-05,0.15144059863160012
0.2625517,0.01474007315329363,0.00560572937394707,0.0,-0.06939890765691048,-0.01759011274898608,0.20834717610935805,0.005231604453739127,0.15895087379163012
0.2630172,0.021412008533634803,0.014211249086761578,0.0,-0.0760329046595493,-0.03478461490874597,0.136797788777927,0.02167078113997284,0.16422928438298592
0.2634828,0.022544899093310155,0.028179222840203008,0.0,-0.08060054153618117,-0.02362633249851708,0.07157389303772488,0.027447197781591107,0.1607304398723745
0.2639483,0.01979176794705802,0.03787287818723591,0.0,-0.08255069539744765,-0.004898570314539511,0.03611176369622599,0.018097648501775428,0.15437793297924474
0.2644138,0.02113849147740561,0.04375784820104549,0.0,-0.08276456294811406,0.02792135086109646,-0.010155203986827314,-0.005471776093936402,0.1380714311288692
0.2648793,0.03154572264196749,0.0399935555007323,0.0,-0.08215672221439034,0.04731968967747212,-0.045952123783724895,-0.008442666678414508,0.11987772171632612
0.2653448,0.05222914518980341,0.03260701639612611,0.0,-0.08186618360387389,0.04865137667169807,-0.08366644341011714,0.007818798376756638,0.09247842011194154
0.2658103,0.06455392192539443,0.03179439109412119,0.0,-0.08267880890587881,0.03524309953343381,-0.10073149406258662,0.0029430465647271287,0.07256922124727175
0.2662759,0.07457550486629938,0.04277232292550914,0.0,-0.08253838875933889,0.0008881693675683935,-0.1193198191230852,-0.0379718601078041,0.038427768303692954
0.2667414,0.07207065417667476,0.05417911540636436,0.0,-0.07927467625441535,-0.033012437413461514,-0.13397576289753366,-0.07673027243818673,0.0034198775971350033
0.2672069,0.0638996766709727,0.059921210327735494,0.0,-0.07521323287432005,-0.06093448506733295,-0.14779240802526972,-0.09750465103947961,-0.029912805316052504
0.2676724,0.059132135949662996,0.0630568334472967,0.0,-0.0725003387939194,-0.07632667407762463,-0.1562505176418526,-0.10936083017150651,-0.054261594563733626
0.2681379,0.057592880919484224,0.06805075570907362,0.0,-0.07003769301400707,-0.07213078551690533,-0.16549569233763145,-0.09482839266816505,-0.08485903629802428
0.2686034,0.05706278544994979,0.07694482431777185,0.0,-0.06899026426721955,-0.05378415755454668,-0.17016587849775178,-0.04357859830918083,-0.10667796326558676
0.269069,0.053559029071534266,0.09226149117575416,0.0,-0.06560431701818839,-0.02553544545941939,-0.17262090189090984,0.025219540043605305,-0.13606316340361826
0.2695345,0.038267317334219786,0.09714967442325526,-0.00439845355193435,-0.05506480487624441,-0.007101597462867525,-0.1713354621039675,0.052397890648485226,-0.15287862911384587
0.27,0.01665902490243368,0.09598952142380121,-0.0465652871334753,-0.044137385093113275,0.0009562030605430301,-0.16983629489909494,0.0626063322499639,-0.16124810592317185
0.2704655,-0.010131114947871124,0.10287223417238145,-0.039424841210356706,-0.036008365417490744,0.001490647672268013,-0.1684911115275031,0.07569031708619073,-0.16497624063429278
0.270931,-0.0360515123101089,0.11310670846571819,-0.039321668723544013,-0.029150189512746952,-0.004754724633593652,-0.17090483012891294,0.0805681858536594,-0.1702547073181751
0.2713966,-0.055499346403793906,0.10676270582158548,-0.04519835049771354,-0.02370428369956063,-0.01950334204700969,-0.1762263865477868,0.07082179417841451,-0.17586485748361616
0.2718621,-0.08521226507770556,0.08410488716212966,-0.056751256479245664,-0.015548997577760315,-0.05329932664365456,-0.18303195211921422,0.05398959285488392,-0.18287930363335952
0.2723276,-0.10995125351376896,0.06726941482348346,-0.06694000021335929,-0.012123088770841743,-0.09527653448866515,-0.1873183475530275,0.041652409593108154,-0.18799177802064884
0.2727931,-0.13555940201759203,0.08631687791702988,-0.07659059660871358,-0.006764092208631139,-0.139376708366352,-0.19449465201926266,0.034131049495601994,-0.1957716995661871
0.2732586,-0.14945127415447929,0.11410047439864157,-0.07783094233522136,-0.002298847593203091,-0.1558732695808649,-0.1999520993198155,0.03065808146138018,-0.20085708009682834
0.2737241,-0.1616223583461226,0.1406125760366927,-0.06707212798451102,0.004225902509764288,-0.1522703194010051,-0.20902904825117727,0.0232755839639767,-0.2054121872626266
0.2741897,-0.17408034612654438,0.14085571607837089,-0.04592623597879073,0.007620944199603722,-0.13285820689408756,-0.21950491274589046,0.010477294258843747,-0.2081142873647562
0.2746552,-0.18355256163105976,0.11312268547526241,-0.028701119482325198,0.007648794086320687,-0.10130984602390683,-0.2269749829333068,0.0024543516081501717,-0.2061339021493578
0.2751207,-0.19564494607297328,0.06545841470495795,-0.009272042283674174,0.00717979452064144,-0.056862688265685725,-0.2345985164380757,-0.00216943150688048,-0.1986500301376096
0.2755862,-0.20093184819947454,0.01729645030075052,0.007812036705163219,0.004811060055013039,-0.03711541488906332,-0.24159031164923958,-0.001249116440208896,-0.18403519660524803
0.2760517,-0.20078723564463904,-0.015361090198046086,0.020936457071634423,0.0014979913041530965,-0.0369006637345411,-0.2505317520701277,0.0009954101779181925,-0.172210454072489
0.2765172,-0.19793125410103027,-0.05754361354920615,0.044419610897519377,-0.005083970046672854,-0.038169415639585265,-0.27035023739085196,0.0019139156395852669,-0.1568137765660256
0.2769828,-0.18811884155702982,-0.08983007270995624,0.06292595265760505,-0.009196692232570415,-0.03941249403608704,-0.28560356259746,0.003310246521050774,-0.1444685336110524
0.2774483,-0.1573713482863428,-0.14828779388323501,0.09039117403389293,-0.01766879088011943,-0.04530883412185402,-0.30227183733832436,0.007687886912870211,-0.11483538047203579
0.2779138,-0.1299497239208034,-0.18067088565989028,0.1038776966015489,-0.024068525267599204,-0.05106762339924334,-0.30422669671902547,0.013502441189457886,-0.09074964057479827
0.2783793,-0.10984129735019167,-0.19506466523216726,0.10894308344377812,-0.028773931788072693,-0.052142743377594496,-0.2998121129137931,0.019507219205397323,-0.07468798013183416
0.2788448,-0.07951870293565566,-0.20977720624519955,0.09566676460383765,-0.033514682078937735,-0.04786448459462077,-0.2779832608536456,0.014193365008448804,-0.05374138209961324
0.2793103,-0.05733056455801828,-0.21675462132286794,0.07668827873127582,-0.034491478620463215,-0.04228263567118225,-0.25928387158419053,0.001913114471752443,-0.040903021495399594
0.2797759,-0.03503108477586356,-0.21542692915053324,0.04851397578579881,-0.03426262291710825,-0.03330414725331152,-0.2408387910298378,-0.010065122177060218,-0.029116923636607027
0.2802414,-0.004239273423960188,-0.20806457466129352,0.009627283463074815,-0.03472694831833038,-0.020194066000351958,-0.20559756224931836,-0.02406122459087365,-0.009779662468617074
0.2807069,0.03433110141596661,-0.18492670971420794,-0.0315501281615324,-0.03761735928990784,-0.0002696490002078054,-0.142911822970751,-0.02934297006323719,0.019323847684229654
0.2811724,0.053442371188008625,-0.1708678626046848,-0.04820716821847691,-0.04020107086208416,0.010607036092270455,-0.10681541026791658,-0.024490654980375507,0.035412335747587086
0.2816379,0.06541021796612827,-0.15540385933668566,-0.06192317335511308,-0.04262154235678466,0.030105238631680548,-0.09269603327228536,-0.01185049506607188,0.046976730553134935
0.2821034,0.07738386461312768,-0.12216104012837199,-0.07452319056763258,-0.04313245111780638,0.0605050249746721,-0.09015682069207598,0.008279066277179272,0.06107104471225512
0.282569,0.08685503849221078,-0.072216660429278,-0.07120631855619518,-0.042457801084370146,0.06803923807485784,-0.0883633636765295,0.01041252289367577,0.0816863113829571
0.2830345,0.09386269701536454,0.0035257265796812143,-0.06045232059692709,-0.04170031373128472,0.04181386357678257,-0.07960526477541673,-0.0033243313435763625,0.10661864433038763
0.2835,0.09787788734945803,0.0626825452179816,-0.05964928253010839,-0.041164955020072266,0.020935033314834924,-0.07318096024086716,-0.006001124899638684,0.1182626564304241
0.2839655,0.104561064334583,0.1285814765188142,-0.05501578675997467,-0.04054632448305527,0.022495184682080456,-0.06707045002864821,0.015086128561316638,0.11958638982625126
0.284431,0.10951907590201923,0.15778810670849006,-0.03909639068002529,-0.0404517,0.04114833269396505,-0.0623611681663263,0.03739964651291867,0.11587961990221432
0.2848966,0.11322123783302114,0.16617067799736898,0.010860794901900601,-0.041766512999561495,0.04244490974967113,-0.053068409003069514,0.03480777075098663,0.11400808316771645
0.2853621,0.11181110588975468,0.15511440774909505,0.06200999788875874,-0.04507970069272746,0.005725312349428899,-0.04752530006297523,-0.010168898833387098,0.12057639834611475
0.2858276,0.10868136097158615,0.14166707979208618,0.07994396789897482,-0.047523071478426826,-0.031099645382693535,-0.04720048094684146,-0.04549110242583988,0.12721442199763985
0.2862931,0.10483795399026286,0.11962410449689871,0.08673191352903162,-0.048936384531953085,-0.07492634610833805,-0.046047258092757955,-0.03614244886342325,0.12257405161850847
0.2867586,0.1059046989356108,0.11287283193167597,0.09234958365906532,-0.0475259031931676,-0.09041275135229264,-0.04554450745072439,0.007051852678292931,0.12222322554534078
0.2872241,0.10515932675336541,0.10929045008131284,0.10149068479566381,-0.050114950636322105,-0.09131005676965419,-0.04133554013004811,0.030797172739240965,0.09986369761733725
0.2876897,0.10364549356123492,0.10922573858659555,0.1083567450713555,-0.05203611287753014,-0.08837708420320915,-0.039332807584266834,0.020209462604901092,0.08574808995873147
0.2881552,0.09963481833040191,0.09746858390720799,0.08748037473884585,-0.0522011,-0.07786395519016125,-0.0330655435852337,-0.005491971488231147,0.06720472422918226
0.2886207,0.09542120784468233,0.062829262958154,0.028887188555963714,-0.04962130426630162,-0.05587604878340736,-0.011954678378944048,-0.02383677061413644,0.058068652173088174
0.2890862,0.09402646426149343,0.03442813200632691,-0.007121428653605786,-0.048353389890011214,-0.03356083129923525,0.008205046896264908,-0.026626182241975323,0.06821189164487243
0.2895517,0.09565143431090962,-0.003274428178806453,-0.03645817386435844,-0.0471779627683508,0.004103326485628032,0.03760422740487325,-0.026360541845567197,0.09253625755549284
0.2900172,0.09763825956084747,-0.022428099719425595,-0.04265156869902091,-0.0453524880900738,0.020698769521936056,0.05319421356697295,-0.014567162601958183,0.09901535401734193
0.2904828,0.09905930669508714,-0.04479912429634937,-0.048365491554357015,-0.04426404914117191,0.020168504711016732,0.06437103125785074,-0.0012047895859313303,0.08733980745360778
0.2909483,0.09751475145861734,-0.08602671600732115,-0.05041654708811812,-0.043742806443743745,0.019567776298269546,0.07249232837686687,-0.0036324549851264078,0.06825183451597341
0.2914138,0.09479650946324453,-0.11686933363195744,-0.04654704008881934,-0.04029647711432373,0.029413321325552643,0.06741318017763867,-0.0018341586850763618,0.05737780328346963
0.2918793,0.09131765581117456,-0.12395752346383107,-0.03558219638085519,-0.03133795789466298,0.06030360307336294,0.04455466600743371,0.02336913772127751,0.04737078300371685
0.2923448,0.08974275271126632,-0.10623781885586478,-0.025966334079629564,-0.020977605037499552,0.09099314784845584,0.015888247897994794,0.05624925266172738,0.03276111325864306
0.2928103,0.08845171528096114,-0.08299846138870856,-0.024818707268154792,-0.01323112406004485,0.09142346517015494,-0.0007522554031814967,0.0720290358542976,0.01812895687754762
0.2932759,0.08580133729638711,-0.06215483166688509,-0.02500545494681767,-0.00827314063818796,0.049689474291052124,-0.0028534,0.05843381629460878,0.01163823074455262
0.2937414,0.08076855283784797,-0.04813494718851162,-0.023515381131970742,-0.008984786797133746,-0.011419279243596052,0.010597215096526879,0.028132618873299618,0.019379043417017024
0.2942069,0.07660729923930326,-0.034946046380789804,-0.03879824620218056,-0.009934190728712952,-0.05420061737405709,0.024653072847524698,0.021501728586735165,0.04261963785802222
0.2946724,0.07149858256739665,-0.021060247415178725,-0.052268631326387954,-0.007619164581871605,-0.06193365203189958,0.02842158255513614,0.028381158310805784,0.05031306456961109
0.2951379,0.06055391495964689,-0.004889282106731823,-0.060821011892377264,-8.119399910908726e-05,-0.023912284410793648,0.03096907225111972,0.024637754424675706,0.056529103964125756
0.2956034,0.05137972138247407,0.0006892031509437884,-0.06002695482348387,0.00645800231005279,0.018907468970558183,0.03303297033820478,0.009649609739588933,0.05647233930876296
0.296069,0.04246096677910432,0.0034099435007006323,-0.060143043500700634,0.01149434893828821,0.03920945942018206,0.033374394562412424,-0.009222629210317022,0.05755652708689345
0.2965345,0.035249537620181196,0.006817517687641166,-0.06339281544712028,0.014716515447120274,0.029093322173060918,0.03198224976455713,-0.01584732865371966,0.06431534964410515
0.297,0.02754366524275865,0.008399868077188063,-0.06511513640775862,0.017038930970862058,0.012164036175796339,0.03264147351408461,-0.01328092718448277,0.07199093475724135
0.2974655,0.018867487009539635,0.006553481622738956,-0.05286461854727274,0.01725405584735053,0.0017389055568123746,0.03834154916479055,-0.006688797203833506,0.07123994916479055
0.297931,0.011110944356784164,0.005073511843906928,-0.02544135370808061,0.017523827821607916,-0.009364857609593252,0.0496556231303386,0.004848518996544538,0.06023544078046536
0.2983966,0.005863400373775515,0.007688435447446753,-0.006126944512721527,0.02094073443262611,-0.03611054455312612,0.06318696923902774,0.021754281869450453,0.047830088010622406
0.2988621,0.0038956462535828275,0.010359000765170281,5.73418415314457e-05,0.026422293327129434,-0.06098845318031904,0.07218233290784169,0.039463985213403455,0.03827250887889626
0.2993276,0.0032267002226869764,0.011198902521777016,0.009357896771038838,0.0323828007402812,-0.06856300029490725,0.07345219681016206,0.05388229784535051,0.023999802154649492
0.2997931,0.0031891,0.01496953210783075,0.02852117521498364,0.036167798868766844,-0.05151365774127198,0.06793250917616882,0.0472716357843385,0.007552631133102295
0.3002586,0.003818009888924356,0.02979850111075644,0.05571324999135197,0.039325571443983375,-0.026367563933405357,0.06006876127304589,0.008088981771754308,-0.011317923674144283
0.3007241,0.004963768687735688,0.04136441212641413,0.06436093010215566,0.041986125049811446,-0.027748021083187892,0.05733205636207576,-0.026689082759047664,-0.01795810491529241
0.3011897,0.005333800504545953,0.042338644440004396,0.059826974946961,0.042309121210910294,-0.03006552606213091,0.058764073433323134,-0.03400846029308498,-0.02009308383454925
0.3016552,0.0035662222050409317,0.032965325828565276,0.048914476650730836,0.04313039629915985,-0.00045352896259590075,0.05989458519663938,-0.021052816293060127,-0.027899631740546087
0.3021207,0.0005276019810621847,0.020110714992162337,0.03936911248586025,0.04282180052523991,0.03818534573474235,0.05566291009945559,-0.002031030989154291,-0.034656288969962035
0.3025862,-0.004802660446211856,0.013973155453263362,0.018280284146759165,0.04260246151218632,0.05926917135273858,0.04972623364020991,-0.0028950554532633623,-0.038395844546736634
0.3030517,-0.008618988719815516,0.014560282879971617,-0.01269055643975396,0.04216215966627091,0.06425975447975875,0.047964851360085145,-0.0034821828799716176,-0.03780871712002838
0.3035172,-0.010959286721998014,0.013161926556003971,-0.04811460508456195,0.04387414408859769,0.07288350207467195,0.05034234372336021,0.029658010999094122,-0.036103962240666004
0.3039828,-0.011935836342829685,0.011208827314340631,-0.06745169908450611,0.04513286365717031,0.06917955226625835,0.05349658346754356,0.0833696954674833,-0.036515981714148424
0.3044483,-0.012362859727830772,0.010409710408253845,-0.082505489096916,0.044870629863915386,0.04591761027632566,0.05558556493195769,0.12427702949687147,-0.03837644931957693
0.3049138,-0.012974636527751042,0.009545006640017036,-0.09380510957559578,0.04547030664767438,0.024656358583891994,0.05615672324771697,0.1377093771520275,-0.04007686348756364
0.3053793,-0.01323248768252643,0.008608387045331732,-0.09419366379932004,0.04531613268075643,0.004716207640583258,0.05573351515405578,0.14204324262558513,-0.04156565338086588
0.3058448,-0.008477719643152215,0.00906936561584967,-0.08213329594190716,0.04426540896024694,-0.011438558684649151,0.05357694883228275,0.1486373852590019,-0.04395727802141329
0.3063103,-0.0035231127301403415,0.009893493910755138,-0.07705955777385391,0.04074710012308405,-0.01727258586107592,0.05144996738094427,0.1431855220317482,-0.04442126682929365
0.3067759,0.003735902537558673,0.011746727905408497,-0.0723349359234114,0.034689351963198695,-0.022256159902422506,0.048821118329577265,0.12104651530026267,-0.04475884828078852
0.3072414,0.009251465823326277,0.019548770889253615,-0.07830349645848685,0.03199215796840457,-0.016398320503305905,0.04875211873254934,0.11521078074189763,-0.046921881267450664
0.3077069,0.014895938526689405,0.03891606830833404,-0.09889945838992996,0.02914336167844306,-0.005079322183526806,0.05085750117335932,0.12236289882664067,-0.05320660234671864
0.3081724,0.017097449586387415,0.050353009087732284,-0.11592742620844095,0.02754226241818269,-0.0005140395302425664,0.05301865721570079,0.11977277753562204,-0.05788804812796851
0.3086379,0.018987998861520115,0.05383760227695977,-0.130460896471991,0.02737619908921609,-0.004406188615201129,0.05436010062680326,0.09632851126967225,-0.059575999943715326
0.3091034,0.020786013499403896,0.04984007681526249,-0.13273195297119147,0.028621903154736766,-0.02250682810038795,0.051854276815262494,0.08535593411761855,-0.05856653807796448
0.309569,0.021614849856130127,0.04546863542756786,-0.125434624697818,0.02798243441277275,-0.031609621365692904,0.04737401645815249,0.11084299869746514,-0.05740587955529537
0.3100345,0.02206539217684673,0.03803989889582924,-0.10490870790171175,0.02781889483301634,-0.029506125913476785,0.040883520589376145,0.1637418311590189,-0.05517975247153481
0.3105,0.0223418525502666,0.029522618857198174,-0.08460596296979982,0.028648342349200204,-0.022173218609935645,0.03487311975329675,0.20291527251546576,-0.05396038380230183
0.3109655,0.022363069421084958,0.01910729087130282,-0.058771588098410356,0.026656612376943216,-0.02411708487787558,0.031981036348521126,0.20445444570103946,-0.04956226362376761
0.311431,0.023023179119930303,0.015363045696951691,-0.045969102168388315,0.02463038222615462,-0.033600216274357234,0.03332198466347877,0.18943232517317016,-0.04752566901434554
0.3118966,0.024716338278026016,0.008806317219739845,-0.03539719030884888,0.01959125549776586,-0.04173814304934961,0.03108542582960977,0.18579939008574947,-0.046910370331843906
0.3123621,0.02483599661146462,0.00669492004864566,-0.03711733234885402,0.017631054187701937,-0.03447219384989582,0.0273189384989582,0.19110588997567715,-0.04534068154968746
0.3128276,0.022426858414589565,0.003705693758817511,-0.039979951861206155,0.015482030782225579,-0.02447781284641704,0.023388438754439324,0.16300142254966205,-0.04377867435901706
0.3132931,0.019378137725756396,-0.0056081531212573785,-0.041488979331070625,0.011497944659440039,-0.02013377863990174,0.01552954507162065,0.08940391942085475,-0.04601266171626706
0.3137586,0.015810227105816286,-0.021980889161512016,-0.04649050196776363,0.008909330987360823,-0.024971378215058584,0.005134467268605154,0.024086054408370815,-0.05888473999304198
0.3142241,0.013686729382158277,-0.03671696946408266,-0.05239209650155447,0.006745827502845081,-0.025789613862928794,-0.006828953293635753,0.00456914739475003,-0.06869055997382933
0.3146897,0.011666904395919954,-0.05421767617356824,-0.06435107088393319,0.005149242959262525,-0.025579447236042867,-0.01828454224442485,0.009637699761720775,-0.0855324563258998
0.3151552,0.01051774270307765,-0.06804522173641116,-0.06838779961512767,0.0032032893242305875,-0.027269762293454094,-0.023118164363328267,0.009763459751668854,-0.1017758291876894
0.3156207,0.008992398765492886,-0.07352102945321937,-0.06151689113608001,0.0035248,-0.04274214448967492,-0.016654677249094075,-0.0028360400577149294,-0.10623628218712253
