Time,Rectus Femoris right,Rectus Femoris left,Hamstrings right,Hamstrings left,TibilaisÂ Anterior right,TibilaisÂ Anterior left,Gastrocnemius right,Gastrocnemius left
0.0,0.0292593481463074,-0.001559349529242515,0.10625108002497786,0.008812756755418304,-0.050157974183591636,-0.008806446564179508,-0.13788115353897235,-0.007830127675893783
0.0004655,0.02931484379188133,-0.0013665464758485573,0.10655306837497967,0.0088486836475823,-0.046743375103607994,-0.008427957288496084,-0.13418295059341226,-0.007515316945262433
0.000931,0.029368995281306046,-0.0011743024715285474,0.10684977333585993,0.008883884576726302,-0.04334368716884515,-0.008049675525269308,-0.13049906369525918,-0.007200778871152309
0.0013966,0.02942178087490092,-0.0009826433946675695,0.10714109129145326,0.008918350036506803,-0.03995946137453279,-0.007671653002256311,-0.12683002645704428,-0.006886555543885278
0.0018621,0.02947317909859172,-0.0007915949458397461,0.10742691945827677,0.008952070702642423,-0.03659124539253216,-0.00729394144632742,-0.12317636860517052,-0.006572688992296425
0.0023276,0.029523168754353107,-0.0006011826389859115,0.10770715592741918,0.008985037437457863,-0.033239583381808595,-0.006916592568622417,-0.1195386158012135,-0.006259221171078804
0.0027931,0.029571728930650177,-0.00041143179267598016,0.10798169970633856,0.009017241294381521,-0.02990501580002669,-0.0065396580497469065,-0.1159172894650914,-0.00594619394820706
0.0032586,0.0296188390128723,-0.00022236752146230314,0.10825045076053243,0.00904867352239379,-0.026588079216389986,-0.006163189525019324,-0.11231290660022722,-0.005633649092451455
0.0037241,0.029664478693752265,-3.401472733017135e-05,0.10851331005504432,0.009079325570423019,-0.023289306125844407,-0.0057872385697788345,-0.10872597962082478,-0.005321628260992904
0.0041897,0.029708627983763877,0.00015360190874854986,0.1087701795957728,0.00910918909168617,-0.020009224764762076,-0.005411856684763871,-0.10515701618137714,-0.005010172987148567
0.0046552,0.02975126722149113,0.00034045793515285154,0.10902096247055158,0.009138255947971165,-0.016748358928218725,-0.005037095281570503,-0.10160651900852306,-0.004699324668216428
0.0051207,0.029792377083962013,0.0005265291378354263,0.1092655628899702,0.009166518213857975,-0.013507227788974398,-0.004663005668199137,-0.09807498573536423,-0.0043891245534463125
0.0055862,0.029831938596940118,0.0007117915484253893,0.10950388622790713,0.009193968180875487,-0.010286345718263054,-0.004289639034697385,-0.09456290873835152,-0.00407961373214398
0.0060517,0.02986993314516702,0.0008962214522054156,0.10973583906174862,0.009220598361591208,-0.007086222108492292,-0.003917046438906273,-0.0910707749768445,-0.0037708331219142885
0.0065172,0.029906342482548535,0.001079795395957911,0.1099613292122679,0.009246401493630875,-0.003907361197949949,-0.0035452787923163863,-0.08759906583544287,-0.003462823457048964
0.0069828,0.029941148742277796,0.0012624901956749292,0.11018026578313982,0.009271370543625071,-0.000750261897609637,-0.003174386846040017,-0.08414825696918359,-0.0031556252770641143
0.0074483,0.02997433444688784,0.001444282944126677,0.11039255920006666,0.009295498711079958,0.0023845823798773185,-0.0028044211769049183,-0.08071881815169096,-0.002849278915392278
0.0079138,0.030005882518226328,0.0016251510182836088,0.11059812124949012,0.009318779432169301,0.005496683888920677,-0.0024354321736748197,-0.07731121312636163,-0.002543824488233431
0.0083793,0.030035776287344697,0.0018050720865872975,0.11079686511686453,0.009341206383444954,0.008585560717382298,-0.002067470023401448,-0.07392589946065949,-0.002239301883569004
0.0088448,0.03006399950429389,0.001984024116065477,0.11098870542446596,0.00936277348546303,0.01165073695054509,-0.001700584697912379,-0.07056332840359034,-0.0019357507503426211
0.0093103,0.030090536347818414,0.0021619853792868575,0.11117355826871111,0.009383474906323023,0.01469174283258952,-0.0013348259404386239,-0.06722394474642013,-0.0016332104878109934
0.0097759,0.030115371434940454,0.0023389344611515184,0.1113513412569608,0.009403305065117178,0.017708114925510967,-0.0009702432523854752,-0.06390818668669504,-0.0013317202350681772
0.0102414,0.03013848983042541,0.002514850265512852,0.11152197354378227,0.009422258635287424,0.02069939626541453,-0.0006068858802497972,-0.06061648569561659,-0.0010313188607462757
0.0107069,0.030159877056120363,0.0026897120216271384,0.11168537586664568,0.009440330547887177,0.02366513651612686,-0.00024480280268668873,-0.05734926638882006,-0.0007320449528955524
0.0111724,0.030179519100156805,0.0028634992904269328,0.11184147058102999,0.009457515994745317,0.026604892120067322,0.00011595728227176126,-0.0541069464006,-0.00043393680904682357
0.0116379,0.03019740242600913,0.0030361919706145416,0.11199018169491456,0.009473810431529596,0.029518226446323143,0.0004753459698430293,-0.050889936261621596,-0.00013703242645885321
0.0121034,0.030213513981400632,0.0032077703045720043,0.1121314349026332,0.009489209580706641,0.03240470993587541,0.0008333151609635167,-0.047698639280153256,0.0001586305074467221
0.012569,0.0302278412070489,0.003378214884084228,0.11226515761806778,0.009503709434395725,0.03526392024392468,0.0011898170745982591,-0.04453345142685118,0.0004530146244606685
0.0130345,0.030240372045242752,0.0035475066558722022,0.11239127900715966,0.009517306257113393,0.03809544237926684,0.0015448042598885676,-0.04139476122312301,0.0007460828847696342
0.0135,0.030251094948243178,0.003715626926933544,0.11250973001971774,0.009529996588405951,0.04089886884067104,0.001898229608135206,-0.03828294963309451,0.0010377985859461067
0.0139655,0.03025999888650119,0.0038825573696879617,0.1126204434205026,0.009541777245366792,0.043673799750213335,0.002250046364614737,-0.03519838995919984,0.0013281253717433673
0.014431,0.030267073356685624,0.004048280026925512,0.11272335381956664,0.009552645325035468,0.04641984298352051,0.002600208140226703,-0.03214144774141303,0.001617027240694181
0.0148966,0.030272308389514474,0.004212777316555816,0.11281839770183145,0.009562598206675366,0.04913661429687941,0.0029486689229693613,-0.029112480660136206,0.0019044685545121518
0.0153621,0.030275694557383784,0.004376032036156664,0.11290551345588402,0.009571633553926874,0.05182373745116809,0.003295383089241789,-0.026111838442757787,0.0021904140462948468
0.0158276,0.030277222981788435,0.004538027367320663,0.112984641401974,0.009579749316832878,0.05448084433256519,0.0036403054149703154,-0.023139862773892364,0.0024748288285279317
0.0162931,0.030276885340529712,0.004698746879798858,0.11305572381919601,0.009586943733733448,0.05710757506999424,0.003983391086557407,-0.020196887209312706,0.0027576784008896834
0.0167586,0.03027467387470499,0.004858174535440444,0.11311870497184119,0.009593215333026617,0.059703578149259806,0.004324595711651308,-0.017283237093583374,0.0030389286578553225
0.0172241,0.030270581395475275,0.005016294691927915,0.1131735311349035,0.009598562934792202,0.06226851052383245,0.004663875329734858,-0.014399229481404796,0.003318545896100702
0.0176897,0.030264601290606732,0.005173092106307172,0.11322015061872773,0.009602985652275714,0.0648020377222393,0.005001186422532041,-0.01154517306267604,0.0035964968217050168
0.0181552,0.030256727530782887,0.005328551938312292,0.11325851379278701,0.009606482893229691,0.06730383395201718,0.005336485924230879,-0.008721368091283876,0.003872748557152364
0.0186207,0.030246954675684532,0.0054826597534847745,0.11328857310857883,0.009609054361110064,0.06977358220018491,0.005669731231521415,-0.005928106317624802,0.004147268648132151
0.0190862,0.03023527787983461,0.005635401526087178,0.11331028312163045,0.00961070005612563,0.0722109743301912,0.0060008802134476425,-0.003165670924865643,0.004420025070138521
0.0195517,0.03022169289820585,0.00578676364181115,0.11332360051260502,0.009611420276139216,0.07461571117529442,0.006329891221072299,-0.00043433646894698905,0.004690986234869057
0.0200172,0.030206196091588956,0.005936732900279878,0.11332848410750153,0.00961121561741969,0.07698750262832972,0.006656723096953602,0.002265631177667823,0.004960120996423146
0.0204828,0.030188784431719438,0.006085296517345005,0.11332489489694272,0.009610086975244354,0.07932606772781954,0.006981335184433016,0.004933974878497218,0.0052273986573004505
0.0209483,0.030169455506161225,0.00623244212717802,0.11331279605454649,0.009608035544351762,0.08163113474038276,0.007303687336733232,0.007570446281800334,0.005492788974199982
0.0214138,0.030148207522945218,0.006378157784156152,0.11329215295437721,0.009605062819245268,0.08390244123939893,0.00762373992586561,0.01017480586559343,0.005756262163620345
0.0218793,0.03012503931496087,0.00652243196454275,0.11326293318747502,0.009601170594347928,0.0861397341798847,0.007941453851346354,0.012746822978929012,0.006017788907261678
0.0223448,0.03009995034409883,0.006665253567962173,0.11322510657746179,0.009596360964009511,0.08834276996954163,0.008256790548720722,0.015286275879445206,0.0062773403572298665
0.0228103,0.030072940705142534,0.006806611918669241,0.11317864519522428,0.009590636322366584,0.09051131453593615,0.00856971199789458,0.017792951767195423,0.006534888141043641
0.0232759,0.030044011129406398,0.006946496766613372,0.11312352337267538,0.00958399936305663,0.09264514338977604,0.008880180731272712,0.020266646814770816,0.006790404366445277
0.0237414,0.030013162988118083,0.007084898288297602,0.11305971771559545,0.009576453078787264,0.09474404168425062,0.009188159841703425,0.0227071661937308,0.0070438616260157265
0.0242069,0.029980398295542072,0.007221807087432741,0.1129872071155563,0.009568000760761579,0.09680780427040594,0.009493612990229224,0.025114324097359527,0.007295233001595121
0.0246724,0.029945719711841633,0.007357214195386914,0.11290597276093155,0.00955864599796061,0.09883623574853048,0.009796504413643577,0.027487943759769085,0.007544492068509676
0.0251379,0.029909130545676198,0.007491111071430815,0.1128159981469969,0.009548392676283905,0.10082915051553078,0.010096798931854157,0.02982785747137308,0.007791612899606158
0.0256034,0.029870634756530987,0.007623489602779061,0.11271726908512479,0.009537244977549215,0.10278637280828158,0.010394461955053115,0.032133906590757134,0.008036570069095236
0.026069,0.0298302369567759,0.007754342104428186,0.11260977371107744,0.009525207378352323,0.10470773674293896,0.010689459490695219,0.03440594155297578,0.008279338656205303
0.0265345,0.029787942413450702,0.00788366131879206,0.11249350249240296,0.009512284648788092,0.1065930863502095,0.01098175815028472,0.036643821874308,0.008519894248648602
0.027,0.029743757049773632,0.008011440415135823,0.1123684482349387,0.009498481851033873,0.10844227560657325,0.011271325155971897,0.038847416153506564,0.008758212945901789
0.0274655,0.02969768744637079,0.008137672988809769,0.11223460608842589,0.009483804337796484,0.11025516846146143,0.011558128346960128,0.041016602069578724,0.008994271362303166
0.027931,0.02964974084222405,0.008262353060285077,0.11209197355123911,0.009468257750624088,0.11203163886039415,0.011842136185724298,0.043151266376138385,0.009228046629968987
0.0283966,0.02959992513533531,0.008385475073993669,0.1119405504742338,0.009451848018084403,0.11377157076408671,0.012123317764041418,0.045251304892372016,0.00945951640153122
0.0288621,0.029548248883105466,0.008507033896974922,0.1117803390637142,0.00943458135381074,0.11547485816353636,0.0124016428088342,0.04731662249066258,0.009688658852699195
0.0293276,0.029494721302426613,0.008627024817332336,0.11161134388352294,0.009416464254417571,0.11714140509110398,0.01267708168782837,0.04934713308091777,0.009915452684647436
0.0297931,0.029439352269486505,0.008745443542503428,0.11143357185625348,0.009397503497287405,0.11877112562760749,0.012949605415024455,0.05134275959165008,0.010139877126232015
0.0302586,0.029382152319284517,0.008862286197346391,0.11124703226358523,0.009377706138230921,0.12036394390544618,0.013219185655984726,0.05330343394785799,0.01036191193603769
0.0307241,0.029323132644858835,0.008977549322047073,0.11105173674574083,0.009357079509022481,0.12191979410777681,0.01348579473293597,0.05522909704575824,0.010581537404258037
0.0311897,0.029262305096224833,0.009091229869849882,0.11084769930006472,0.00933563121481332,0.12343862046376407,0.013749405629688691,0.057119698724420104,0.01079873435441079
0.0316552,0.02919968217902505,0.0092033252046163,0.11063493627872206,0.009313369131424843,0.12492037723992863,0.014009991996373348,0.05897519773435305,0.011013484144890584
0.0321207,0.029135277052891317,0.009313833098214597,0.1104134663855167,0.009290301402524662,0.12636502872761768,0.014267528153994107,0.06079556170309967,0.011225768670361276
0.0325862,0.0290691035295201,0.009422751727744394,0.11018331067182699,0.00926643643668813,0.1277725492266223,0.014521989098800689,0.06258076709788558,0.011435570362989984
0.0330517,0.029001176070462306,0.00953007967259963,0.1099444925316583,0.00924178290434828,0.12914292302496652,0.014773350506478688,0.06433079918537786,0.011642872193524972
0.0335172,0.028931509784629134,0.009635815911373524,0.10969703769581161,0.009216349734637173,0.1304761443748925,0.015021588736158826,0.06604565198860346,0.01184765767221938
0.0339828,0.02886012042551584,0.00973995981860907,0.10944097422516713,0.009190146112121732,0.1317722174650663,0.015266680834245453,0.06772532824107867,0.012049910849602836
0.0344483,0.028787024388145534,0.009842511161398627,0.10917633250308305,0.009163181473437264,0.13303115638903035,0.015508604538064717,0.06936983933820033,0.012249616317102918
0.0349138,0.028712238705735443,0.009943470095836116,0.10890314522690965,0.009135465503821818,0.1342529851099301,0.015747338279332675,0.07097920528594967,0.01244675920751846
0.0353793,0.02863578104608815,0.010042837163325479,0.10862144739861959,0.009107008133554625,0.1354377374215461,0.01598286118744377,0.07255345464695956,0.0126413251953468
0.0358448,0.028557669707710624,0.010140613286749032,0.10833127631455575,0.009077819534301843,0.13658545690566723,0.01621515309257996,0.07409262448399591,0.012833300496967013
0.0363103,0.028477923615664046,0.010236799766499459,0.10803267155429884,0.009047910115372844,0.13769619688584503,0.01644419452864084,0.07559676030090433,0.013022671870681402
0.0367759,0.028396562317147538,0.010331398276379196,0.1077256749686582,0.009017290519890274,0.1387700203775739,0.016669966735994978,0.07706591598107328,0.013209426616617477
0.0372414,0.028313605976819037,0.010424410859371078,0.10741033066678911,0.008985971620877109,0.13980700003494664,0.016892451664052663,0.07850015372346505,0.013393552576492782
0.0377069,0.028229075371856864,0.010515839923284098,0.10708668500244198,0.008953964517263897,0.14080721809383898,0.01711163197366011,0.07989954397626653,0.013575038133244849
0.0381724,0.028142991886765556,0.010605688236278171,0.10675478655934939,0.008921280529819359,0.14177076631168106,0.017327491039315072,0.08126416536821182,0.01375387221052866
0.0386379,0.028055377507929833,0.010693958922271783,0.10641468613575805,0.008887931197007488,0.1426977459038775,0.01754001295120373,0.08259410463762958,0.013930044272083936
0.0391034,0.027966254817920585,0.010780655456236328,0.10606643672811415,0.00885392827077427,0.14358826747694067,0.017749182517058558,0.08388945655926774,0.014103544320974501
0.039569,0.027875646989556878,0.010865781659380945,0.1057100935139117,0.008819283712267109,0.14444245095840633,0.0179549852638369,0.08515032386894968,0.014274362898701943
0.0400345,0.02778357777972814,0.010949341694231594,0.1053457138337145,0.008784009687490038,0.1452604255236018,0.01815740743921972,0.08637681718611541,0.014442491084195647
0.0405,0.027690071522980503,0.011031340059608069,0.10497335717236414,0.008748118562897736,0.14604232951934018,0.018356436012929953,0.08756905493430321,0.014607920492681236
0.0409655,0.027595153124871354,0.011111781585502627,0.10459308513938749,0.008711622900931347,0.14678831038461437,0.01855205867786977,0.08872716325962636,0.014770643274429309
0.041431,0.02749884805509601,0.01119067142786396,0.10420496144861843,0.008674535455499007,0.1474985245683664,0.01874426385107595,0.08985127594730101,0.01493065211338626
0.0418966,0.027401182340390302,0.011268015063290133,0.10380905189704981,0.008636869167404007,0.1481731374444072,0.01893304067449247,0.0909415343362812,0.015087940225688828
0.0423621,0.027302182557212586,0.011343818283634184,0.10340542434293255,0.008598637159723338,0.14881232322356172,0.01911837901555933,0.09199808723205788,0.015242501358063897
0.0428276,0.027201875824208605,0.011418087190526102,0.10299414868314026,0.00855985273313937,0.14941626486311443,0.019300269467616493,0.09302109081767825,0.015394329786114968
0.0432931,0.027100289794462388,0.011490828189814879,0.10257529682981821,0.008520529361227358,0.14998515397362885,0.01947870335012183,0.0940107085630425,0.015543420312496623
0.0437586,0.026997452647536477,0.011562047985934338,0.10214894268633677,0.00848068068570136,0.1505191907232142,0.019653672708681673,0.09496711113253449,0.01568976826497818
0.0442241,0.026893393081304503,0.01163175357619651,0.10171516212256944,0.008440320511621139,0.15101858373931112,0.01982517031489251,0.09589047629104241,0.01583336949439774
0.0446897,0.02678814030357914,0.011699952245016241,0.1012740329495167,0.00839946280256254,0.15148355000806757,0.019993189665992343,0.09678098880842512,0.015974220372507696
0.0451552,0.026681724023538522,0.01176665155807076,0.10082563489329682,0.008358121675753772,0.151914314771375,0.02015772498431993,0.09763884036247925,0.01611231778971281
0.0456207,0.026574174442954217,0.01183185935639793,0.100370049568525,0.008316311397179975,0.15231111142163414,0.020318771216580375,0.09846422944046132,0.016247659152701804
0.0460862,0.026465522247223972,0.011895583750436853,0.09990736045110239,0.008274046376658406,0.15267418139431987,0.02047632403291542,0.09925736123921854,0.016380242381973324
0.0465517,0.026355798596212524,0.011957833114014419,0.09943765285043632,0.008231341162886461,0.15300377405841356,0.020630379825777315,0.10001844756398148,0.016510065909257042
0.0470172,0.026245035114903996,0.012018616078281424,0.09896101388111245,0.008188210438464736,0.15330014660477212,0.020780935708605487,0.10074770672587122,0.016637128674830602
0.0474828,0.026133263883869717,0.012077941525601715,0.09847753243404019,0.008144669014897242,0.1535635639325026,0.02092798951430578,0.10144536343817297,0.016761430124732916
0.0479483,0.026020517429555606,0.012135818583397783,0.09798729914709148,0.008100731827570824,0.15379429853341098,0.021071539793532355,0.10211164871142789,0.016882970207874444
0.0484138,0.025906828714393777,0.01219225661795613,0.09749040637525297,0.008056413930715798,0.15399263037459437,0.021211585812772774,0.10274679974739379,0.01700174937304503
0.0488793,0.02579223112674351,0.012247265228195645,0.09698694816031055,0.008011730492349722,0.15415884677924543,0.02134812755223676,0.1033510598319255,0.017117768565820035
0.0493448,0.025676758470666947,0.01230085423940215,0.09647702020008486,0.007966696789206178,0.15429324230573813,0.02148116570354927,0.10392467822682432,0.017231029225365596
0.0498103,0.025560444955545276,0.012353033696932155,0.0959607198172356,0.007921328201650436,0.15439611862506336,0.02161070166724883,0.10446791006070574,0.017341533281143958
0.0502759,0.025443325185541432,0.012403813859888776,0.09543814592765121,0.007875640208583773,0.1544677843966836,0.021736737550092255,0.1049810162189337,0.01744928314951994
0.0507414,0.02532543414891543,0.012453205194772715,0.0949093990084404,0.007829648382338251,0.15450855514287465,0.021859276162167478,0.10546426323266853,0.017554281730269707
0.0512069,0.025206807207198652,0.012501218369111148,0.09437458106554061,0.007783368383563701,0.1545187531216231,0.021978321013816606,0.10591792316707473,0.017656532402992944
0.0516724,0.025087480084233525,0.012547864245067245,0.09383379560095807,0.007736815956108637,0.15449870719814743,0.022093876312372068,0.10634227350873444,0.0177560390234296
0.0521379,0.024967488855085217,0.012593153873033008,0.09328714757965294,0.007690006921896812,0.15444875271511022,0.022205946958708936,0.10673759705231094,0.017852805919682347
0.0526034,0.024846869934832018,0.012637098485207991,0.09273474339608286,0.0076429571758011156,0.15436923136158887,0.022314538543616914,0.10710418178650609,0.01794683788834614
0.053069,0.02472566006724108,0.012679709489166389,0.09217669084041744,0.0075956826805164655,0.15426049104087136,0.02241965734399558,0.10744232077935503,0.018038140190546347
0.0535345,0.024603896313336256,0.012720998461414916,0.09161309906443547,0.007548199461433354,0.15412288573714275,0.022521310318876588,0.10775231206290022,0.0181267185478873
0.054,0.024481616039864783,0.012760977140943808,0.09104407854711669,0.007500523601513693,0.15395677538112768,0.022619505105276758,0.10803445851728688,0.01821257913831326
0.0544655,0.024358856907669518,0.012799657422773263,0.09046974105993894,0.007452671236170538,0.153762525714753,0.022714250013886387,0.10828906775432127,0.018295728591884095
0.054931,0.024235656859973368,0.012837051351497701,0.08989019963189222,0.007404658548153283,0.15354050815489295,0.02280555402459705,0.10851645200053188,0.018376173986468094
0.0553966,0.024112054110582693,0.012873171114830289,0.0893055685142199,0.0073565017624398245,0.15329109965625906,0.022893426781873373,0.10871692797977363,0.01845392284335445
0.0558621,0.023988087132016174,0.012908029037150279,0.08871596314489788,0.007308217141137175,0.1530146825734945,0.022977878589973202,0.10889081679541437,0.018528983122787883
0.0563276,0.02386379464356571,0.012941637573055827,0.08812150011286222,0.007259820978391941,0.15271164452253225,0.023058920408020468,0.10903844381214199,0.018601363219427798
0.0567931,0.023739215599295777,0.012974009300925002,0.08752229712199554,0.007211329595312036,0.1523823782412745,0.023136563844935017,0.10916013853743005,0.01867107195773434
0.0572586,0.0236143891759876,0.013005156916487785,0.08691847295488296,0.007162759334900981,0.15202728144964928,0.023210821154223484,0.10925623450269958,0.018738118587283564
0.0577241,0.023489354761034333,0.013035093226411852,0.08631014743634859,0.007114126557006086,0.15164675670909972,0.02328170522863531,0.10932706914421363,0.01880251277801382
0.0581897,0.023364151940293384,0.01306383114190493,0.08569744139678287,0.007065447633281768,0.15124121128155968,0.023349229594687756,0.10937298368374074,0.018864264615405458
0.0586552,0.023238820485901878,0.01309138367233645,0.08508047663527218,0.007016738942169276,0.1508110569879678,0.023413408407063976,0.10939432300902359,0.018923384595595914
0.0591207,0.02311340034406108,0.013117763918881184,0.0844593758825419,0.006968016863894065,0.15035671006637147,0.02347425644288805,0.1093914355540879,0.018979883620432316
0.0595862,0.022987931622795447,0.013142985068187427,0.08383426276372481,0.006919297775482043,0.149878591029671,0.023531789095881057,0.10936467317942672,0.01903377299246375
0.0600517,0.02286245457969179,0.01316706038607223,0.08320526176096638,0.006870598045795947,0.14937712452305252,0.023586022370402093,0.10931439105209481,0.01908506440987534
0.0605172,0.02273700960962391,0.013190003211246117,0.08257249817587928,0.00682193403059311,0.1488527391811576,0.023636972875378026,0.10924094752574735,0.019133769961366235
0.0609828,0.022611637232467757,0.013211826949069704,0.08193609809185978,0.0067733220676058446,0.14830586748503571,0.023684657818125718,0.10914470402065736,0.01917990212097365
0.0614483,0.022486378080812042,0.013232545065344544,0.08129618833627905,0.006724778471645701,0.14773694561892511,0.023729094998070188,0.10902602490374538,0.019223473742844895
0.0619138,0.02236127288766906,0.013252171080140493,0.08065289644256285,0.0066763195297327846,0.147146413326906,0.023770302800362134,0.10888527736865522,0.019264498055959214
0.0623793,0.022236362474190228,0.013270718561661872,0.08000635061217319,0.00662796149625132,0.14653471376946903,0.023808300189397977,0.1087228313159085,0.019302988658801198
0.0628448,0.022111687737390667,0.013288201120154641,0.0793566796765062,0.006579720588132593,0.14590229338004065,0.02384310670224558,0.10853905923317131,0.019338959513987376
0.0633103,0.021987289637887097,0.013304632401856739,0.07870401305872046,0.006531612980066386,0.14524960172150622,0.02387474244197841,0.10833433607566519,0.01937242494284756
0.0637759,0.021863209187653117,0.013320026082993675,0.0780484807355105,0.0064836547997419985,0.14457709134277114,0.023903228070920945,0.10810903914675422,0.01940339961996239
0.0642414,0.02173948743779584,0.013334395863821374,0.0773902131988404,0.006435862123119941,0.14388521763539927,0.0239285848038078,0.10786354797873962,0.01943189856765847
0.0647069,0.021616165466357744,0.013347755462718148,0.07672934141765272,0.006388250969735387,0.14317443869036703,0.023950834400858937,0.10759824421389234,0.019457937150462526
0.0651724,0.021493284366147402,0.013360118610327612,0.07606599679956849,0.0063408372980344714,0.14244521515497138,0.023969999160773088,0.10731351148575387,0.01948153106951586
0.0656379,0.021370885232602745,0.013371499043754344,0.07540031115259353,0.006293637000744533,0.14169801008992874,0.023986101913641318,0.1070097353007342,0.01950269635695047
0.0661034,0.02124900915169035,0.013381910500814106,0.07473241664684728,0.00624666590027941,0.14093328882670147,0.023999166013782564,0.10668730292003514,0.019521449370228074
0.066569,0.02112769718784409,0.013391366714340451,0.07406244577632994,0.006199939744180916,0.14015151882508758,0.02400921533250274,0.10634660324192692,0.019537806786443443
0.0670345,0.02100699037194638,0.013399881406549689,0.07339053132074415,0.00615347420059761,0.13935316953110857,0.024016274250778784,0.10598802668440521,0.019551785596593253
0.0675,0.020886929689355294,0.013407468283466147,0.07271680630738737,0.006107284853801953,0.1385387122352293,0.024020367651869122,0.10561196506825582,0.019563403099811905
0.0679655,0.020767556067980454,0.01341414102940971,0.0720414039731311,0.0060613871997469305,0.1377086199309427,0.02402152091385194,0.10521881150055401,0.019572676897575508
0.068431,0.020648910366410773,0.013419913301547633,0.07136445772650293,0.0060157966416632125,0.13686336717375155,0.02401975990209259,0.10480896025862527,0.0195796248878754
0.0688966,0.02053103336209681,0.01342479872451252,0.07068610110988771,0.0059705284856978935,0.13600342994057793,0.024015110961641717,0.10438280667449472,0.019584265259362403
0.0693621,0.020413965739590558,0.013428810885088384,0.07000646776186319,0.005925597936595839,0.13512928548963,0.024007600909565666,0.10394074701985191,0.019586616485462973
0.0698276,0.02029774807884523,0.013431963326966835,0.06932569137968618,0.005881020093424648,0.1342414122207559,0.023997257027211016,0.10348317839155786,0.019586697318468287
0.0702931,0.020182420843577693,0.013434269545575436,0.068643905681944,0.005836809945344179,0.1333402895363124,0.023984107052405123,0.10301049859772085,0.019584526783597414
0.0707586,0.02006802436969601,0.01343574298298055,0.067961244371386,0.0057929823674215805,0.1324263977025767,0.023968179171594634,0.10252310604436704,0.019580124173035528
0.0712241,0.01995459885379453,0.013436397022867058,0.06727784109794935,0.005749552116492668,0.13150021771172798,0.023949502011924008,0.10202139962273257,0.01957350903994826
0.0716897,0.01984218434171905,0.013436244985597402,0.06659382942199298,0.0057065338270705325,0.1305622311444268,0.02392810463325605,0.10150577859720297,0.019564701192473336
0.0721552,0.019730820717204417,0.013435300123352412,0.06590934277775244,0.0056639420073022135,0.12961292003301716,0.023904016520136274,0.10097664249392636,0.019553720687690748
0.0726207,0.019620547690586815,0.01343357561535632,0.06522451443702852,0.005621791034974271,0.1286527667253787,0.023877267573703096,0.10043439099012676,0.01954058782557281
0.0730862,0.019511404787593164,0.013431084563188263,0.06453947747312147,0.005580095153568115,0.12768225374945444,0.023847888103545715,0.09987942380414427,0.019525323142915586
0.0735517,0.019403431338209702,0.013427839986182482,0.06385436472502246,0.005538868468365938,0.12670186367847994,0.02381590881951163,0.09931214058622842,0.019507947407253187
0.0740172,0.01929666646563206,0.013423854816919314,0.06316930876187327,0.005498124942608069,0.12571207899693984,0.023781360823465745,0.098732940810111,0.019488481610756423
0.0744828,0.019191149075298855,0.013419141896809025,0.06248444184770498,0.005457878393702578,0.1247133819672774,0.0237442756010031,0.09814222366538451,0.019466946964117417
0.0749483,0.01908691784401091,0.013413713971770429,0.06179989590646581,0.0054181424894878755,0.1237062544973822,0.023704685013117233,0.09754038795071103,0.019443364890421918
0.0754138,0.018984011209138184,0.013407583688006151,0.06111580248734822,0.00537893074454905,0.12269117800888214,0.023662621287826258,0.09692783196788596,0.01941775701901133
0.0758793,0.018882467357916342,0.013400763587876386,0.06043229273042446,0.005340256516588631,0.12166863330626462,0.023618117011758612,0.09630495341678043,0.019390145179336814
0.0763448,0.018782324216835036,0.01339326610587292,0.05974949733260008,0.005302133002852431,0.12063910044685258,0.023571205121700363,0.09567214929118521,0.01936055139480811
0.0768103,0.01868361944111977,0.013385103564695236,0.05906754651389392,0.005264573236611081,0.11960305861166032,0.023521918896105925,0.09502981577557809,0.019328997876640018
0.0772759,0.01858639040430929,0.013376288171430498,0.05838656998405314,0.005227590083697878,0.1185609859771539,0.02347029194657404,0.09437834814283655,0.019295507017699536
0.0777414,0.018490674187930378,0.013366832013839137,0.05770669690951118,0.005191196239103521,0.11751335958794094,0.0234163582092909,0.09371814065291649,0.01926010138635668
0.0782069,0.018396507571271967,0.013356747056747718,0.05702805588069673,0.005155404223628316,0.11646065523041409,0.02336015193644244,0.09304958645251754,0.01922280372034198
0.0786724,0.018303927021260324,0.013346045138550828,0.05635077487970072,0.005120226380592409,0.11540334730737112,0.02330170768759776,0.09237307747575413,0.019183636920613492
0.0791379,0.018212968682437245,0.013334737967823527,0.05567498124830848,0.00508567487260457,0.11434190871363535,0.023241060321065734,0.09168900434585187,0.019142624045236124
0.0796034,0.018123668367043058,0.01332283712004596,0.0550008016564037,0.0050517616783900664,0.11327681071269786,0.023178244985226776,0.09099775627788748,0.019099788303275834
0.080069,0.018036061545206268,0.013310354034441592,0.054328362070750535,0.005018498589678086,0.11220852281440306,0.02311329710984177,0.0902997209825901,0.019055153048711203
0.0805345,0.017950183335241673,0.013297300010930511,0.05365778772415988,0.004985897208149222,0.11113751265369833,0.02304625239734007,0.08959528457122164,0.019008741774364745
0.081,0.017866068494058814,0.013283686207199157,0.0529892030850454,0.004953968942443466,0.11006424587046768,0.022977146814088346,0.08888483146155306,0.018960578105856222
0.0814655,0.017783751407682562,0.01326952363588776,0.05232273182737485,0.0049227250052291515,0.10898918599046921,0.022906016581641982,0.08816874428495321,0.018910685795580043
0.081931,0.017703266081887645,0.013254823161896747,0.051658496801022004,0.004892176410333316,0.1079127943073959,0.02283289816798082,0.08744740379460571,0.018859088716708723
0.0823966,0.017624646132948868,0.013239595499813218,0.050996620002523835,0.004862333969933866,0.10683552976607837,0.022757828278730824,0.08672118877486922,0.018805810857224325
0.0828621,0.01754792477850886,0.01322385121145853,0.05033722254624792,0.004833208291813961,0.10575784884684841,0.02268084384837345,0.08599047595179586,0.01875087631397966
0.0833276,0.017473134828565055,0.013207600703557943,0.04968042463597438,0.004804809776678988,0.10468020545108174,0.02260198203144432,0.0852556399048212,0.018694309286790993
0.0837931,0.017400308676577596,0.013190854225533207,0.04902634553689682,0.004777148615536487,0.10360305078793768,0.02252128019372276,0.08451705297963959,0.018636134072563888
0.0842586,0.017329478290699866,0.013173621867418854,0.04837510354804615,0.004750234787139394,0.102526833262314,0.022438775903413758,0.08377508520227742,0.018576375059453823
0.0847241,0.017260675205133164,0.013155913557902927,0.047726815975141244,0.004724078055492909,0.10145199836403461,0.02235450692232371,0.08303010419437673,0.01851505672106308
0.0851897,0.017193930511607163,0.01313773906249275,0.04708159910387,0.004698687967425332,0.10037898855828724,0.022268511197031292,0.08228247508970109,0.018452203610675257
0.0856552,0.017129274850987496,0.01311910798180623,0.04643956817360446,0.004674073850223161,0.09930824317732882,0.022180826850054524,0.08153256045187549,0.018387840355528682
0.0861207,0.01706673840501184,0.013100029749989191,0.045800837351553284,0.004650244809330759,0.09824019831347545,0.022091492171015113,0.08078072019337215,0.018321991651129743
0.0865862,0.01700635088815574,0.013080513633259025,0.04516551970735469,0.004627209726114893,0.09717528671339395,0.022000545607800903,0.08002731149575341,0.01825468225560714
0.0870517,0.01694814153962921,0.013060568728574942,0.04453372718811287,0.004604977255694453,0.09611393767371211,0.021908025757727267,0.07927268873118283,0.018185936984107903
0.0875172,0.016892139115505137,0.013040203962434953,0.043905570593880706,0.0045835558248356586,0.09505657693796414,0.021813971358698222,0.0785172033852152,0.018115780703235863
0.0879828,0.016838371880980307,0.013019428089799667,0.04328115955359152,0.0045629536299130555,0.09400362659488837,0.0217184212803681,0.07776120398087583,0.01804423832553315
0.0884483,0.016786867602769748,0.01299824969314288,0.04266060250144233,0.004543178634936611,0.09295550497809349,0.02162141451530466,0.07700503600403925,0.017971334804005184
0.0889138,0.016737653541635047,0.012976677181628909,0.04204400665373085,0.00452423856964521,0.0919126265671103,0.02152299017015462,0.07624904183011713,0.017897095126689553
0.0893793,0.016690756445047205,0.012954718790416523,0.04143147798614856,0.004506140927666854,0.09087540188984518,0.02142318745681247,0.07549356065206426,0.017821544311269064
0.0898448,0.016646202539984462,0.012932382580089342,0.040823121211531824,0.004488892964745873,0.0898442374264517,0.021322045683593478,0.07473892840971194,0.017744707399729297
0.0903103,0.016604017525865582,0.012909676436212412,0.040219039758072894,0.004472501697037436,0.08881953551463621,0.021219604246411766,0.07398547772043684,0.0176666094530611
0.0907759,0.016564226567618984,0.012886608069014744,0.03961933574799264,0.004456973899469648,0.08780169425641328,0.021115902619964405,0.07323353781117377,0.01758727554600854
0.0912414,0.01652685428888818,0.012863185013197368,0.03902410997667634,0.004442316104173492,0.08679110742632622,0.021010980348922428,0.07248343445177946,0.01750673076186302
0.0917069,0.016491924765373884,0.012839414627866462,0.03843346189227397,0.004428534598980838,0.0857881643811479,0.020904877039129858,0.07173548988975485,0.017425000187304415
0.0921724,0.016459461518313304,0.012815304096591068,0.03784748957576603,0.004415635425990756,0.08479324997107696,0.020797632348811854,0.07099002278633221,0.01734210890729029
0.0926379,0.016429487508097102,0.012790860427584708,0.03726628972149564,0.0044036243802042935,0.08380674445244361,0.020689285979793103,0.07024734815393344,0.01725808199999427
0.0931034,0.01640202512802452,0.012766090454010238,0.03668995761816762,0.004392507008227891,0.08282902340193993,0.02057987766872756,0.06950777729500529,0.017172944531794715
0.093569,0.016377096198197348,0.01274100083440711,0.03611858713031467,0.00438228860704557,0.08186045763238836,0.020469447178340674,0.06877161774223658,0.01708672155231485
0.0940345,0.01635472195955334,0.012715598053240146,0.03555227068023082,0.004372974222860003,0.08090141311006252,0.02035803428868521,0.06803917320016284,0.016999438089515397
0.0945,0.016334923068039797,0.012689888421568839,0.03499109923037188,0.00436456865000254,0.07995225087357374,0.020245678788411912,0.06731074348816306,0.016911119144840676
0.0949655,0.016317719588928158,0.012663878077836034,0.03443516226622243,0.004357076429912255,0.07901332695433641,0.020132420466056344,0.0665866244848528,0.01682178968841904
0.095431,0.01630313099127044,0.012637572988774897,0.03388454777962879,0.004350501850184034,0.07808499229862471,0.020018299101343354,0.06586710807387768,0.016731474654318484
0.0958966,0.016291176142498524,0.01261097895043285,0.03333934225259723,0.004344848943685709,0.07716759269123276,0.019903354456510536,0.06515248209111069,0.016640198935858018
0.0963621,0.016281873303167282,0.012584101589311211,0.03279963064155651,0.004340121487744194,0.07626146868074939,0.01978762626765216,0.06444303027325625,0.016547987380975432
0.0968276,0.01627524012184276,0.012556946363619051,0.032265496362083715,0.004336323003400576,0.07536695550645849,0.019671154236084915,0.06373903220786344,0.016454864787651874
0.0972931,0.016271293630136695,0.012529518564639821,0.0317370212740921,0.004333456754734097,0.07448438302687474,0.01955397801973692,0.06304076328475056,0.016360855899393623
0.0977586,0.016270050237888623,0.012501823318209175,0.031214285667479736,0.004331525748254931,0.07361407564992441,0.01943613722456135,0.062348494648842775,0.016265985400771437
0.0982241,0.01627152572849715,0.01247386558630229,0.030697368248237534,0.0043305327323657035,0.0727563522647801,0.01931767139597604,0.06166249315442389,0.01617027791301789
0.0986897,0.016275735254401832,0.012445650168728973,0.030186346125015296,0.004330480196891651,0.07191152617535772,0.01919862001033028,0.060983021320803237,0.016073757989683125
0.0991552,0.016282693332717257,0.012417181704934669,0.029681294796144463,0.004331370372679405,0.07107990503548368,0.019079022466399986,0.060310337289398025,0.015976450112349664
0.0996207,0.016292413841020852,0.012388464675905401,0.029182288137116295,0.004333205231264351,0.0702617907857398,0.018958918076912204,0.05964469478223104,0.015878378686407086
0.1000862,0.01630491001329601,0.01235950340617459,0.028689398388514257,0.004335986484606559,0.06945747959199267,0.018838346060100035,0.05898634306184326,0.01577956803688744
0.1005517,0.016320194436032016,0.01233030206592957,0.02820269614439946,0.004339715584895273,0.06866726178561457,0.018717345531288898,0.05833552689262045,0.015680042404362382
0.1010172,0.016338279044482273,0.012300864673215553,0.02772225034114823,0.004344393724421954,0.06789142180540216,0.01859595549451511,0.05769248650353233,0.01557982594090305
0.1014828,0.01635917511908219,0.01227119509623459,0.027248128246740725,0.004350021835521869,0.06713023814119898,0.01847421483417768,0.05705745755228276,0.015478942706103505
0.1019483,0.016382893282028067,0.01224129705573711,0.026780395450499647,0.00435660059058417,0.06638398327922788,0.01835216230672417,0.056430671090868495,0.015377416663168641
0.1024138,0.01640944349401814,0.012211174127503431,0.026319115853278188,0.0043641304021304035,0.06565292364913858,0.0182298365323715,0.055812353532543976,0.01527527167506726
0.1028793,0.0164388350511569,0.012180829744912568,0.025864351658096106,0.004372611422961333,0.06493731957277571,0.018107275986862736,0.05520272662018907,0.015172531500750878
0.1033448,0.016471076582023614,0.012150267201595545,0.025416163361222918,0.004382043546371955,0.06423742521467234,0.01798451899326088,0.05460200739607609,0.01506921979143881
0.1038103,0.016506176044905927,0.012119489654170383,0.02497460974370696,0.004392426406434547,0.06355348853427331,0.017861603713781087,0.054010408173032286,0.014965360086969933
0.1042759,0.016544140725199153,0.012088500125055785,0.024539747863348876,0.004403759378349557,0.06288575123989298,0.017738568141662723,0.05342813650699327,0.01486097581222141
0.1047414,0.016584977232971924,0.012057301505360498,0.024111633047117883,0.004416041578864132,0.062234448744411135,0.017615450093082918,0.05285539517094253,0.014756090273594574
0.1052069,0.016628691500698612,0.012025896557845289,0.023690318884008934,0.0044292718667580675,0.06159981012271073,0.01749228719911317,0.052292382130231796,0.01465072665556804
0.1056724,0.016675288781158964,0.011994287919954424,0.023275857218338688,0.004443448843396908,0.06098205807086064,0.017369116897720735,0.05173929051927675,0.01454490801731807
0.1061379,0.016724773645505193,0.01196247810691356,0.022868298143478055,0.004458570853351939,0.06038140886704637,0.017245976425816417,0.05119630861962201,0.014438657289406054
0.1066034,0.016777149981496823,0.011930469514890938,0.02246768999601891,0.004474635985086784,0.05979807233425102,0.017122902811350413,0.05066361983936946,0.014331997270533045
0.107069,0.016832420991903463,0.01189826442421878,0.022074079350372457,0.004491642071710334,0.05923225180468876,0.016999932865457666,0.050141402693963756,0.01422495062436113
0.1075345,0.016890589193075692,0.01186586500267171,0.021687511013796634,0.0045095866917957165,0.05868414408599227,0.016877103174654226,0.049629830788328916,0.014117539876401481
0.108,0.016951656413684214,0.01183327330879901,0.021308028021849813,0.004528467170265031,0.058153939429155706,0.016754450093085863,0.04912907280034964,0.014009787410968783
0.1084655,0.017015623793627446,0.01180049129530742,0.020935671634268013,0.004548280579339554,0.05764182149823386,0.01663200973483034,0.04863929246569119,0.013901715468201816
0.108931,0.017082491783107744,0.011767520812491114,0.02057048133126286,0.004569023739555132,0.057147967341797924,0.016509817966254517,0.048160648563951435,0.013793346141149986
0.1093966,0.017152260141876503,0.011734363611705514,0.020212494810237486,0.004590693220842481,0.056672547366147824,0.01638791039842748,0.04769329490613871,0.013684701372925632
0.1098621,0.017224927938648438,0.01170102134888146,0.01986174798291746,0.004613285343672125,0.05621572531028062,0.016266322379590723,0.047237380323468844,0.013575802953921993
0.1103276,0.01730049355068538,0.01166749558807635,0.019518274972893865,0.004636796180263705,0.05577765822261391,0.01614508898768643,0.046793048657474655,0.01346667251909672
0.1107931,0.017378954663549946,0.011633787805058736,0.019182108113575663,0.004661221555859441,0.05535849643946294,0.0160242450229448,0.04636043875142085,0.0133573315453208
0.1112586,0.017460308271029464,0.011599899390923018,0.018853277946548334,0.004686557050061483,0.05495838356526966,0.01590382500053128,0.04593968444301735,0.013247801348792672
0.1117241,0.01754455067523055,0.011565831655730816,0.018531813220335973,0.004712797998232967,0.054577456454581286,0.01578386314325464,0.045530914558423764,0.013138103082517257
0.1121897,0.01763167748684478,0.0115315858321757,0.018217740889563874,0.004739939492962564,0.05421584519577584,0.015664393374336616,0.04513425290753778,0.013028257733849536
0.1126552,0.01772168362558577,0.011497163079267929,0.01791108611451866,0.004767976385592334,0.053873673096531814,0.015545449310244151,0.044749818280559794,0.012918286122102218
0.1131207,0.01781456332079799,0.011462564486035944,0.017611872261103126,0.004796903287808716,0.05355105667103867,0.01542706425358515,0.04437772444582609,0.012808208896216988
0.1135862,0.017910310112237687,0.011427791075241377,0.017320120901182796,0.004826714573296491,0.05324810562894475,0.015309271186068962,0.04401808014890235,0.012698046532498697
0.1140517,0.018008916851026048,0.011392843807104211,0.017035851813321422,0.004857404379455545,0.052964922866039134,0.015192102761532685,0.04367098911292922,0.012587819332411886
0.1145172,0.018110375700774832,0.01135772358303478,0.016759082983902412,0.004888966609180231,0.05270160445666376,0.01507559129903453,0.04333655004021108,0.012477547420438908
0.1149828,0.018214678138884492,0.011322431249369156,0.016489830608633432,0.004921394932701124,0.052458239647851956,0.014959768776015481,0.04301485661503909,0.012367250741998941
0.1154483,0.018321814958014725,0.011286967601104423,0.01622810909443126,0.004954682789488899,0.052234910855189665,0.014844666821530624,0.04270599750773947,0.012256949061427169
0.1159138,0.01843177626772725,0.011251333385630266,0.015973931061684144,0.004988823390220071,0.05203169366039553,0.014730316709551673,0.042410056379937514,0.012146661960013322
0.1163793,0.018544551496300472,0.01121552930645321,0.015727307346888895,0.005023809718804294,0.05184865681061592,0.014616749352342338,0.042127111891028406,0.012036408834098873
0.1168448,0.018660129392715594,0.011179556026909837,0.015488247005660078,0.005059634534472905,0.05168586221943123,0.014503995293908296,0.04185723770584565,0.011926208893231984
0.1173103,0.01877849802881361,0.011143414173865199,0.015256757316108763,0.005096290373928402,0.05154336496956952,0.014392084703523558,0.04160050250351796,0.011816081158379252
0.1177759,0.0188996448016225,0.01110710434139263,0.015032843782588437,0.0051337695535544885,0.05142121331732391,0.014281047369335017,0.04135696998750552,0.011706044460193337
0.1182414,0.019023556435853843,0.011070627094431096,0.014816510139805818,0.005172064171686314,0.051319448698669806,0.014170912692046936,0.04112669889680654,0.011596117437335348
0.1187069,0.01915021898656793,0.011033982972416085,0.014607758357294496,0.005211166110940497,0.05123810573707825,0.014061709678687235,0.04090974301832514,0.011486318534850933
0.1191724,0.019279617842006557,0.010997172492880066,0.01440658864424946,0.005251067040604486,0.051177212253021416,0.01395346693645735,0.04070615120039176,0.011376666002598996
0.1196379,0.01941173772659231,0.010960196155018309,0.014212999454720755,0.005291758419084766,0.051136789275166135,0.013846212666667468,0.04051596736742764,0.011267177893731932
0.1201034,0.019546562704093287,0.010923054443215917,0.014026987493164597,0.005333231496413369,0.051116851053251526,0.013739974658758985,0.04033923053574451,0.0111578720632263
0.120569,0.0196840761809519,0.010885747830531744,0.013848547720350464,0.005375477316812111,0.05111740507264626,0.01363478028441606,0.04017597483047095,0.011048766166462784
0.1210345,0.01982426090977644,0.010848276782134902,0.01367767335962262,0.005418486721313938,0.051138452070581236,0.013530656491768099,0.0400262295035965,0.010939877657854258
0.1215,0.019967098992993964,0.0108106417586894,0.013514355903514708,0.005462250350440733,0.05117998605405307,0.013427629799685106,0.03989001895312496,0.010831223789520731
0.1219655,0.020112571886663,0.010772843219682521,0.013358585120715987,0.005506758646936887,0.05124199431939385,0.013325726292167892,0.03976736274332792,0.010722821610009885
0.122431,0.020260660404444526,0.01073488162669254,0.013210349063387734,0.005552001858557941,0.05132445747350201,0.013224971612835283,0.03965827562608972,0.010614687963061833
0.1228966,0.02041134472172954,0.010696757446591357,0.013069634074828388,0.00559797004091355,0.0514273494567293,0.013125390959510546,0.03956276756333496,0.0105068394864167
0.1233621,0.020564604379921424,0.010658471154677716,0.012936424797485859,0.005644653060364028,0.05155063756741823,0.013027009078909347,0.03948084375052977,0.01039929261066361
0.1238276,0.020720418290871276,0.010620023237736842,0.012810704181315417,0.005692040596969706,0.05169428248808425,0.012929850261431569,0.03941250464124801,0.010292063558129625
0.1242931,0.020878764741464183,0.010581414197022531,0.012692453492481433,0.005740122147492304,0.05185823831323617,0.012833938336059348,0.039357745972794005,0.010185168341807285
0.1247586,0.021039621398354583,0.010542644551157979,0.012581652322401169,0.00578888702844751,0.05204245257882821,0.012739296665363607,0.03931655879287372,0.010078622764319433
0.1252241,0.02120296531284883,0.01050371483895192,0.012478278597128722,0.005838324379207965,0.05224686629333662,0.012645948140621243,0.03928892948730626,0.009972442416920217
0.1256897,0.021368772925933303,0.010464625622126977,0.012382308587077196,0.0058884231651557956,0.05247141397045318,0.0125539151770451,0.03927483980876805,0.009866642678531207
0.1261552,0.02153702007344645,0.010425377487957476,0.01229371691707704,0.005939172180883832,0.05271602366338775,0.012463219709128745,0.03927426690656188,0.009761238714811729
0.1266207,0.02170768199139352,0.01038597105181427,0.012212476576768475,0.005990560053444614,0.052980617000771675,0.01237388318610805,0.039287183357402874,0.00965624547726255
0.1270862,0.021880733321402685,0.010346406959614435,0.01213855893132588,0.006042575245646223,0.05326510922415349,0.012285926567541515,0.03931355719721345,0.009551677702362099
0.1275517,0.022056148116321568,0.010306685890173846,0.012071933732511936,0.006095206059393956,0.0535694092270785,0.012199370319011284,0.039353351953918994,0.00944754991073438
0.1280172,0.022233899845953156,0.0102668085574608,0.012012569130059287,0.006148440639076844,0.053893419595743286,0.012114234407946772,0.0394065266812357,0.00934387640634774
0.1284828,0.022413961402930234,0.010226775712748895,0.011960431683377463,0.006202266974997967,0.05423703665121643,0.01203053829957285,0.03947303599344208,0.009240671275743673
0.1289483,0.022596305108727253,0.010186588146667454,0.011915486373582727,0.006256672906847498,0.054600150493216405,0.011948300952984532,0.03955283010112527,0.009137948387294889
0.1294138,0.0227809027198086,0.010146246691147961,0.011877696615848466,0.006311646127217403,0.05498264504543787,0.011867540817350059,0.03964585484789318,0.009035721390491927
0.1298793,0.022967725433912074,0.010105752221265226,0.011847024272073667,0.006367174185156655,0.055384398102417215,0.011788275828244188,0.03975205174804361,0.008934003715257799
0.1303448,0.0231567438964663,0.01006510565697238,0.011823429663867006,0.006423244489765853,0.055805281377928354,0.011710523404113505,0.03987135802518115,0.008832808571290212
0.1308103,0.023347928207140694,0.010024307964729253,0.011806871585844047,0.006479844313830089,0.056245160554899594,0.011634300442875426,0.040003706651772546,0.008732148947431158
0.1312759,0.023541247926526558,0.009983360159024176,0.011797307319234961,0.006536960797488924,0.056703895336842586,0.011559623318652519,0.04014902638963108,0.008632037611063834
0.1317414,0.023736672082947774,0.009942263303789854,0.011794692645800197,0.006594580951942313,0.05718133950078405,0.011486507878643698,0.04030724183132029,0.008532487107537007
0.1322069,0.023934169179399334,0.009901018513714412,0.011798981862051326,0.006652691663191351,0.05767734095169136,0.011414969440133765,0.040478273442467134,0.008433509759617114
0.1326724,0.024133707200611972,0.009859626955449282,0.011810127793774328,0.006711279695812677,0.05819174177838286,0.011345022787642744,0.04066203760497459,0.008335117666968534
0.1331379,0.02433525362024084,0.009818089848715897,0.01182808181085239,0.006770331696765362,0.05872437831091399,0.011276682170216393,0.040858446661123274,0.008237322705662577
0.1336034,0.024538775408176183,0.009776408467313404,0.011852793842385257,0.006829834199229061,0.05927508117943009,0.011209961298859183,0.04106740895855143,0.008140136527715851
0.134069,0.024744239037973844,0.009734584140029666,0.011884212392102087,0.0068897736264722205,0.059843675374476976,0.011144873344111064,0.04128882889610253,0.008043570560658658
0.1345345,0.02495161049440333,0.00969261825145787,0.01192228455406461,0.006950136295749061,0.06042998030875999,0.011081430933769195,0.041522606970529286,0.007947636007134155
0.135,0.02516085528111114,0.009650512242721003,0.011966956028657449,0.0070109084222240835,0.06103380988034248,0.011019646150755829,0.04176863982404289,0.007852343844528943
0.1354655,0.025371938428396787,0.009608267612106381,0.01201817113886234,0.007072076122922844,0.0616549725372742,0.01095953053113338,0.04202682029269607,0.00775770482463575
0.135931,0.025584824501098887,0.009565885915612396,0.012075872846813078,0.007133625420707731,0.06229327134364012,0.01090109506226773,0.04229703745558859,0.007663729473348827
0.1363966,0.025799477606588465,0.009523368767409635,0.012140002770627855,0.00719554224827754,0.06294850404702004,0.010844350181140692,0.04257917668488421,0.007570428090392618
0.1368621,0.026015861402866422,0.00948071784021851,0.01221050120151575,0.007257812452189605,0.06362046314734907,0.010789305772812629,0.042873119696628076,0.007477810749084235
0.1373276,0.026233939106761906,0.009437934865605537,0.012287307121154074,0.007320421796903325,0.06430893596716876,0.010735971169036124,0.043178744602354255,0.007385887296130209
0.1377931,0.026453673502228114,0.009395021634200378,0.012370358219333216,0.007383355968843922,0.06501370472325864,0.010684355147021646,0.043495925961473225,0.007294667351457985
0.1382586,0.026675026948731844,0.009351979995835775,0.01245959091186572,0.007446600580485302,0.06573454659963714,0.010634465928356124,0.043824534834429565,0.007204160308082608
0.1387241,0.026897961389732956,0.009308811859612447,0.01255494035875623,0.007510141174450916,0.06647123382192116,0.010586311178075345,0.044164438836620384,0.007114375332009
0.1391897,0.027122438361249713,0.00926551919389104,0.012656340482628915,0.007573963227631588,0.0672235337330325,0.010539898003891022,0.04451550219306523,0.007025321362170226
0.1396552,0.027348419000506025,0.009222104026213143,0.012763723987408885,0.007638052155319275,0.06799120887023925,0.010495232955573404,0.044877585793818224,0.006937007110402168
0.1401207,0.02757586405465654,0.009178568443153437,0.012877022377254055,0.007702393315355774,0.0687740170435197,0.010452322024490247,0.04525054725011305,0.00684944106145495
0.1405862,0.02780473388958561,0.009134914590104981,0.012996165975733763,0.007766972012295386,0.06957171141523556,0.010411170643302919,0.045634240951231156,0.006762631473041527
0.1410517,0.02803498849877646,0.009091144670999644,0.013121083945250382,0.007831773501580609,0.07038404058110115,0.010371783685820347,0.0460285181220835,0.00667658637592377
0.1415172,0.028266587512247185,0.009047260947965631,0.013251704306700043,0.007896782993729843,0.07121074865243397,0.01033416546701146,0.04643322688149559,0.006591313574036469
0.1419828,0.028499490205550506,0.009003265740924084,0.013387953959368506,0.0079619856585361,0.07205157533967237,0.0102983197431767,0.046848212301185264,0.006506820644649588
0.1424483,0.028733655508834558,0.008959161427126659,0.013529758701058044,0.008027366629275666,0.07290625603714466,0.010264249712279115,0.047273316465422474,0.006423114938569145
0.1429138,0.028969042015962395,0.008914950440635967,0.013677043248441174,0.008092911006925628,0.07377452190907419,0.010231958014435431,0.04770837853136018,0.006340203580377018
0.1433793,0.02920560799368808,0.008870635271750714,0.013829731257636976,0.008158603864389137,0.07465609997680389,0.010201446732567378,0.04815323479002503,0.006258093468709993
0.1438448,0.029443311390887482,0.008826218466377397,0.013987745345005654,0.008224430250727251,0.07555071320722412,0.010172717393213586,0.04860771872795632,0.006176791276578287
0.1443103,0.02968210984784175,0.00878170262535036,0.01415100710815698,0.008290375195396127,0.07645808060238618,0.01014577096750216,0.04907166108948173,0.006096303451723776
0.1447759,0.02992196070557163,0.008737090403701993,0.014319437147168303,0.008356423712488317,0.0773779172902844,0.010120607872284084,0.04954488993961774,0.006016636217018098
0.1452414,0.03016282101522044,0.008692384509884816,0.01449295508600778,0.00842256080497684,0.07830993461678841,0.01009722797142752,0.0500272307275826,0.005937795570900796
0.1457069,0.03040464754748362,0.008647587704947193,0.01467147959415847,0.00848877146896071,0.07925384023870692,0.010075630577273044,0.05051850635090944,0.005859787287857636
0.1461724,0.03064739680208267,0.008602702801664327,0.014854928408438965,0.008555040697910543,0.08020933821796361,0.01005581445224986,0.051018537220146855,0.005782616918939172
0.1466379,0.030891025017281058,0.008557732663626168,0.015043218355016142,0.008621353486912816,0.08117612911686516,0.010037777810653027,0.051527141324134496,0.005706289792319661
0.1471034,0.031135488179439702,0.008512680204283866,0.01523626537160556,0.00868769483691133,0.08215391009444098,0.010021518320581653,0.05204413429584092,0.005630811013896344
0.147569,0.03138074203260948,0.008467548385956382,0.01543398452985494,0.008754049758944425,0.08314237500383358,0.01000703310603804,0.05256932947875093,0.005556185467929122
0.1480345,0.03162674208815804,0.008422340218798926,0.0156362900579061,0.008820403278376361,0.08414121449071744,0.009994318749187655,0.05310253799378929,0.005482417817720621
0.1485,0.03187344363442833,0.00837705875973492,0.015843095363130656,0.008886740439121297,0.08515011609272445,0.00998337129277981,0.05364356880676738,0.005409512506336613
0.1489655,0.03212080174642617,0.008331707111353276,0.016054313055034745,0.0089530463078582,0.08616876433985209,0.009974186242728824,0.05419222879633895,0.0053374737573667706
0.149431,0.032368771295534615,0.008286288420772772,0.016269854968327987,0.009019305978234941,0.08719684085583097,0.009966758570855465,0.05474832282245065,0.005266305575725691
0.1498966,0.03261730695925324,0.008240805878475393,0.0164896321861519,0.009085504575059833,0.08823402446042702,0.009961082717788408,0.05531165379527272,0.00519601174849411
0.1503621,0.0328663632309611,0.008195262717110505,0.016713555063463108,0.009151627258478743,0.08927999127265267,0.009957152596025406,0.05588202274459474,0.005126595845800186
0.1508276,0.03311589442970286,0.008149662210271729,0.01694153325056662,0.009217659228135902,0.09033441481486133,0.009954961593153856,0.056459228889671066,0.005058061221740709
0.1512931,0.033365854709997984,0.008104007671248433,0.01717347571679468,0.009283585727316532,0.09139696611769857,0.0099545025752304,0.057043069709500016,0.0049904110153421105
0.1517586,0.03361619807167361,0.00805830245175368,0.01740929077432676,0.009349392047069341,0.09246731382588204,0.009955767890319184,0.05763334101352081,0.004923648151561131
0.1522241,0.03386687836972166,0.00801254994063048,0.01764888610214657,0.00941506353030707,0.09354512430478207,0.009958749372188252,0.05822983701271162,0.004857775342325011
0.1526897,0.034117849324180896,0.007966753562538214,0.017892168770131955,0.009480585575883334,0.09463006174777369,0.009963438344163605,0.05883235039107186,0.004792795087611078
0.1531552,0.034369064530044506,0.007920916776620966,0.018139045263273767,0.009545943642644163,0.09572178828433053,0.0099698256231403,0.05944067237747104,0.004728709676565559
0.1536207,0.034620477467193704,0.00787504307515958,0.018389421506020003,0.00961112325345278,0.09681996408882962,0.009977901523749916,0.060054592817846586,0.0046655211886614525
0.1540862,0.03487204151035788,0.007829135982209143,0.018643202886741376,0.009676109999186302,0.09792424749003581,0.009987655862683643,0.060673900247732324,0.0046032314948952525
0.1545517,0.0351237099391016,0.007783199052223569,0.018900294282314684,0.009740889542703145,0.09903429508123371,0.009999077963170152,0.0612983819650993,0.004541842259022286
0.1550172,0.035375435947838825,0.007737235868668916,0.019160600082820247,0.009805447622780064,0.10014976183097431,0.010012156659607325,0.06192782410349037,0.004481354938830379
0.1554828,0.03562717265587443,0.007691250042626976,0.019424024216349717,0.009869770058017717,0.10127030119440292,0.010026880302346906,0.0625620117054297,0.004421770787451555
0.1559483,0.03587887311747295,0.007645245211390629,0.019690470173920484,0.009933842750713805,0.1023955652251344,0.010043236762630957,0.06320072879608811,0.00436309085471141
0.1564138,0.03613049033195444,0.007599225037052385,0.01995984103449289,0.009997651690702738,0.10352520468764159,0.01006121343767905,0.06384375845718486,0.004305315988515792
0.1568793,0.036381977253817324,0.007553193205087486,0.020232039490086406,0.010061182959160876,0.10465886917012171,0.010080797255924989,0.06449088290110618,0.004248446836274361
0.1573448,0.036633286802887965,0.0075071534229328545,0.020506967870990846,0.010124422732376341,0.10579620719780616,0.01010197468240179,0.06514188354522012,0.004192483846360588
0.1578103,0.036884371874496995,0.007461109418563166,0.020784528171068642,0.010187357285482371,0.10693686634667808,0.010124731724273604,0.06579654108636723,0.004137427269607719
0.1582759,0.03713518534968259,0.007415064939065238,0.02106462207314411,0.010249972996153142,0.1080804933575622,0.010149053936513157,0.06645463557550585,0.004083277160840193
0.1587414,0.03738568010542082,0.00736902374921187,0.02134715097447554,0.010312256348260943,0.10922673425055107,0.010174926427723222,0.06711594649249042,0.004030033380440017
0.1592069,0.03763580902488337,0.007322989630036237,0.0216320160123058,0.010374193935493565,0.11037523443973121,0.010202333866100552,0.06778025282096078,0.003977695595947571
0.1596724,0.037885525007722985,0.007276966377407865,0.021919118089487,0.0104357724649307,0.11152563884817278,0.010231260485540615,0.06844733312331963,0.0039262632836963175
0.1601379,0.038134780980386855,0.007230957800611193,0.022208357900174627,0.010496978760578151,0.11267759202314605,0.010261690091881409,0.06911696561577511,0.003875735730480873
0.1606034,0.03838352990645809,0.007184967720927642,0.02249963595558638,0.010557799766858651,0.1138307382515273,0.01029360606928455,0.06978892824342463,0.003826112035257889
0.161069,0.03863172479702519,0.0071389999702220945,0.022792852609820967,0.0106182225520581,0.11498472167535653,0.010326991386751786,0.07046299875535561,0.003777391110879168
0.1615345,0.03887931872107936,0.007093058389534692,0.023087908085731815,0.010678234311726096,0.11613918640750891,0.010361828604775004,0.07113895477973829,0.003729571685856419
0.162,0.03912626481593903,0.007047146827678782,0.023384702500850642,0.010737822372029613,0.11729377664744116,0.010398099882117755,0.07181657389888499,0.0036826523061570266
0.1624655,0.03937251629770096,0.007001269139845845,0.023683135893355644,0.010796974193058709,0.11844813679697425,0.010435786982726212,0.07249563372425014,0.00363663133703019
0.162931,0.03961802647171696,0.006955429186218248,0.023983108248078925,0.010855677372083088,0.11960191157607249,0.010474871282767459,0.0731759119713443,0.0035915069648627704
0.1633966,0.03986274874309512,0.006909630830590642,0.024284519522547673,0.010913919646758313,0.12075474613857884,0.010515333777792858,0.07385718653453548,0.0035472771990641486
0.1638621,0.04010663662722396,0.006863877939000827,0.024587269673053382,0.010971688898280504,0.12190628618786567,0.010557155090024212,0.07453923556171015,0.003503939873979413
0.1643276,0.04034964376031805,0.006818174378370897,0.024891258680743437,0.011028973154488374,0.12305617809235911,0.010600315475760342,0.07522183752876664,0.0034614926508301637
0.1647931,0.040591723909983043,0.006772524015159461,0.02519638657772927,0.011085760592911553,0.12420406900089415,0.010644794832901566,0.07590477131391249,0.003419933019682212
0.1652586,0.04083283098579843,0.006726930714025714,0.025502553473204997,0.011142039543764283,0.1253496069578573,0.010690572708589596,0.07658781627173737,0.003379258301439435
0.1657241,0.04107291904991575,0.006681398336506117,0.02580965957957056,0.011197798492883743,0.1264924410180721,0.010737628306960135,0.077270752307033,0.0033394656498630386
0.1661897,0.04131194232767003,0.006635930739704407,0.02611760523855299,0.011253026084612426,0.12763222136138216,0.0107859404970055,0.07795335994833079,0.00330055205361547
0.1666552,0.041549855218202196,0.0065905317749957145,0.026426290947319468,0.011307711124624148,0.12876859940688531,0.010835487820544443,0.07863542042112828,0.0032625143383282237
0.1671207,0.04178661230508989,0.006545205286745474,0.026735617384575593,0.011361842582693309,0.1299012279267728,0.0108862485002963,0.07931671572077488,0.003225349168692762
0.1675862,0.0420221683669841,0.006499955111043841,0.027045485436641953,0.011415409595407117,0.13102976115972612,0.010938200448056563,0.0799970286849879,0.003189053050573803
0.1680517,0.042256478388249266,0.006454785074456311,0.02735579622350212,0.011468401468820562,0.13215385492382428,0.010991321272970887,0.08067614306596965,0.0031536223331442128
0.1685172,0.04248949756960447,0.006409698992791193,0.02766645112481483,0.0115208076810539,0.13327316672891404,0.011045588289904637,0.08135384360209662,0.0031190532110407557
0.1689828,0.04272118133876367,0.006364700669884556,0.027977351805882893,0.01157261788483259,0.13438735588839557,0.011100978527904969,0.0820299160891519,0.0030853417265399407
0.1694483,0.042951485361073176,0.0063197938964032405,0.02828840024357128,0.011623821909969502,0.13549608363037624,0.011157468738752528,0.08270414745107227,0.00305248377175322
0.1699138,0.043180365550144685,0.006274982448666509,0.02859949875216648,0.011674409765789416,0.1365990132081444,0.011215035405599797,0.08337632581018124,0.0030204750908407883
0.1703793,0.04340777807848222,0.006230270087486874,0.028910550009169148,0.011724371643495763,0.13769581000991504,0.01127365475169316,0.08404624055688004,0.002989311282243223
0.1708448,0.043633679388101504,0.006185660557030642,0.02922145708101182,0.011773697918479605,0.138786141667798,0.011333302749175732,0.08471368241876819,0.0029589878009302064
0.1713103,0.04385802620113996,0.006141157583698635,0.0295321234486931,0.011822379152570828,0.13986967816593998,0.011393955127967977,0.08537844352916561,0.002929499960665603
0.1717759,0.0440807755304556,0.006096764875027568,0.029842453033319626,0.011870406096231422,0.14094609194778923,0.011455587384723062,0.08604031749500818,0.002900842936288177
0.1722414,0.04430188469021294,0.006052486118612493,0.03015235022154693,0.011917769690690647,0.14201505802243403,0.011518174791853889,0.08669909946408852,0.0028730117660072823
0.1727069,0.04452131130645387,0.006008324981050686,0.03046171989091009,0.011964461070021868,0.14307625406996405,0.011581692406628602,0.08735458619161404,0.0028460013537128822
0.1731724,0.044739013327650984,0.005964285106907336,0.030770467435034872,0.01201047156316068,0.1441293605458058,0.01164611508033132,0.08800657610605424,0.0028198064712992832
0.1736379,0.044954949035241,0.005920370117703321,0.03107849878871995,0.012055792695863972,0.145174060783982,0.011711417467484763,0.08865486937424882,0.002794421761001978
0.1741034,0.0451690770541353,0.005876583610925324,0.03138572045288057,0.012100416192609454,0.14621004109924604,0.011777574035131343,0.08929926796574883,0.0027698417377469923
0.174569,0.04538135636320437,0.005832929159058478,0.031692039519343906,0.012144333978435083,0.14723699088804248,0.01184455907216926,0.08993957571636256,0.002746060791512146
0.1750345,0.0455917463057325,0.00578941030864171,0.03199736369548615,0.012187538180717883,0.14825460272824462,0.011912346698740013,0.0905755983908781,0.002723073189699604
0.1755,0.045800206599838925,0.005746030579345861,0.0323016013287013,0.012230021130891514,0.14926257247762006,0.011980910875663758,0.09120714374493372,0.0027008730795191178
0.1759655,0.04600669734886096,0.005702793463074658,0.03260466143069135,0.012271775366101977,0.15026059937097525,0.012050225413918843,0.09183402158600767,0.002679454490381337
0.176431,0.04621117905169458,0.005659702423088562,0.03290645370156745,0.012312793630800853,0.15124838611592994,0.012120263984161852,0.09245604383349817,0.0026588113363005725
0.1768966,0.04641361261308766,0.005616760893151485,0.03320688855375173,0.012353068878275386,0.15222563898727265,0.012191000126284568,0.09307302457786394,0.002638937418306404
0.1773621,0.04661395935388084,0.005573972276700348,0.033505877135668924,0.012392594272114756,0.1531920679198471,0.012262407259004212,0.09368478013879579,0.002619826426863508
0.1778276,0.046812181021190814,0.005531339946037485,0.03380333135521721,0.012431363187611798,0.1541473865999199,0.012334458689483354,0.09429112912238878,0.0026014719442990822
0.1782931,0.04700823979853101,0.005488867241545814,0.0340991639030074,0.012469369213099522,0.15509131255497854,0.012407127622975963,0.0948918924772848,0.0025838674472372465
0.1787586,0.04720209831586444,0.005446557470926728,0.03439328827535975,0.01250660615122174,0.15602356724190886,0.012480387172496105,0.0954868935497548,0.0025670063090398104
0.1792241,0.047393719659583555,0.0054044139084606264,0.03468561879704762,0.012543068020137205,0.1569438761334991,0.012554210368505798,0.09607595813769006,0.002550881802252785
0.1796897,0.047583067382411845,0.005362439794289992,0.034976070643777196,0.012578749054656644,0.1578519688032181,0.012628570168618665,0.09665891454347075,0.0025354871010580472
0.1801552,0.04777010551322141,0.005320638333724834,0.03526455986439283,0.012613643707312177,0.15874757900821332,0.012703439467315947,0.09723559362568032,0.0025208152837295564
0.1806207,0.04795479856676105,0.005279012696570372,0.03555100340279741,0.012647746649358691,0.1596304447704761,0.012778791105671546,0.09780582884963306,0.002506859335093548
0.1810862,0.04813711155328866,0.005237566016476732,0.03583531911957769,0.012681052771706742,0.1605003084561227,0.012854597881082619,0.09836945633668157,0.0024936121489921264
0.1815517,0.048317009988101664,0.005196301390310443,0.036117425813324375,0.012713557185786636,0.1613569168527424,0.012930832557002305,0.09892631491227104,0.0024810665307496813
0.1820172,0.048494459900958686,0.005155221877547483,0.03639724324163738,0.012745255224343487,0.16220002124477065,0.013007467872671019,0.09947624615270569,0.002469215199641546
0.1824828,0.04866942784538577,0.005114330499687613,0.03667469214180692,0.012776142442163033,0.16302937748685098,0.013084476552842707,0.10001909443059274,0.0024580507913642942
0.1829483,0.04884188090785989,0.005073630239689716,0.03694969425116145,0.012806214616728248,0.16384474607515664,0.013161831317502416,0.10055470695892946,0.00244756586050706
0.1834138,0.049011786716862085,0.005033124041427903,0.037222172327074074,0.01283546774880684,0.16464589221664863,0.013239504891571463,0.10108293383379895,0.0024377528830232544
0.1838793,0.049179113451792496,0.004992814809168072,0.03749205016661948,0.012863898062969814,0.16543258589625154,0.013317470014596405,0.10160362807564215,0.002428604258702027
0.1843448,0.04934382985173882,0.00495270540706465,0.03775925262587392,0.01289150200804152,0.16620460194193157,0.013395699450418014,0.10211664566907452,0.0024201123136388214
0.1848103,0.04950590522408958,0.004912798658677206,0.038023705638851275,0.012918276257481638,0.16696172008766358,0.013474165996816398,0.1026218456012185,0.0024122693027043497
0.1852759,0.04966530945298332,0.004873097346506594,0.03828533623606871,0.012944217709699715,0.16770372503427455,0.013552842495128396,0.10311908989852503,0.0024050674120113013
0.1857414,0.04982201300758446,0.004833604211550281,0.03854407256273575,0.012969323488302945,0.16843040650815147,0.013631701839833275,0.10360824366206058,0.0023984987613780992
0.1862069,0.049975986950176826,0.0047943219528764755,0.038799843896561055,0.012993590942277955,0.1691415593178008,0.013710716988102842,0.10408917510123883,0.0023925554067889964
0.1866724,0.0501272029440655,0.004755253227216656,0.03905258066517117,0.013017017646107413,0.16983698340824613,0.01378986096931197,0.10456175556597994,0.0023872293428498013
0.1871379,0.05027563326127802,0.004716400648576057,0.03930221446313576,0.013039601399822253,0.17051648391324992,0.013869106894505732,0.10502585957728329,0.0023825125052385353
0.1876034,0.05042125079005573,0.004677766787861639,0.03954867806859384,0.013061340228990326,0.17117987120534492,0.013948427965819292,0.10548136485620337,0.0023783967731503177
0.188069,0.05056402904212679,0.004639354172527029,0.03979190545947528,0.013082232384642256,0.17182696094366068,0.014027797485846876,0.10592815235122154,0.0023748739717358086
0.1885345,0.050703942159752345,0.00460116528623391,0.04003183182931162,0.013102276343135242,0.17245757411953092,0.014107188866956279,0.10636610626400997,0.0023719358745325513
0.189,0.050840964922537826,0.004563202568529279,0.04026839360263029,0.01312147080595551,0.17307153709986936,0.014186575640545335,0.10679511407358606,0.0023695742058885945
0.1894655,0.05097507275400238,0.00452546841453806,0.040501528449925696,0.013139814699460085,0.17366868166830227,0.014265931466236925,0.107215066558859,0.0023677806433777906
0.189931,0.05110624172789973,0.004487965174670489,0.040731175302200745,0.013157307174558425,0.174248845064047,0.014345230141009054,0.10762585781957056,0.0023665468202062113
0.1903966,0.05123444857428521,0.004450695154343778,0.04095727436507209,0.01317394760633451,0.17481187001852846,0.014424445608256552,0.10802738529563474,0.002365864327609131
0.1908621,0.051359670685324266,0.0044136606137175835,0.04117976713243219,0.01318973559360978,0.17535760478972567,0.014503551966780874,0.10841954978487994,0.0023657247172380515
0.1913276,0.05148188612083916,0.0043768637674428765,0.04139859639966133,0.01320467095844739,0.1758859031942429,0.014582523479704469,0.10880225545919825,0.002366119503537248
0.1917931,0.0516010736135913,0.004340306784423866,0.04161370627638265,0.013218753745598156,0.17639662463710135,0.014661334583306101,0.10917540987910536,0.0023670401661093085
0.1922586,0.05171721257429752,0.00430399178759266,0.041825042198753014,0.013231984221888538,0.1768896341392481,0.014739959895773388,0.10953892400671437,0.002368478152069174
0.1927241,0.051830283096379895,0.0042679208536964474,0.04203255094128202,0.013244362875550955,0.17736480236278074,0.014818374225868776,0.10989271221712633,0.002370424878386175
0.1931897,0.05194026596044902,0.004232096013096975,0.04223618062817167,0.01325589041549668,0.17782200563388664,0.014896552581505082,0.11023669230824051,0.002372871734213604
0.1936552,0.052047142638521164,0.00419651924958219,0.042435880744168396,0.013266567770531536,0.17826112596349827,0.014974470178226772,0.11057078550898755,0.0023758100832053665
0.1941207,0.0521508952979702,0.0041611925001899044,0.042631602144919116,0.01327639608851462,0.1786820510656664,0.015052102447592936,0.11089491648598933,0.0023792312658192706
0.1945862,0.05225150680521499,0.004126117655043421,0.04282329706682299,0.013285376735460234,0.17908467437365527,0.015129425045458065,0.11120901334864987,0.0023831266016065113
0.1950517,0.05234896072914279,0.004091296557199058,0.04301091913637017,0.013293511294583286,0.17946889505376526,0.015206413860146538,0.11151300765268317,0.0023874873914869078
0.1955172,0.052443241344268775,0.00405673100250558,0.04319442337895913,0.013300801565288395,0.17983461801689138,0.01528304502051679,0.11180683440208526,0.002392304920009444
0.1959828,0.05253433363363169,0.004022422739475551,0.04337376622718439,0.013307249562102977,0.18018175392782762,0.015359294903910943,0.11209043204955957,0.0023975704575976637
0.1964483,0.052622223291425234,0.003988373469168652,0.04354890552858671,0.013312857513554644,0.18051021921232965,0.01543514014398565,0.11236374249540632,0.0024032752627794643
0.1969138,0.05270689672536442,0.003954584845087002,0.043719800552858665,0.013317627860993298,0.18081993606195168,0.015510557638419851,0.11262671108488909,0.002409410584400864
0.1973793,0.05278834105878578,0.003921058473082536,0.04388641199849915,0.01332156325735833,0.18111083243667464,0.015585524556494998,0.1128792866040941,0.0024159676638232895
0.1978448,0.052866544132480243,0.0038877959112764687,0.044048701998911324,0.013324666565891412,0.18138284206534547,0.015660018346543195,0.11312142127430012,0.002422937737103971
0.1983103,0.052941494506257,0.0038547986699908905,0.044206634127939425,0.013326940858795482,0.18163590444394928,0.01573401674325874,0.11335307074487881,0.0024303120371590003
0.1987759,0.053013181460236584,0.00382206821169252,0.04436017340484101,0.01332838941584064,0.18186996483173704,0.015807497774868375,0.11357419408474823,0.0024380817959086154
0.1992414,0.053081594995870826,0.0037896059509486546,0.04450928629869238,0.013329015722917692,0.18208497424523143,0.015880439770155633,0.11378475377240381,0.002446238246404273
0.1997069,0.053146725836687427,0.003757413254395342,0.04465394073222579,0.01332882347054026,0.1822808894501338,0.01595282136533463,0.11398471568455298,0.0024547726249370574
0.2001724,0.053208565428756474,0.0037254914407177805,0.04479410608509815,0.013327816552296406,0.18245767295115337,0.016024621510768625,0.11417404908338122,0.0024636761731269877
0.2006379,0.05326710594087609,0.0036938417806429633,0.044929753196591954,0.01332599906325087,0.18261529297977996,0.016095819477528826,0.11435272660247893,0.0024729401399927985
0.2011034,0.05332234026447436,0.003662465496944543,0.04506085436775004,0.013323375298298926,0.18275372348001842,0.016166394863788968,0.11452072423146019,0.0024825557840017845
0.201569,0.05337426201322506,0.0036313637644598807,0.04518738336294706,0.013319949750472956,0.18287294409210383,0.016236327601051436,0.1146780212993053,0.0024925143750993504
0.2020345,0.05342286552237433,0.0036005377101192173,0.04530931541090075,0.013315727109202835,0.1829729401342147,0.016305597960200962,0.11482460045646065,0.0025028071967179576
0.2025,0.05346814584777661,0.0035699884129868726,0.045426627205127246,0.013310712258531124,0.18305370258220016,0.01637418655738228,0.11496044765572962,0.002513425547765242
0.2029655,0.05351009876463817,0.003539716904314354,0.045539296903844936,0.013304910275283962,0.1831152280473385,0.016442074359698515,0.11508555213198844,0.0025243607445911455
0.203431,0.05354872076596806,0.0035097241676052392,0.04564730412933209,0.013298326427198548,0.1831575187521427,0.016509242690727483,0.11519990638076097,0.002535604122933969
0.2038966,0.0535840090607364,0.0034800111386916743,0.045750629966743624,0.013290966171007985,0.1831805825042303,0.01657567323585348,0.11530350613568596,0.0025471470398453016
0.2043621,0.05361596157174142,0.0034505787058223252,0.04584925696239265,0.013282835150484127,0.18318443266827494,0.01664134804741243,0.11539635034490942,0.0025589808755938077
0.2048276,0.0536445769331871,0.0034214277097616114,0.04594316912150258,0.013273939194439062,0.18316908813605673,0.01670624954964851,0.11547844114643391,0.0025710970355478546
0.2052931,0.05366985448797433,0.00339255894390007,0.04603235190543563,0.013264284314685739,0.18313457329463034,0.016770360543480783,0.11554978384245664,0.002583486952036972
0.2057586,0.0536917942847093,0.003363973154375714,0.046116792228403446,0.013253876703958209,0.18308091799262952,0.016833664211078347,0.11561038687272682,0.002596142086192121
0.2062241,0.05371039707443356,0.0033356710402062577,0.04619647845366561,0.01324272273379184,0.18300815750472826,0.01689614412024299,0.11566026178695314,0.0026090539297647314
0.2066897,0.05372566430708098,0.0033076532534321223,0.04627140038922133,0.013230828952363828,0.18291633249427902,0.016957784228598408,0.11569942321629177,0.002622214006924457
0.2071552,0.053737598127667575,0.003279920399270161,0.04634154928299948,0.013218202082294211,0.18280548897414942,0.017018568887585284,0.11572788884394498,0.0026356138760355923
0.2076207,0.053746201372220526,0.0032524730362780397,0.046406917817552094,0.01320484901840753,0.18267567826577952,0.017078482846261747,0.11574567937490064,0.0026492451314120914
0.2080862,0.05375147756345348,0.0032253116765292565,0.04646750010425574,0.013190776825455247,0.18252695695648274,0.01713751125490883,0.11575281850484252,0.002663099405051144
0.2085517,0.05375343090619525,0.0031984367857987956,0.046523291677025354,0.013175992735798872,0.18235938685501363,0.017195639668440735,0.11574933288826192,0.0026771683683452837
0.2090172,0.05375206628257936,0.003171848783759417,0.046574289485544935,0.013160504147053628,0.1821730349454276,0.017252854049619723,0.11573525210580099,0.0026914437337730406
0.2094828,0.053747389247001905,0.0031455480441886165,0.046620491888019484,0.013144318619692471,0.18196797333925896,0.01730914077207554,0.11571060863085834,0.0027059172565681603
0.2099483,0.05373940602085524,0.003119534895186297,0.046661898643452535,0.013127443874610166,0.18174427922604405,0.01736448662312917,0.11567543779548758,0.0027205807363674425
0.2104138,0.053728123487044546,0.003093809619403155,0.046698510903453755,0.013109887790647009,0.1815020348222178,0.017418878806420762,0.11562977775561965,0.0027354260188372503
0.2108793,0.05371354918429467,0.0030683724542798067,0.046730331203581256,0.013091658402071807,0.18124132731841333,0.017472304944341318,0.11557366945563922,0.0027504449972787603
0.2113448,0.05369569130125386,0.0030432235922966287,0.04675736345422325,0.013072763896023657,0.18096224882519574,0.01752475308026779,0.11550715659234528,0.0027656296142120227
0.2118103,0.05367455867040132,0.003018363181234298,0.04677961293102424,0.013053212609912119,0.18066489631726187,0.01757621168060105,0.11543028557832513,0.0027809718629389
0.2122759,0.05365016076176506,0.002993791324444975,0.04679708626486053,0.01303301302877541,0.18034937157613912,0.017626669636606227,0.11534310550477105,0.00279646378908496
0.2127414,0.05362250767645638,0.0029695080811340713,0.04680979143137068,0.013012173782596196,0.18001578113141825,0.01767611626605488,0.11524566810376798,0.002812097492120385
0.2132069,0.05359161014002732,0.002945513466652538,0.046817737740046196,0.012990703643574606,0.17966423620055474,0.017724541314668472,0.11513802771008029,0.0028278651268599576
0.2136724,0.05355747949565708,0.002921807452799621,0.04682093582288841,0.012968611523358032,0.1792948526272756,0.017771934957362717,0.11502024122246483,0.002843758904942168
0.2141379,0.053520127697172744,0.0028983899681360122,0.04681939762263744,0.012945906470227277,0.1789077508186278,0.0178182877992926,0.11489236806453684,0.0028597710962874733
0.2146034,0.053479567301909836,0.002875260898307366,0.04681313638057964,0.012922597666238617,0.17850305568070665,0.017863590876697772,0.11475447014521467,0.002875894030535706
0.215069,0.05343581146341766,0.00285242008637813,0.04680216662394049,0.012898694424321396,0.17808089655310091,0.017907835657548436,0.1146066118187682,0.0028921200984626354
0.2155345,0.053388873924013876,0.0028298673331756557,0.04678650415287019,0.01287420618533092,0.17764140714209276,0.017951014041991932,0.1144488598444951,0.0029084417533756643
0.216,0.053338769007193115,0.0028076023976445624,0.04676616602702992,0.012849142515056438,0.17718472545265002,0.017993118362600428,0.11428128334604827,0.0029248515124886115
0.2164655,0.05328551160989396,0.0027856249972113075,0.04674117055178712,0.012823513101184132,0.1767109937192473,0.01803414138442045,0.11410395377043724,0.002941341958275531
0.216931,0.05322911719462885,0.0027639348081589183,0.046711537264028664,0.012797327750215142,0.17622035833555189,0.01807407630482507,0.11391694484672539,0.0029579057398034913
0.2173966,0.05316960178148119,0.0027425314660118314,0.04667728691760137,0.012770596384338646,0.17571296978300982,0.01811291675316994,0.11372033254444486,0.00297453557404425
0.2178621,0.0531069819399742,0.0027214145659307603,0.046638441468389795,0.012743329038260158,0.17518898255836718,0.0181506567902546,0.11351419503174955,0.002991224247164757
0.2183276,0.05304127478081603,0.002700583663117512,0.04659502405904178,0.012715535855985208,0.1746485551001606,0.018187290907590678,0.11329861263332758,0.0030079646157964196
0.2187931,0.05297249794752576,0.002680038273229655,0.04654705900335255,0.012687227087558666,0.17409184971421274,0.01822281402647892,0.11307366778809282,0.003024749608283079
0.2192586,0.05290066960794481,0.0026597778728049337,0.04649457177031896,0.012658413085759991,0.17351903249816755,0.018257221496897232,0.11283944500667546,0.003041572225907665
0.2197241,0.05282580844563821,0.002639801899695326,0.04643758896787554,0.01262910430275486,0.17293027326510232,0.01829050909620221,0.11259603082873074,0.0030584255440974967
0.2201897,0.052747933651190425,0.0026201097535106252,0.046376138326324486,0.012599311286703658,0.1723257454662533,0.01832267302764675,0.11234351378008374,0.0030753027136082045
0.2206552,0.05266706491340039,0.0026007007960714115,0.04631024868147204,0.012569044678327456,0.17170562611289347,0.018353709918716554,0.11208198432972807,0.003092196961686241
0.2211207,0.05258322241038024,0.002581574351871262,0.04623994995748397,0.012538315207432258,0.1710700956974022,0.018383616819288465,0.11181153484669473,0.0031091015932099447
0.2215862,0.052496426800562566,0.002562729708548037,0.04616527314947311,0.012507133689392356,0.1704193381135666,0.018412391199613694,0.11153225955680719,0.0031260099918091065
0.2220517,0.05240669921362086,0.0025441661173640716,0.046086250305831966,0.012475511021593786,0.16975354057615635,0.01844003094812903,0.11124425449933727,0.003142915620962967
0.2225172,0.05231406124130782,0.002525882793695087,0.04600291451032384,0.012443458179839016,0.16907289353981325,0.0184665343690992,0.1109476174835756,0.0031598120250765564
0.2229828,0.05221853492821577,0.002507878917527628,0.0459152998639454,0.012410986214714112,0.168377590617299,0.018491900180093734,0.11064244804532984,0.0031766928305352704
0.2234483,0.05212014276246321,0.002490153633964838,0.04582344146657394,0.01237810624791971,0.16766782849714468,0.01851612750930176,0.11032884740336259,0.0031935517467375427
0.2239138,0.0520189076663114,0.0024727060537403788,0.045727375398411964,0.012344829468567303,0.16694380686074586,0.01853921589268827,0.11000691841577986,0.003210382567105461
0.2243793,0.051914852986714465,0.0024555352537403005,0.04562713870124195,0.012311167129442331,0.16620572829894925,0.018561165270995526,0.10967676553638066,0.0032271791700731454
0.2248448,0.05180800248580631,0.0024386402775326867,0.045522769359503654,0.01227713054323573,0.1654537982281756,0.018581975986593554,0.10933849477097667,0.003243935520052689
0.2253103,0.05169838033132723,0.0024220201359048898,0.0454143062812058,0.01224273107874562,0.1646882248061255,0.018601648780183527,0.10899221363369123,0.0032606456683774406
0.2257759,0.0515860110869929,0.0024056738074081643,0.045301789278683925,0.012207980157050824,0.16390921884711385,0.018620184787358118,0.10863803110324532,0.00327730375422237
0.2262414,0.051470919702808565,0.0023896002389095106,0.045185259049215484,0.01217288924765789,0.16311699373707977,0.018637585535022788,0.10827605757923851,0.003293904005501274
0.2267069,0.0513531315053312,0.0023737983461505296,0.04506475715550319,0.012137469864623251,0.16231176534831773,0.018653852937681886,0.10790640483843195,0.003310440739740525
0.2271724,0.051232672187882626,0.002358267014313092,0.044940326006037,0.012101733562652149,0.16149375195397594,0.018668989293593424,0.10752918599104092,0.003326908364929073
0.2276379,0.05110956780071711,0.0023430050985916327,0.04481200883534497,0.012065691933175776,0.160663174142368,0.01868299728079631,0.10714451543704427,0.003343301380344395
0.2281034,0.05098384474114693,0.002328011424771874,0.04467984968414282,0.01202935660040805,0.15982025473114206,0.018695879953013635,0.10675250882251842,0.003359614377354073
0.228569,0.05085552974362982,0.002313284789815817,0.044543893379391575,0.011992739217383464,0.15896521868135166,0.01870764073543555,0.10635328299600394,0.0033758420401926756
0.2290345,0.05072464986982243,0.002298823962452828,0.04440418551427232,0.011955851461977368,0.15809829301147127,0.018718283420385,0.10594695596491305,0.003391979146713621
0.2295,0.05059123249860367,0.0022846276837766724,0.04426077242808685,0.011918705032909992,0.15721970671139826,0.018727812162869582,0.10553364685198666,0.0034080205691156915
0.2299655,0.050455305316072264,0.002270694667848346,0.044113701186092494,0.011881311645735615,0.15632969065648214,0.018736231476022564,0.10511347585181087,0.003423961274643876
0.230431,0.05031689630552288,0.0022570236023045412,0.04396301955927914,0.011843683028818266,0.1554284775216206,0.018743546226435873,0.1046865641874029,0.0034397963262642202
0.2308966,0.05017603373740518,0.002243613148971578,0.04380877600409594,0.011805830919295488,0.1545163016954601,0.018749761629387872,0.1042530340668773,0.0034555208833123453
0.2313621,0.050032746159271,0.0022304619444846177,0.04365101964213491,0.011767767059031714,0.15359339919473863,0.018754883243968488,0.1038130086402037,0.0034711302021152956
0.2318276,0.049887062385714866,0.00221756860091197,0.043489800239778414,0.011729503190562953,0.15266000757880568,0.018758916968104212,0.10336661195606693,0.0034866196365863607
0.2322931,0.04973901148831355,0.002204931706384295,0.043325168187817176,0.011691051053034609,0.1517163658643545,0.018761869033485427,0.10291396891884105,0.0035019846387924895
0.2327586,0.04958862278557088,0.002192549825728509,0.04315717448104522,0.011652422378134311,0.15076271444040007,0.01876374600039844,0.10245520524568742,0.0035172207594939024
0.2332241,0.0494359258328741,0.0021804215011061853,0.04298587069783798,0.011613628886021856,0.1497992949835358,0.018764554752464573,0.10199044742378752,0.0035323236486555
0.2336897,0.049280950412467876,0.0021685452526562453,0.0428113089797195,0.011574682281258394,0.1488263503735009,0.01876430249128877,0.10151982266772037,0.0035472890559296423
0.2341552,0.04912372652345222,0.002156919579141711,0.04263354201092475,0.011535594248737163,0.14784412460908974,0.018762996731020117,0.1010434588769946,0.0035621128311098546
0.2346207,0.04896428437181034,0.002145542958600293,0.04245262299796273,0.011496376449618104,0.14685286272443435,0.01876064529282668,0.10056148459374499,0.003576790924554985
0.2350862,0.04880265436047204,0.0021344138489985728,0.042268605649186226,0.011457040517268872,0.1458528107056897,0.018757256299287147,0.10007402896060345,0.0035913193875833378
0.2355517,0.04863886707941807,0.002123530688889544,0.04208154415437381,0.01141759805321468,0.14484421540815196,0.018752838168701703,0.09958122167875393,0.0036056943728362645
0.2360172,0.048472953295830665,0.002112891898073282,0.04189149316432984,0.011378060623099576,0.14382732447383859,0.018747399609324655,0.09908319296618044,0.0036199121346106875
0.2364828,0.04830494394429497,0.0021024958782604962,0.04169850777050814,0.011338439752661685,0.14280238624955965,0.018740949613521313,0.09858007351611685,0.0036339690291600406
0.2369483,0.04813487011705571,0.002092341013738748,0.041502643484665,0.011298746923725006,0.14176964970550832,0.018733497451851665,0.09807199445570645,0.0036478615149631213
0.2374138,0.04796276305433318,0.0020824256720410857,0.04130395621854725,0.011258993570210273,0.14072936435439856,0.018725052667083446,0.0975590873048789,0.0036615861529603654
0.2378793,0.04778865413470267,0.0020727482046168535,0.04110250226362095,0.011219191074167462,0.13968178017117797,0.018715625068137304,0.09704148393545124,0.0036751396067571055
0.2383448,0.04761257486554092,0.002063306947504418,0.040898338270846435,0.01117935076183242,0.13862714751334232,0.018705224723966834,0.09651931653045981,0.0036885186427934114
0.2388103,0.04743455687354356,0.002054100222005546,0.04069152123050558,0.011139483899710036,0.13756571704187823,0.018693861957376382,0.0959927175437291,0.003701720130480157
0.2392759,0.04725463189531737,0.002045126335361166,0.040482108452087,0.011099601690686375,0.1364977396428591,0.01868154733877955,0.09546181965968334,0.0037147410423009845
0.2397414,0.04707283176805137,0.0020363835814282256,0.04027015754423515,0.011059715270172094,0.1354234663497189,0.01866829167990149,0.09492675575340595,0.003727578453879861
0.2402069,0.04688918842027089,0.00202787024135736,0.04005572639476935,0.011019835702279457,0.13434314826622715,0.01865410602742809,0.09438765885095175,0.0037402295440139262
0.2406724,0.0467037338626787,0.0020195845842710604,0.039838873150778824,0.010979973976035175,0.13325703649018691,0.01863900165660507,0.09384466208991676,0.003752691594671354
0.2411379,0.046516500179087164,0.0020115248679420344,0.039619656198800104,0.010940141001631263,0.13216538203787795,0.018622990064789964,0.09329789868026958,0.003764961990953985
0.2416034,0.04632751951744526,0.002003689339471448,0.03939813414508316,0.010900347606716113,0.13106843576926464,0.01860608296495978,0.09274750186544888,0.003777038221024538
0.242069,0.04613682408096371,0.0019960762359667408,0.039174365795952716,0.010860604532727906,0.12996644831398876,0.01858829227917707,0.09219360488373139,0.003788917875998272
0.2425345,0.04594444611934152,0.0019886837852187257,0.03894841013827131,0.010820922431272485,0.12885966999816562,0.018569630132016877,0.0916363409298751,0.003800598649799013
0.243,0.045750417920096216,0.0019815102063776924,0.03872032632001073,0.010781311860547682,0.12774835077200153,0.018550108843957063,0.09107584311704199,0.0038120783389795324
0.2434655,0.0455547718000001,0.001974553710628255,0.03849017363093837,0.01074178328181612,0.1266327401382497,0.01852974092473432,0.09051224443900582,0.00382335484250631
0.243931,0.04535754009662455,0.0019678125018626827,0.03825801148342489,0.01070234705592841,0.12551308708152034,0.018508539066668266,0.08994567773265011,0.003834426161508732
0.2443966,0.04515875515999356,0.0019612847773524526,0.03802389939337982,0.010663013439898606,0.12438963999846081,0.018486516137956,0.08937627564076125,0.0038452903989927897
0.2448621,0.04495844934434793,0.0019549687284177724,0.0377878969613211,0.010623792583533702,0.12326264662882011,0.01846368517593968,0.08880417057512315,0.003855945759519349
0.2453276,0.044756655000020795,0.0019488625410948198,0.037550063853584836,0.010584694526118946,0.12213235398741133,0.018440059380349892,0.08822949467991825,0.0038663905488470446
0.2457931,0.04455340446542538,0.0019429643968004449,0.03731045978368113,0.010545729193160647,0.12099900829698503,0.018415652106527753,0.0876523797954417,0.0038766231735398817
0.2462586,0.044348730059155524,0.0019372724729940977,0.037069144493801685,0.01050690639318813,0.11986285492202567,0.01839047685862901,0.08707295742213378,0.003886642140539597
0.2467241,0.04414266407219946,0.00193178494383675,0.03682617773648487,0.010468235814616391,0.11872413830348197,0.01836454728281356,0.08649135868493794,0.0038964460567028655
0.2471897,0.0439352387602674,0.0019264999808465912,0.03658161925644363,0.010429727022670964,0.1175831018944413,0.01833787716042375,0.08590771429799085,0.0039060336283034225
0.2476552,0.043726486336233585,0.0019214157535512835,0.03633552877256173,0.010391389456376405,0.11643998809675718,0.018310480401154954,0.08532215452965194,0.003915403660499157
0.2481207,0.043516438962693416,0.0019165304301365597,0.03608796596006369,0.0103532324256098,0.11529503819863798,0.01828237103622178,0.08473480916788148,0.0039245550567642345
0.2485862,0.043305128744636545,0.0019118421780909358,0.03583899043286388,0.010315265108220586,0.11414849231320383,0.01825356321152332,0.08414580748597589,0.003933486818286303
0.2490517,0.043092587722236855,0.0019073491648463061,0.035588661726099986,0.01027749654721795,0.11300058931801792,0.018224071180810708,0.08355527820867031,0.003942198043328849
0.2495172,0.042878847863760235,0.0019030495584141677,0.035337039278856244,0.010239935648027042,0.11185156679559793,0.018193909298860427,0.08296334947861857,0.003950687926558782
0.2499828,0.0426639410585915,0.0018989415280172138,0.0350841824170814,0.010202591175815177,0.1107016609749122,0.018163092014656535,0.08237014882326067,0.003958955758339374
0.2504483,0.042447899110381805,0.0018950232447160263,0.03483015033670649,0.010165471752889206,0.10955110667386492,0.01813163386458516,0.08177580312208838,0.003967000923988705
0.2509138,0.04223075373031821,0.0018912928820305883,0.034575002086967246,0.010128585856165204,0.10840013724277432,0.01809954946564443,0.08118043857431889,0.003974822903003804
0.2513793,0.04201253653051715,0.0018877486165563286,0.0343187965539358,0.010091941814711597,0.10724898450884716,0.01806685350867297,0.08058418066698662,0.0039824212682506716
0.2518448,0.041793279017543906,0.0018843886285744046,0.03406159244426605,0.010055547807366848,0.10609787872165238,0.018033560751600113,0.0799871541434621,0.003989795685120407
0.2523103,0.04157301258606023,0.0018812111026559272,0.03380344826915694,0.010019411860432785,0.1049470484995974,0.017999686012720836,0.07938948297240703,0.003996945910651647
0.2527759,0.04135176851260239,0.0018782142282598312,0.03354442232853752,0.00998354184544468,0.10379672077740996,0.01796524416399853,0.07879129031717368,0.004003871792619522
0.2532414,0.04112957794949201,0.0018753962003241066,0.03328457269547754,0.009947945477019125,0.10264712075462874,0.017930250124398518,0.07819269850565597,0.004010573268591372
0.2537069,0.04090647191888187,0.0018727552198501188,0.0330239572008269,0.009912630310780763,0.10149847184510605,0.0178947188532553,0.07759382900059958,0.004017050364949473
0.2541724,0.04068248130693862,0.0018702894944797707,0.032762633418087196,0.009877603741368876,0.1003509956275259,0.017858665343676357,0.07699480237037759,0.004023303195881115
0.2546379,0.04045763685816417,0.001867997239065278,0.032500658648518116,0.009842873000524834,0.09920491179694127,0.017822104615985192,0.0763957382602383,0.004029331962336383
0.2551034,0.04023196916985734,0.001865876676231339,0.032238089906481436,0.009808445155261289,0.09806043811733377,0.01778505171120626,0.07579675536403148,0.004035136950954066
0.255569,0.040005508686716984,0.0018639260369295034,0.031974983905024755,0.009774327106114016,0.09691779037520001,0.017747521684594352,0.07519797139641957,0.004040718532956155
0.2560345,0.03977828569558757,0.001862143560984544,0.031711397041707154,0.009740525585477167,0.0957771823341676,0.017709529599210856,0.07459950306558003,0.00404607716301142
0.2565,0.039550330320348,0.0018605274976326361,0.0314473853846687,0.00970704715602264,0.09463882569064457,0.017671090519549345,0.07400146604640537,0.0040512133780685935
0.2569655,0.039321672516944114,0.0018590761060511413,0.031183004658945548,0.009673898209204213,0.09350293003050536,0.017632219505212755,0.0734039749542074,0.004056127796159679
0.257431,0.039092342068565177,0.001857787655879789,0.03091831023303213,0.009641084963847028,0.09236970278681648,0.017592931604644462,0.07280714331893218,0.0040608211151739034
0.2578966,0.03886236858096444,0.0018566604277330222,0.030653357105691906,0.009608613464822903,0.09123934919860441,0.017553241848915484,0.0722110835598924,0.004065294111602886
0.2583621,0.038631781477923996,0.0018556927137032824,0.03038819989301792,0.009576489581811959,0.09011207227066809,0.01751316524556992,0.07161590696102399,0.004069547639257606
0.2588276,0.03840060999686405,0.0018548828178549873,0.030122892815744248,0.009544719008150935,0.0889880727344382,0.01747271677253082,0.07102172364667338,0.004073582627957838
0.2592931,0.038168883184596616,0.001854229056708954,0.029857489686809346,0.009513307259768535,0.08786754900988439,0.01743191137206843,0.07042864255792224,0.004077400082194812
0.2597586,0.03793662989322387,0.0018537297597169971,0.029592043899172117,0.009482259674208054,0.0867506971684714,0.01739076394483266,0.069836771429456,0.004081001079767917
0.2602241,0.03770387877618118,0.0018533832697264366,0.02932660841388142,0.009451581409737533,0.08563771089716449,0.017349289343951604,0.06924621676698285,0.004084386770396366
0.2606897,0.037470658284424696,0.001853187943434225,0.029061235748399628,0.009421277444547587,0.08452878146348335,0.017307502369197633,0.06865708382520909,0.004087558374306801
0.2611552,0.0372369966627632,0.0018531421518304047,0.028795977965180637,0.009391352576037033,0.08342409768160408,0.01726541776122263,0.06806947658637745,0.004090517180797848
0.2616207,0.03700292194633357,0.0018532442806305995,0.02853088666050271,0.009361811420186406,0.0823238458795075,0.017223050195863697,0.06748349773937434,0.004093264546782664
0.2620862,0.03676846195721937,0.001853492730697226,0.028266012953556605,0.009332658411019412,0.0812282098671718,0.01718041427852065,0.06689924865941194,0.004095801895310494
0.2625517,0.03653364430121174,0.0018538859184491136,0.02800140747578928,0.009303897800152372,0.08013737090580766,0.017137524538606407,0.06631682938829099,0.004098130714068286
0.2630172,0.03629849636471166,0.0018544222762592046,0.027737120360503544,0.009275533656431679,0.07905150767813306,0.01709439542407126,0.06573633861524987,0.004100252553863402
0.2634828,0.03606304531177277,0.0018551002528400062,0.027473201232714115,0.009247569865659305,0.07797079625968513,0.017051041296001972,0.06515787365840502,0.004102169027088493
0.2639483,0.03582731808128367,0.0018559183136164692,0.027209699199260407,0.009220010130406384,0.07689541009116613,0.017007476423296454,0.0645815304467877,0.0041038818061696495
0.2644138,0.03559134138428862,0.0018568749410859666,0.026946662839176592,0.009192857969914939,0.07582551995182006,0.01696371497741474,0.06400740350298122,0.0041053926219989404
0.2648793,0.03535514170144541,0.0018579686351650505,0.026684140194319333,0.0091661167200878,0.07476129393383639,0.016919771027206966,0.06343558592636243,0.0041067032623524945
0.2653448,0.03511874528061905,0.0018591979135226652,0.02642217876025384,0.009139789533566792,0.07370289741777675,0.016875658533819032,0.06286616937695094,0.004107815570295257
0.2658103,0.034882178134609906,0.001860561311899504,0.026160825477398772,0.009113879379899275,0.07265049304902062,0.01683139134567683,0.06229924405986865,0.004108731442573561
0.2662759,0.03464546603901484,0.0018620573844131826,0.025900126722430486,0.00908838904579309,0.07160424071522511,0.01678698319354996,0.061734898710412225,0.004109452827996625
0.2667414,0.03440863453021986,0.001863684703848912,0.025640128299947225,0.009063321135459951,0.07056429752479433,0.016742447685696157,0.06117322057974056,0.004109981725808053
0.2672069,0.0341717089035229,0.0018654418619353497,0.025380875434393834,0.009038678071047277,0.06953081778635288,0.01669779830308779,0.06061429542117884,0.004110320184048397
0.2676724,0.03393471421138519,0.001867327469605311,0.025122412762247377,0.009014462093158343,0.06850395298921848,0.01665304839472204,0.060058207477140434,0.0041104702979097825
0.2681379,0.03369767526180975,0.0018693401572410472,0.02486478432446419,0.008990675261460643,0.06748385178486808,0.016608211173016408,0.059505039466667346,0.004110434208083606
0.2686034,0.03346061661684514,0.0018714785749038088,0.024608033559188662,0.008967319455382233,0.06647065996939205,0.016563299709291303,0.05895487257358948,0.004110214099102256
0.269069,0.03322356259121269,0.001873741392547453,0.024352203294724036,0.008944396374895762,0.06546452046693067,0.016518326929341326,0.05840778643530255,0.004109812197675806
0.2695345,0.03298653725105494,0.0018761273002158884,0.02409733574276539,0.00892190754138983,0.06446557331408773,0.01647330560909689,0.057863859132164214,0.00410923077102462
0.27,0.03274956441280325,0.001878635008224177,0.02384347249189487,0.008899854298627262,0.06347395564531569,0.016428248370377707,0.057323167177507274,0.004108472125208761
0.2704655,0.03251266764216204,0.0018812632473231498,0.023590654501339105,0.008878237813789817,0.06248980167926731,0.01638316767673961,0.05678578550826893,0.004107538603455118
0.270931,0.03227587025320731,0.001884010768847413,0.02333892209498863,0.008857059078608797,0.06151324270610845,0.016338075829416206,0.05625178747623434,0.0041064325844831365
0.2713966,0.032039195307597246,0.0018868763448466413,0.023088314955679076,0.00883631891058097,0.06054440707578718,0.01629298496335669,0.05572124483989291,0.0041051564808300385
0.2718621,0.031802665613892535,0.0018898587682000603,0.022838872119733813,0.008816017954269176,0.059583420187254155,0.01624790704336129,0.055194227756905585,0.004103712737176421
0.2723276,0.03156630372698415,0.0018929568527140358,0.022590631971767618,0.008796156682686964,0.058630404478629425,0.016202853860315863,0.054670804777181385,0.004102103828673127
0.2727931,0.03133013194762647,0.0018961694332026847,0.02234363223975088,0.00877673539876649,0.057685479418310585,0.016157837027527162,0.05415104283656136,0.00410033225927028
0.2732586,0.031094172322073208,0.001899495365551434,0.02209790999033371,0.00875775423690904,0.0567487614970173,0.016112867977160373,0.05363500725110801,0.004098400560049408
0.2737241,0.030858446641813735,0.0019029335267634407,0.021853501624429308,0.008739213164617314,0.055820364220766604,0.01606795795678056,0.05312276171199762,0.004096311287559536
0.2741897,0.03062297644340692,0.001906482814988781,0.021610442873055732,0.008721111984208649,0.05490039810477357,0.01602311802599967,0.05261436828101274,0.0040940670221581285
0.2746552,0.030387783008409476,0.0019101421495363068,0.021368768793435182,0.00870345033460832,0.053988970668271054,0.015978359053230737,0.05210988738663178,0.004091670366357758
0.2751207,0.030152887363395695,0.0019139104708680637,0.021128513765349657,0.00868622769322196,0.05308618643024231,0.015933691712550793,0.05160937782071206,0.004089123943179319
0.2755862,0.02991831028006511,0.0019177867405761563,0.02088971148775183,0.008669443377886187,0.05219214690605937,0.01588912648067402,0.05111289673576262,0.0040864303945126095
0.2760517,0.02968407227543453,0.0019217699413419406,0.020652394975629755,0.00865309654889645,0.051306950605020406,0.015844673634036428,0.05062049964280286,0.0040835923794850385
0.2765172,0.02945019361211071,0.0019258590768774456,0.02041659655712395,0.008637186211111135,0.05043069302877849,0.015800343245993324,0.05013224040980276,0.004080612572839232
0.2769828,0.02921669429863965,0.0019300531718489376,0.020182347870895262,0.008621711216130956,0.04956346667065419,0.01575614518413069,0.04964817126070056,0.004077493663320247
0.2774483,0.028983594089928375,0.001934351271782569,0.01994967986374187,0.008606670264552599,0.04870536101582426,0.015712089107691382,0.049168342774993434,0.004074238352073119
0.2779138,0.02875091248773476,0.0019387524429520784,0.01971862278846361,0.008592061908295605,0.04785646254237847,0.015668184465117144,0.048692803887896804,0.004070849351051402
0.2783793,0.028518668741220835,0.001943255772248543,0.019489206201971674,0.0085778845530014,0.04701685472323648,0.015624440491707149,0.04822160189106781,0.00406732938143737
0.2788448,0.028286881847564935,0.0019478603670322133,0.019261458963641655,0.008564136460503366,0.046186618028916486,0.015580866207393846,0.047754782433888074,0.0040636811720744905
0.2793103,0.02805557055262808,0.0019525653549665011,0.01903540923390764,0.008550815751366792,0.0453658299311468,0.015537470414636732,0.04729238952530102,0.004059907457912756
0.2797759,0.027824753351670124,0.0019573698838342224,0.018811084473095013,0.008537920407497481,0.0445545649073115,0.015494261696434622,0.04683446553619868,0.004056010978467444
0.2802414,0.02759444849011135,0.0019622731213362462,0.01858851144048942,0.008525448274817791,0.04375289444572068,0.015451248414456853,0.04638105120235251,0.004051994476291809
0.2807069,0.027364673964335545,0.001967274254872745,0.01836771619363926,0.008513397066008769,0.042960887051695616,0.015408438707293793,0.045932185627882705,0.004047860695464221
0.2811724,0.02713544752253086,0.0019723724913072956,0.01814872408788901,0.008501764363317019,0.04217860825445855,0.015365840488826858,0.045487906289259826,0.004043612380090229
0.2816379,0.026906786665565202,0.0019775670567141216,0.0179315597761406,0.00849054762142485,0.04140612061481668,0.015323461446718206,0.04504824903983248,0.004039252272819975
0.2821034,0.026678708647893252,0.001982857196108823,0.017716247208839856,0.008479744170382206,0.04064348373362926,0.015281309041020106,0.04461324811487422,0.004034783113381426
0.282569,0.026451230478492682,0.0019882421731629712,0.017502809634185074,0.008469351218598781,0.03989075426104681,0.015239390502903946,0.04418293613714255,0.0040302076371298325
0.2830345,0.026224368921827442,0.001993721269902991,0.017291269598554544,0.008459365855894687,0.039147985906510856,0.015197712833508648,0.04375734412294274,0.004025528573613847
0.2835,0.02599814049883626,0.0019992937863937753,0.017081648947149808,0.008449785056607907,0.03841522944950256,0.01515628280290818,0.043336501488688804,0.004020748645158709
0.2839655,0.025772561487944795,0.0020049590404075173,0.016873968824851305,0.008440605682756765,0.037692532751028185,0.015115106949197744,0.04292043605795385,0.004015870565466906
0.284431,0.025547647926099974,0.0020107163670782524,0.016668249677283007,0.008431824487255515,0.03697994076582922,0.015074191577698074,0.04250917406900194,0.004010897038236698
0.2848966,0.02532341560982514,0.002016565118542608,0.01646451125208257,0.008423438117181159,0.03627749555530479,0.0150335427602772,0.042102740182793356,0.004005830755798851
0.2853621,0.025099880096294602,0.002022504663567267,0.016262772600373652,0.008415443117089475,0.035585236301133465,0.014993166334788997,0.04170115749145512,0.0040006743977719274
0.2858276,0.024877056704426158,0.0020285343871636386,0.016063052078436956,0.008407835932378269,0.03490319931958159,0.014953067904627752,0.04130444752720822,0.003995430629736429
0.2862931,0.024654960515990015,0.002034653690190235,0.01586536734957671,0.00840061291269576,0.03423141807648475,0.014913252838398004,0.04091263027174302,0.003990102101928062
0.2867586,0.024433606376732624,0.002040861988943233,0.01566973538617924,0.008393770315391964,0.033569923202888895,0.014873726269699003,0.04052572416603421,0.003984691447950389
0.2872241,0.024213008897514068,0.0020471587147357227,0.015476172471960405,0.008387304309010916,0.03291874251133759,0.014834493097023073,0.040143746120586715,0.0039792012835070945
0.2876897,0.023993182455457795,0.0020535433134661225,0.015284694204398605,0.00838121097682143,0.03227790101279137,0.014795557983767284,0.03976671152610382,0.003973634205154098
0.2881552,0.023774141195111727,0.002060015245176265,0.015095315497350041,0.008375486320384136,0.03164742093416533,0.014756925358357759,0.03939463426456907,0.003967992789071728
0.2886207,0.023555899029620023,0.0020665739835996526,0.014908050583842966,0.008370126263152379,0.031027321736470846,0.014718599414485889,0.0390275267207332,0.003962279589857203
0.2890862,0.02333846964190493,0.002073219015700366,0.014722913019047604,0.00836512665410453,0.030417620133547332,0.01468058411145567,0.03866539979399759,0.003956497139337667
0.2895517,0.023121866485858338,0.0020799498412031104,0.014539915683418426,0.008360483271405188,0.029818330111369837,0.014642883174641304,0.03830826291068559,0.003950647945404064
0.2900172,0.02290610278754255,0.0020867659721148695,0.014359070786005472,0.008356191826092697,0.02922946294791842,0.014605500096054191,0.0379561240366929,0.003944734490866149
0.2904828,0.022691191546399748,0.0020936669322386297,0.014180389867931442,0.008352247965790333,0.02865102723359521,0.014568438135018342,0.03760898969050806,0.003938759232328958
0.2909483,0.02247714553646948,0.0021006522566796274,0.014003883806031257,0.008348647278438502,0.028083028892175316,0.014531700318953266,0.037266864956594176,0.003932724599091053
0.2914138,0.022263977307613318,0.002107721491344561,0.01382956281665089,0.008345385296045216,0.027525471202277628,0.014495289444263303,0.03692975349912262,0.003926632992064898
0.2918793,0.022051699186745585,0.002114874192434205,0.013657436459602218,0.008342457498452138,0.026978354819342014,0.014459208077332251,0.03659765757604975,0.0039204867827197015
0.2923448,0.021840323279069054,0.0021221099259298467,0.013487513642270755,0.00833985931711345,0.02644167779809926,0.01442345855562212,0.036270578053527056,0.003914288312047076
0.2928103,0.021629861469314178,0.002129428267073963,0.01331980262387315,0.008337586138884743,0.025915435615520423,0.014388042988874706,0.035948514420635354,0.003908039889549866
0.2932759,0.021420325422980523,0.002136828799845557,0.013154311019861477,0.008335633309819172,0.025399621194232308,0.014352963260414645,0.035631464804433285,0.0039017437922544518
0.2937414,0.02121172658757897,0.0021443111164305847,0.012991045806471412,0.00833399613896799,0.02489422492638604,0.01431822102855254,0.03531942598531042,0.003895402263746821
0.2942069,0.02100407619387345,0.002151874816687906,0.012830013325411404,0.008332669902182635,0.024399234697965743,0.014283817728086725,0.03501239341263498,0.0038890175132326905
0.2946724,0.020797385257120975,0.002159519507611211,0.01267121928869014,0.008331649845915412,0.023914635913524603,0.014249754571902118,0.034710361220686436,0.003882591714621922
0.2951379,0.020591664578308876,0.0021672448027873895,0.012514668783579557,0.008330931191015791,0.023440411521335792,0.014216032552664591,0.034413322244863036,0.0038761270056374645
0.2956034,0.020386924745388196,0.0021750503218518004,0.012360366277710763,0.00833050913651929,0.02297654203894593,0.014182652444609176,0.03412126803815434,0.0038696254869490555
0.296069,0.020183176134502358,0.0021829356899409056,0.012208315624300364,0.008330378863425863,0.022523005579119185,0.01414961480542028,0.03383418888786888,0.0038630892213318813
0.2965345,0.019980428911210206,0.0021909005371427296,0.01205852006750459,0.00833053553846465,0.022079777876160302,0.014116919978202025,0.03355207383260699,0.0038565202328503805
0.297,0.019778693031702942,0.0021989444979455862,0.0119109822478988,0.008330974317841886,0.021646832312605235,0.014084568093536805,0.0332749106794688,0.0038499205060673718
0.2974655,0.019577978244014416,0.002207067210685517,0.011765704208079864,0.008331690350968755,0.02122413994626825,0.01405255907163003,0.03300268602148732,0.0038432919852786703
0.297931,0.019378294089224743,0.002215268316992873,0.011622687398388924,0.008332678784165845,0.020811669537634685,0.01402089262453896,0.03273538525527691,0.0038366365737733422
0.2983966,0.019179649902657293,0.0022235474612384816,0.011481932682751982,0.008333934764340897,0.020409387577588423,0.013989568258483501,0.03247299259888682,0.003829956133119745
0.2988621,0.01898205481506949,0.002231904289979811,0.011343440344635655,0.00833545344263647,0.0200172583154635,0.013958585276236663,0.03221549110985017,0.0038232524824774795
0.2993276,0.018785517753838143,0.002240338451407559,0.011207210093115429,0.008337229978044064,0.01963524378740913,0.013927942779592375,0.0319628627034181,0.0038165273979353567
0.2997931,0.018590047444140285,0.0022488495947930644,0.01107324106905361,0.008339259540981303,0.019263303845057655,0.013897639671908237,0.0317150881709695,0.0038097826118754625
0.3002586,0.01839565241013058,0.002257437369936928,0.010941531851384101,0.008341537316828712,0.018901396184484907,0.013867674660720752,0.031472147198586764,0.00380301981236337
0.3007241,0.01820234097611653,0.0022661014266192343,0.010812080463501132,0.008344058509422568,0.018549476375452754,0.01383804626043063,0.03123401838578873,0.003796240642564531
0.3011897,0.0180101212677326,0.0022748414140517496,0.01068488437974887,0.008346818344500358,0.018207497890923578,0.01380875279505569,0.03100067926441189,0.003789446700186846
0.3016552,0.017819001213114315,0.0022836569803324717,0.010559940532008923,0.008349812073095264,0.017875412136836587,0.013779792401048895,0.030772106317631644,0.003782639536949412
0.3021207,0.017628988544073205,0.0022925477719029004,0.010437245316382593,0.008353034974876153,0.0175531684821358,0.013751163030178969,0.03054827499911504,0.0037758206580773917
0.3025862,0.017440090797273412,0.002301513433008403,0.010316794599964785,0.00835648236142958,0.01724071428903947,0.013722862452471092,0.030329159752296768,0.0037689915218229644
0.3030517,0.01725231531541066,0.002310553605162049,0.010198583727706455,0.008360149579480438,0.016937994943540622,0.013694888259205045,0.030114734029769892,0.0037621535390122657
0.3035172,0.017065669248394127,0.0023196679266122896,0.010082607529362462,0.00836403201404799,0.016644953886128223,0.013667237865968315,0.0299049703127829,0.0037553080726182484
0.3039828,0.016880159554531763,0.002328856031814872,0.009968860326521705,0.008368125091534263,0.016361532642718377,0.013639908515761547,0.029699840130834473,0.0037484564373593625
0.3044483,0.016695793001719417,0.0023381175509094,0.009857335939716388,0.008372424282741908,0.01608767085578481,0.013612897282153792,0.029499314081357423,0.0037415998993239495
0.3049138,0.01651257616863413,0.0023474521092009463,0.009748027695607299,0.008376925105818774,0.01582330631567784,0.013586201072484946,0.029303361849483046,0.0037347396756202836
0.3053793,0.01633051544593175,0.002356859326647139,0.009640928434241944,0.008381623129126563,0.015568374992120953,0.01355981663111274,0.02911195222787715,0.0037278769340522064
0.3058448,0.016149617037448966,0.002366338817351132,0.009536030516382382,0.008386513974030948,0.01532281106587407,0.013533740542701634,0.02892505313663893,0.003721012792820348
0.3063103,0.015969886961409756,0.0023758901890608675,0.009433325830899576,0.008391593317610625,0.01508654696055282,0.01350796923555106,0.028742631643253806,0.003714148320248949
0.3067759,0.015791331051636198,0.0023855130426750117,0.009332805802231113,0.008396856895282821,0.01485951337459331,0.013482498984960381,0.028564653982591417,0.0037072845345383202
0.3072414,0.015613954958763443,0.002395206971755952,0.009234461397899093,0.00840230050334294,0.01464163931335238,0.013457325916627974,0.028391085576939847,0.003700422403542982
0.3077069,0.01543776415145856,0.002404971562050221,0.009138283136085034,0.008407920001416252,0.014432852121333752,0.013432446010081821,0.028221891056067445,0.00369356284457549
0.3081724,0.015262763917642858,0.0024148063910167145,0.00904426109325856,0.008413711314819695,0.014233077514531086,0.013407855102138933,0.02805703427730364,0.0036867067242359664
0.3086379,0.015088959365717185,0.0024247110273630536,0.00895238491185668,0.008419670436831988,0.014042239612879443,0.013383548890390961,0.02789647834563063,0.003679854858267307
0.3091034,0.014916355425789661,0.002434685030590444,0.008862643808010395,0.008425793430870293,0.013860260972807141,0.013359522936713468,0.027740185633778197,0.003673008011436028
0.309569,0.014744956850905096,0.0024447279505473473,0.008775026579315344,0.008432076432571718,0.013687062619880485,0.013335772670796234,0.027588117802314235,0.003666166897438718
0.3100345,0.014574768218275382,0.0024548393269922864,0.008689521612643109,0.008438515651777901,0.013522564081534254,0.013312293393692077,0.027440235819724008,0.003659332178834037
0.3105,0.014405793930509994,0.0024650186891660773,0.008606116891989765,0.008445107374421081,0.013366683419881146,0.013289080281381621,0.02729649998247124,0.0036525044670002106
0.3109655,0.014238038216845774,0.002475265555373773,0.00852480000635821,0.008451847964310153,0.013219337264593775,0.013266128388351539,0.02715686993503426,0.003645684322117978
0.311431,0.01407150513437515,0.002485579432576589,0.008445558157670698,0.008458733864815533,0.013080440845853119,0.013243432651183927,0.027021304689910233,0.003638872253178915
0.3118966,0.013906198569271958,0.002495959815994074,0.00836837816870803,0.00846576160045196,0.01294990802735755,0.013220987892154727,0.02688976264758069,0.003632068718019083
0.3123621,0.013742122238014125,0.0025064061887167706,0.008293246491071719,0.008472927778358633,0.012827651339386832,0.01319878882283945,0.026762201616431187,0.0036252741233779146
0.3128276,0.013579279688602482,0.00251691802132962,0.008220149213165573,0.008480229089676454,0.012713582011915569,0.013176830047724767,0.026638578832618096,0.003618488824982248
0.3132931,0.013417674301774948,0.002527494771546321,0.008149072068193052,0.008487662310822293,0.012607610007770715,0.013155106067824749,0.026518850979875542,0.0036117131276554282
0.3137586,0.01325730929221537,0.0025381358838548777,0.008080000442166817,0.008495224304660392,0.012509644055827664,0.013133611284300737,0.026402974209255373,0.003604947285451367
0.3142241,0.01309818770975625,0.0025488407891745488,0.008012919381926956,0.008502912021571149,0.012419591684239383,0.013112340002083766,0.026290904158793364,0.0035981915018134447
0.3146897,0.012940312440574512,0.002559608904524431,0.007947813603164407,0.00851072250041758,0.01233735925369303,0.013091286433498484,0.026182595973094677,0.0035914459297581173
0.3151552,0.012783686208379419,0.002570439632703904,0.007884667498446147,0.008518652869409782,0.012262851990688379,0.013070444701887434,0.0260780043228319,0.003584710672083057
0.3156207,0.012628311575591612,0.0025813323619851723,0.007823465145238776,0.008526700346867788,0.012195974020832362,0.01304980884523446,0.02597708342414907,0.0035779857815996423
0.3160862,0.01247419094451227,0.002592286465818151,0.0077641903139271965,0.008534862241883245,0.012136628402143971,0.013029372819786033,0.02587978705796539,0.003571271261389577
0.3165517,0.01232132655848128,0.002603301302547924,0.007706826475825122,0.008543135954880456,0.01208471715836381,0.013009130503669225,0.025786068589172585,0.0035645670650853714
0.3170172,0.012169720503023417,0.0026143762151450128,0.007651356811174224,0.008551518978077497,0.01204014131226263,0.012989075700505084,0.02569588098572017,0.0035578730971744326
0.3174828,0.012019374706981506,0.0026255105309486732,0.007597764217128782,0.008560008895848297,0.012002800918943242,0.012969202143016093,0.02560917683758326,0.0035511892133264496
0.3179483,0.011870290943635719,0.002636703561423424,0.0075460313157226806,0.008568603384986693,0.01197259509913027,0.012949503496626316,0.025525908375607566,0.003544515220743739
0.3184138,0.011722470831808194,0.0026479546019290033,0.007496140461815621,0.008577300214873547,0.011949422072442276,0.01292997336305278,0.02544602749022654,0.0035378508785342015
