Time,Rectus Femoris right,Rectus Femoris left,Hamstrings right,Hamstrings left,TibilaisÂ Anterior right,TibilaisÂ Anterior left,Gastrocnemius right,Gastrocnemius left
0.0,0.0013290359304511297,-0.00432998729220108,-0.04831810180009319,-0.0025057840871870805,0.0003751871345837629,-0.005919172004525914,0.04269704480813968,0.0012988070532177684
0.0004655,0.0013535823720814046,-0.003867394641638593,-0.04673957425890083,-0.0024604718411891636,0.000397757520744013,-0.005604936982949025,0.043234848478753876,0.0014213934119307419
0.000931,0.0013782139519756132,-0.003405451939524424,-0.045156415985248305,-0.002415411677763276,0.0004205965027222118,-0.005290953862099605,0.04377009425612643,0.0015438086942648106
0.0013966,0.0014029285035496537,-0.002944219657798677,-0.043568779057642455,-0.002370607273180246,0.0004437035166264361,-0.004977264396189218,0.04430270315505831,0.0016660337512957658
0.0018621,0.0014277238564074635,-0.002483758075891881,-0.04197681647198566,-0.0023260621525833655,0.000467077945869988,-0.0046639102829657995,0.044832597024113706,0.0017880494381730633
0.0023276,0.0014525978372439982,-0.0020241272621867703,-0.040380682110495496,-0.002281779687160455,0.0004907191209908022,-0.004350933151126377,0.04535969857776578,0.0019098366201480345
0.0027931,0.0014775482707493994,-0.0015653870556089557,-0.03878053071083729,-0.002237763091370258,0.0005146263194844287,-0.0040383745477684686,0.04588393142817083,0.002031376178618507
0.0032586,0.0015025729805134306,-0.0011075970473593568,-0.03717651783550108,-0.0021940154202255055,0.0005387987656507522,-0.0037262759258877855,0.046405220116536965,0.0021526490171867446
0.0037241,0.0015276697899292413,-0.0006508165628008955,-0.03556879984145272,-0.002150539566634948,0.0005632356304546047,-0.0034146786319296813,0.0469234901440537,0.002273636067727625
0.0041897,0.0015528365230955304,-0.00019510464351153598,-0.033957533850086756,-0.0021073382588065667,0.0005879360314004323,-0.003103623893401616,0.04743866800234946,0.0023943182964639713
0.0046552,0.001578071005716176,0.00025947997048465077,-0.03234287771750632,-0.0020644140577141114,0.0006128990324211712,-0.002793152806553667,0.047950681203444555,0.002514676710046003
0.0051207,0.0016033710659964398,0.0007128788582970722,-0.030724990005153083,-0.0020217693546290176,0.0006381236437814886,-0.0024833063241338714,0.04845945830916778,0.0026346923616319047
0.0055862,0.0016287345355349213,0.001165033935547857,-0.029104029950808106,-0.001979406368719675,0.0006636088219955427,-0.0021741252432249236,0.048964928960005254,0.002754346356966592
0.0060517,0.001654159250210535,0.0016158874715400684,-0.027480157439982066,-0.0019373271447199452,0.0006893534697594111,-0.0018656501931684692,0.04946702390335035,0.0028736198604558463
0.0065172,0.0016796430510638886,0.0020653821062045032,-0.025853532977711716,-0.0018955335506687448,0.0007153564358983337,-0.0015579216235829597,0.049965675021124235,0.002992494101233091
0.0069828,0.0017051837851725588,0.0025134608668150125,-0.024224317660777175,-0.0018540272757224228,0.0007416165153289129,-0.00125097979248073,0.05046081535673744,0.003110950379216206
0.0074483,0.0017307793065198343,0.002960067184462617,-0.02259267315035311,-0.0018128098280415826,0.0007681324490364076,-0.0009448647544896792,0.050952379141364065,0.003228970071151879
0.0079138,0.0017564274768565506,0.0034051449102790905,-0.020958761645104917,-0.0017718825327539117,0.0007949029240672559,-0.0006396163491846494,0.05144030181950188,0.0033465346366450916
0.0083793,0.0017821261665556714,0.0038486383314011155,-0.019322745854739178,-0.001731246529994488,0.0008219265735369592,-0.00033527418953330256,0.051924520073792405,0.0034636256241714534
0.0088448,0.0018078732554592787,0.004290492186666594,-0.01768478897401587,-0.0016909027730249405,0.0008492019766534594,-3.187765046093102e-05,0.05240497184907655,0.003580224677070126
0.0093103,0.0018336666337176472,0.004730651682035211,-0.016045054657228053,-0.0016508520264327466,0.0008767276587561388,0.00027053414246175036,0.052881596375661796,0.0036963135395151735
0.0097759,0.001859504202620081,0.0051690625057258755,-0.014403706993152845,-0.0016110948644118565,0.0009045020913705798,0.0005719223242041842,0.05335433419177866,0.00381187406246319
0.0102414,0.001885383875417201,0.005605670843064234,-0.012760910480475892,-0.0015716316691257394,0.0009325236922792182,0.0008722483013316023,0.053823127165204786,0.0039268882095750916
0.0107069,0.0019113035781343807,0.006040423391033937,-0.011116830003689791,-0.001532462629153867,0.0009607908256080316,0.001171473762927605,0.054287918514037074,0.00404133806311
0.0111724,0.0019372612503760472,0.006473267372525894,-0.00947163080946544,-0.0014935877380225784,0.0009893018019294056,0.0014695606913806987,0.05474865282659407,0.0041552058297891275
0.0116379,0.0019632548461205935,0.00690415055028019,-0.007825478483493782,-0.001455006792821191,0.0010180548783813286,0.0017664713730318688,0.05520527608043325,0.004268473846627611
0.0121034,0.001989282334505695,0.007333021240515746,-0.006178538927794045,-0.0014167193929041787,0.0010470482588030685,0.0020621684086803115,0.055657735660470026,0.004381124586732222
0.012569,0.002015341700603862,0.007759828326243227,-0.004530978338483451,-0.0013787249386801625,0.0010762800938874928,0.0023566147239445262,0.05610598037618715,0.004493140665062876
0.0130345,0.0020414309461880983,0.00818452127025699,-0.002882963184002173,-0.0013410226304884207,0.0011057484813501992,0.002649773579476043,0.0565499604779259,0.004604504844155853
0.0135,0.002067548090487561,0.008607050127802189,-0.001234660183786355,-0.0013036114675635604,0.0011354514661156248,0.0029416085810231246,0.05698962767225292,0.004715200039806632
0.0139655,0.0020936911709331352,0.009027365558913326,0.00041376371261889867,-0.0012664902470889243,0.0011653870405203064,0.003232083689341837,0.05742493513639954,0.0048252093267101975
0.014431,0.002119858243892845,0.009445418840420826,0.002062141346015447,-0.001229657563339246,0.0011955531445334712,0.0035211632299518908,0.05785583753177209,0.00493451594405669
0.0148966,0.0021460473853970007,0.00986116187762235,0.003710305367586545,-0.0011931118069130019,0.001225947665995132,0.003808811902734689,0.05828229101653294,0.005043103301080255
0.0153621,0.0021722566918529894,0.010274547215616053,0.00535808825851997,-0.0011568511640548307,0.001256568440871868,0.004094994791371015,0.058704253257252106,0.005150954982558942
0.0158276,0.002198484280749572,0.010685528050293477,0.007005322349230516,-0.0011208736160683392,0.0012874132535304575,0.004379677372615858,0.059121683439629265,0.0052580547542635395
0.0162931,0.0022247282913505596,0.011094058238990616,0.008651839838192947,-0.0010851769388195644,0.0013184798370295394,0.004662825525407923,0.059534542278286,0.00536438656835316
0.0167586,0.0022509868853777125,0.011500092310796321,0.010297472810396767,-0.0010497587023313162,0.0013497658734294604,0.004944405539811444,0.05994279202562827,0.0054699345687154515
0.0172241,0.002277258247682686,0.011903585476517839,0.011942053255434393,-0.001014616270468593,0.0013812689941204645,0.005224384125787963,0.060346396479779324,0.005574683096249213
0.0176897,0.0023035405869078324,0.0123044936383037,0.013585413085234426,-0.000979746800715226,0.0014129867801693696,0.00550272842179577,0.06074532099158348,0.00567861669408722
0.0181552,0.0023298321361356505,0.012702773398924288,0.015227384151451827,-0.0009451472440418671,0.0014449167626848678,0.005779406003214719,0.0611395324706813,0.005781720112757004
0.0186207,0.0023561311535266532,0.013098382070710539,0.016867798262526875,-0.0009108143448653929,0.001477056423201581,0.006054384890594121,0.06152899939065664,0.0058839783152773275
0.0190862,0.002382435922945417,0.01349127768415114,0.01850648720042509,-0.0008767446410997433,0.0015094031940830021,0.006327633557721441,0.06191369179325585,0.005985376482188057
0.0195517,0.0024087447545745586,0.013881418996148592,0.020143282737070417,-0.0008429344642981797,0.0015419544589434407,0.00659912093950951,0.062293581291679403,0.00608590001651113
0.0200172,0.002435055985516384,0.014268765497934446,0.021778016650484573,-0.0008093799398868913,0.0015747075530891065,0.006868816439699958,0.06266864107294588,0.006185534548640271
0.0204828,0.0024613679803819465,0.01465327742264398,0.023410520740645535,-0.0007760769874898486,0.0016076597639784545,0.007136689938380574,0.06303884589932836,0.006284265941157087
0.0209483,0.0024876791318672402,0.015034915752550594,0.02504062684507879,-0.0007430213213447444,0.0016408083317019223,0.007402711799314303,0.06340417210886296,0.006382080293571121
0.0214138,0.0025139878613162467,0.015413642225960164,0.026668166854195038,-0.0007102084508098266,0.0016741504494811974,0.0076668528770776154,0.06376459761492964,0.006478963946981443
0.0218793,0.0025402926192705424,0.01578941934376549,0.028292972726388428,-0.0006776336809613744,0.0017076832641881531,0.007929084524005979,0.06412010190490527,0.006574903488657296
0.0223448,0.0025665918860051694,0.016162210375661012,0.02991487650290971,-0.0006452921132815281,0.0017414038768836044,0.008189378596944252,0.0644706660378897,0.006669885756535278
0.0228103,0.002592884172050467,0.016531979366017833,0.03153371032252882,-0.0006131786464361442,0.0017753093433760352,0.008447707463799844,0.06481627264150609,0.006763897843630491
0.0232759,0.0026191680186995626,0.01689869113941902,0.033149306436001905,-0.0005812879771423233,0.0018093966748004597,0.008704044009896661,0.06515690590777858,0.006856927102359039
0.0237414,0.002645441998501222,0.017262311305855087,0.03476149722035785,-0.0005496146011252321,0.0018436628382175893,0.008958361644128002,0.06549255158809118,0.006948961148769231
0.0242069,0.0026717047157377447,0.01762280626557947,0.036370115193019914,-0.0005181528141638251,0.0018781047572334713,0.00921063430490696,0.06582319698723331,0.007039987866678724
0.0246724,0.0026979548068875804,0.01798014321362362,0.03797499302577794,-0.0004868967132250622,0.0019127193126397823,0.009460836465913086,0.06614883095653734,0.007129995411714867
0.0251379,0.0027241909410723342,0.018334290143971466,0.03957596355862709,-0.00045584019768620687,0.0019475033430749575,0.009708943141634436,0.06646944388611437,0.007218972215255414
0.0256034,0.002750411820487803,0.018685215853392795,0.04117285981348883,-0.0004249769706447853,0.001982453645706334,0.009954929892704363,0.06678502769619427,0.007306906988266712
0.026069,0.0027766161808186808,0.01903288994493525,0.04276551500782997,-0.00039430054031576873,0.0020175669769334943,0.01019877283103259,0.06709557582757694,0.0073937887250364745
0.0265345,0.0028028027916365524,0.01937728283107469,0.0443537625681952,-0.0003638042215155377,0.002052840053112987,0.010440448624730246,0.06740108323120189,0.007479606706798171
0.027,0.0028289704567808047,0.019718365736523958,0.04593743614366876,-0.0003334811372321661,0.0020882695513045955,0.010679934502828623,0.06770154635684436,0.007564350505244062
0.0274655,0.002855118014722052,0.020056110700700035,0.047516369619280185,-0.0003033242202815461,0.0021238521100393256,0.010917208259791396,0.06799696314094798,0.007648009985923888
0.027931,0.0028812443389077094,0.02039049057984998,0.04909039712936891,-0.00027332621504884695,0.002159584330109252,0.011152248259820082,0.06828733299360516,0.007730575311526155
0.0283966,0.002907348338089351,0.020721479048835985,0.05065935307092233,-0.0002434796793147687,0.002195462775379378,0.011385033440952461,0.068572656784698,0.007812036945038922
0.0288621,0.0029334289566315345,0.021049050602579784,0.05222307211690121,-0.00021377698616601102,0.002231483973621623,0.011615543318953663,0.06885293682921419,0.007892385652786929
0.0293276,0.002959485174801795,0.021373180557166808,0.05378138922956667,-0.0001842103259893375,0.0022676444173710475,0.011843757990999609,0.06912817687175309,0.00797161250734188
0.0297931,0.002985516009041584,0.021693845050610366,0.055334139673822294,-0.00015477170854857512,0.0023039405648044107,0.01206965813915246,0.06939838207023824,0.00804970889030264
0.0302586,0.003011520512217979,0.02201102104327629,0.05688115903058549,-0.0001254529651438522,0.002340368840641138,0.012293225033627739,0.06966355897885451,0.008126666494942095
0.0307241,0.0030374977738560436,0.022324686317968752,0.058422283210202056,-9.624575085234517e-05,0.0023769256370667706,0.01251444053585273,0.06992371553022868,0.008202477328717483
0.0311897,0.003063446920351772,0.02263481947967822,0.05995734846591862,-6.714154684977573e-05,0.0024136073146789486,0.012733287101315839,0.07017886101687355,0.00827713371564102
0.0316552,0.0030893671151655945,0.02294139995499311,0.06148619140742841,-3.8131662811878656e-05,0.0024504102034559887,0.012949747782206644,0.07042900607191617,0.008350628298507712
0.0321207,0.0031152575589964595,0.02324440799117691,0.06300864901450631,-9.20723939503912e-06,0.0024873306037480896,0.013163806229846512,0.0706741626491306,0.00842295404097743
0.0325862,0.003141117489936503,0.023543824654913077,0.06452455865075012,1.9640749204722938e-05,0.0025243647872912095,0.013375446696909751,0.0709143440022959,0.00849410422950845
0.0330517,0.003166946183606339,0.02383963183072027,0.06603375807744569,4.8421492615268363e-05,0.0025615089982436467,0.013584654039435397,0.07114956466389978,0.008564072475139939
0.0335172,0.003192742953270995,0.024131812219040902,0.06753608546757402,7.714434157522236e-05,0.00259875945424535,0.013791413718629754,0.07137984042320858,0.008632852715121072
0.0339828,0.0032185071499364897,0.02442034933400642,0.06903137941997844,0.00010581880514510953,0.0026361123474999805,0.013995711802459815,0.07160518830372377,0.008700439214384638
0.0344483,0.0032442381624270575,0.0247052275008831,0.0705194789737104,0.00013445454784363336,0.0026735638458797403,0.014197534967037738,0.07182562654004455,0.008766826566863223
0.0349138,0.003269935417442987,0.024986431853202554,0.07200022362257182,0.00016306138671000247,0.0027111100940529816,0.014396870497796511,0.07204117455415639,0.00883200969664611
0.0353793,0.0032955983795990434,0.025263948329581395,0.07347345332987257,0.00019164928829321843,0.0027487472146345967,0.014593706290457172,0.07225185293116433,0.008895983858975115
0.0358448,0.003321226551443417,0.02553776367023441,0.07493900854342095,0.00022022836556925853,0.0027864713093591798,0.014788030851788043,0.07245768339448999,0.008958744641077657
0.0363103,0.0033468194734571598,0.0258078654131859,0.07639673021076472,0.0002488088747871075,0.0028242784602769523,0.014979833300156783,0.07265868878055094,0.0090202879628355
0.0367759,0.0033723767240340674,0.02607424189018396,0.07784645979470012,0.00027740121224461276,0.0028621647309724123,0.015169103365876202,0.07285489301294162,0.009080610077287825
0.0372414,0.003397897919440989,0.026336882222322645,0.07928803928906561,0.0003060159109951548,0.002900126167805668,0.015355831391345066,0.07304632107613562,0.009139707570967683
0.0377069,0.0034233827137585787,0.02659577631537732,0.08072131123483685,0.00033466363748613524,0.002938158801176393,0.015540008330985249,0.07323299898873,0.009197577364071393
0.0381724,0.0034488307988025124,0.026850914854858587,0.08214611873653824,0.00036335518813029394,0.0029762586468103213,0.015721625750976714,0.0734149537762536,0.009254216710460863
0.0386379,0.0034742419040252525,0.02710228930079047,0.0835623054789865,0.0003921014858108666,0.0030144217070681876,0.01590067582879179,0.07359221344356223,0.009309623197499417
0.0391034,0.00349961579639847,0.027349891882218702,0.08496971574438043,0.0004209135763215994,0.003052643972276976,0.01607715135253016,0.0737648069468445,0.00936379474572204
0.039569,0.003524952280276263,0.027593715591454862,0.08636819442975056,0.00044980262474264137,0.0030909214220833335,0.016251045720055934,0.07393276416526257,0.009416729608341294
0.0400345,0.0035502511972393515,0.02783375417806219,0.08775758706478197,0.0004787799117533444,0.003129250026828979,0.016422352937938135,0.07409611587225302,0.009468426370590451
0.0405,0.0035755124259204494,0.028070002142588663,0.08913773983002238,0.0005078568298830205,0.0031676257489478975,0.016591067620195743,0.07425489370651278,0.00951888394890567
0.0409655,0.0036007358818110524,0.028302454730053,0.0905084995754873,0.0005370448797007301,0.003206044544385117,0.01675718498684869,0.07440913014269522,0.009568101589949566
0.041431,0.0036259215170498927,0.028531107923189192,0.09186971383967314,0.0005663556659451988,0.003244502364036814,0.01692070086227611,0.07455885846184215,0.009616078869478942
0.0418966,0.003651069320193358,0.02875595843545549,0.09322123086898848,0.0005958008935959833,0.0032829951552114877,0.01708161167338345,0.07470411272157655,0.009662815691059925
0.0423621,0.003676179315968176,0.028977003703813693,0.0945628996376132,0.0006253923638870272,0.0033215188631119308,0.017239914447580346,0.07484492772608058,0.009708312284633964
0.0428276,0.0037012515650066673,0.029194241881284735,0.09589456986779422,0.0006551419702637591,0.0033600694323376837,0.017395606810571396,0.07498133899588337,0.009752569204938404
0.0432931,0.003726286163564905,0.029407671829286497,0.09721609205058629,0.0006850616942849123,0.003398642808407653,0.01754868698396227,0.07511338273748229,0.009795587329785374
0.0437586,0.0037512832432240835,0.02961729310975989,0.09852731746704492,0.0007151636014702636,0.0034372349393025532,0.017699153782683844,0.07524109581282086,0.009837367858202857
0.0442241,0.003776242970575413,0.02982310597708951,0.0998280982098787,0.0007454598370955268,0.003475841777026797,0.017847006612237013,0.07536451570864629,0.009877912308441776
0.0446897,0.003801165546888823,0.030025111369825285,0.10111828720556675,0.0007759626219356633,0.0035144592791894556,0.01799224546576104,0.07548368050576872,0.009917222515852957
0.0451552,0.0038260512077657196,0.03022331090221204,0.10239773823694681,0.0008066842479579136,0.003553083410603865,0.018134870920928182,0.07559862884824464,0.00995530063063776
0.0456207,0.003850900222776059,0.03041770685553407,0.1036663059662787,0.000837637073965889,0.0035917101449054315,0.018274884136667377,0.07570939991250611,0.009992149115476174
0.0460862,0.0038757128950799515,0.030608302169282293,0.104923845958787,0.0008688335211960967,0.0036303354661871732,0.01841228684971991,0.07581603337645741,0.010027770743036148
0.0465517,0.00390048956103399,0.03079510043215163,0.10617021470668621,0.0009002860688683031,0.0036689553706524976,0.01854708137103,0.07591856938856063,0.010062168593367806
0.0470172,0.003925230589782479,0.030978105872876305,0.10740526965369089,0.0009320072496911672,0.003707565868284679,0.018679270581973485,0.07601704853693145,0.01009534605118624
0.0474828,0.003949936382833718,0.031157323350910985,0.10862886922001225,0.0009640096453245956,0.003746162984532483,0.018808857930427948,0.0761115118184662,0.01012730680304647
0.0479483,0.003974607373621479,0.03133275834696535,0.10984087282784212,0.0009963058818002956,0.003784742762011363,0.0189358474266878,0.07620200060802142,0.010158054834414086
0.0484138,0.003999244027051798,0.03150441695339977,0.11104114092732437,0.0010289086249020065,0.003823301262219615,0.01906024363922793,0.07628855662766668,0.010187594426635074
0.0488793,0.004023846839035244,0.0316723058644897,0.11222953502301297,0.0010618305755068984,0.0038618345672688783,0.019182051690319828,0.07637122191603173,0.010215930153808244
0.0493448,0.004048416336004836,0.03183643236656627,0.11340591770081491,0.0010950844648896319,0.0039003387816283473,0.019301277251503966,0.07645003879776859,0.010243066879563658
0.0498103,0.004072953074419815,0.031996804328040855,0.11457015265541529,0.0011286830499905624,0.003938810033882018,0.01941792653892254,0.07652504985314945,0.010269009753750497
0.0502759,0.004097457640255561,0.03215343018932158,0.11572210471818126,0.0011626391086495794,0.003977244478498321,0.019532006308516637,0.07659629788782081,0.010293764209037664
0.0507414,0.004121930648479971,0.032306318952629705,0.11686163988554046,0.0011969654348070586,0.004015638297611452,0.019643523851091922,0.07666382590273438,0.010317335957430493
0.0512069,0.0041463727425166625,0.032455480171724144,0.11798862534782824,0.0012316748336734147,0.004053987702813694,0.019752486987257015,0.07672767706427484,0.010339730986706808
0.0516724,0.004170784593695403,0.03260092394154254,0.11910292951859748,0.001266780116868739,0.004092288936958042,0.019858904062238628,0.0767878946746046,0.010360955556775516
0.0521379,0.0041951669006901875,0.03274266088776738,0.1202044220643836,0.0013022940975340137,0.004130538275970411,0.019962783940577513,0.07684452214224544,0.010381016195960817
0.0526034,0.004219520388945347,0.03288070215632598,0.12129297393491635,0.0013382295854153978,0.004168732030670695,0.020064136000709176,0.07689760295291681,0.01039991969721509
0.053069,0.004243845810090071,0.03301505940283337,0.12236845739376911,0.0013745993819230856,0.004206866548601951,0.020162970129433227,0.0769471806406501,0.010417673114263374
0.0535345,0.004268143941341689,0.033145744781987126,0.12343074604943494,0.00141141627516624,0.00424493821586696,0.020259296716275313,0.07699329875919804,0.010434283757682364
0.054,0.004292415584898037,0.03327277093692324,0.12447971488681814,0.0014486930349655153,0.004282943458971403,0.020353126647745422,0.07703600085375834,0.010449759190916773
0.0544655,0.0043166615673192075,0.03339615098854226,0.1255152402991289,0.0014864424078446892,0.004320878746672889,0.02044447130149648,0.0770753304330299,0.010464107226235832
0.054931,0.004340882738898923,0.033515898524814576,0.12653720012016717,0.001524677112002948,0.00435874059183503,0.02053334254038705,0.07711133094161982,0.010477335920632712
0.0553966,0.004365079973025778,0.033632027590073756,0.12754547365698155,0.001563409832269395,0.004396525553285782,0.02061975270645203,0.07714404573281855,0.010489453571669555
0.0558621,0.0043892541655345535,0.03374455267430671,0.1285399417228867,0.0016026532150413876,0.00443423023767918,0.020703714614785127,0.07717351804176054,0.01050046871327076
0.0563276,0.004413406234047789,0.0338534887024495,0.12952048667082353,0.0016424198632083433,0.004471851301359644,0.020785241547336943,0.07719979095898652,0.010510390111467179
0.0567931,0.004437537117307802,0.033958851023697605,0.13048699242704345,0.001682722331062684,0.004509385452227949,0.020864347246632324,0.07722290740442347,0.010519226760093788
0.0572586,0.004461647774499339,0.03406065540083959,0.13143934452509867,0.0017235731191996148,0.004546829451607959,0.020941045909410694,0.07724291010179747,0.010526987876443508
0.0577241,0.004485739184563061,0.0341589179996231,0.13237743014011763,0.001764984669407456,0.004584180116113157,0.021015352180192945,0.07725984155349427,0.010533682896879702
0.0581897,0.0045098123455000385,0.034253655378161704,0.13330113812334474,0.0018069693595502575,0.004621434319511989,0.021087281144778428,0.07727374401588218,0.010539321472409942
0.0586552,0.004533868273667467,0.034344884476391314,0.1342103590369222,0.0018495394984444334,0.0046585889945909955,0.021156848323675582,0.07728465947511083,0.010543913464223585
0.0591207,0.0045579080030658204,0.03443262260558433,0.13510498518889058,0.0018927073207311506,0.0046956411350146795,0.021224069665469594,0.07729262962339994,0.010547468939195642
0.0595862,0.004581932584617681,0.03451688743792961,0.13598491066838375,0.0019364849817462048,0.0047325877971810355,0.021288961540130588,0.07729769583583085,0.010549998165359386
0.0600517,0.0046059430854385065,0.03459769699618593,0.1368500313809924,0.00198088455238911,0.004769426102071641,0.02135154073226566,0.0772998991476536,0.010551511607350062
0.0605172,0.004629940588099652,0.03467506964341633,0.1377002450842697,0.002025918013993137,0.0048061532370951825,0.021411824434318015,0.07729928023212154,0.010552019921822007
0.0609828,0.004653926189883952,0.03474902407281056,0.13853545142335139,0.0020715972531980377,0.004842766457923282,0.02146983023971638,0.07729587937886462,0.010551533952841394
0.0614483,0.004677901002034206,0.03481957929760245,0.13935555196666097,0.0021179340568272254,0.004879263090317478,0.02152557613597778,0.07728973647281212,0.010550064727256793
0.0619138,0.004701866148994883,0.03488675464108881,0.1401604502416706,0.0021649401067711754,0.0049156405319462065,0.021579080497766554,0.07728089097367505,0.010547623450049549
0.0623793,0.004725822767647375,0.03495056972675613,0.1409500517706858,0.002212626974878835,0.004951896254190613,0.021630362079912487,0.07726938189599718,0.010544221499666016
0.0628448,0.004749772006539096,0.035011044468521144,0.1417242641066224,0.0022610061178588367,0.0049880278039380445,0.02167944001039074,0.07725524778978389,0.010539870423333564
0.0633103,0.00477371502510676,0.03506819906109091,0.14248299686874133,0.002310088872192317,0.005024032805362035,0.02172633378326632,0.07723852672171683,0.010534581932362196
0.0637759,0.004797652992894141,0.0351220539704478,0.14322616177830744,0.00235988644905915,0.005059908961687632,0.021771063251605598,0.07721925625696212,0.010528367897433636
0.0642414,0.004821587088764653,0.03517262992446465,0.14395367269413556,0.0024104099292794304,0.00509565405694089,0.02181364862035749,0.07719747344157926,0.010521240343879667
0.0647069,0.0048455185001090575,0.03521994790365495,0.14466544564798728,0.0024616702582720535,0.005131265957681367,0.021854110439206688,0.07717321478553711,0.010513211446951512
0.0651724,0.004869448422048617,0.03526402913206268,0.14536139887977992,0.0025136782410322333,0.0051667426147164585,0.021892469595401195,0.07714651624634312,0.010504293527082084
0.0656379,0.004893378056633961,0.035304895068296205,0.14604145287256834,0.0025664445371298117,0.005202082064796427,0.021928747306556345,0.07711741321329142,0.01049449904514286
0.0661034,0.004917308612039926,0.03534256739671048,0.14670553038725914,0.002619979655730185,0.005237282432288959,0.021962965113437212,0.07708594049233487,0.010483840597697152
0.066569,0.004941241301756559,0.0353770680187416,0.14735355649701587,0.002674293950639681,0.005272341930832109,0.021995144872721157,0.077052132291586,0.010472330912251518
0.0670345,0.00496517734377648,0.035408419044397406,0.14798545862131274,0.0027293976153772177,0.005307258864964469,0.02202530874974217,0.07701602220745155,0.010459982842507053
0.0675,0.004989117959778768,0.035436642783907756,0.14860116655959454,0.002785300678274071,0.00534203163173143,0.022053479211218426,0.07697764321140461,0.010446809363612274
0.0679655,0.005013064374309512,0.035461761739537814,0.14920061252449895,0.0028420129976035927,0.005376658722266387,0.022079679017964256,0.07693702763739801,0.010432823567419303
0.068431,0.005037017813959144,0.035483798597567485,0.14978373117459834,0.002899544256742702,0.0054111387233457195,0.022103931217587743,0.0768942071699222,0.010418038657745104
0.0688966,0.005060979506536717,0.035502776220439916,0.15035045964661817,0.002957903959366983,0.005445470318916404,0.022126259137174805,0.07684921283271039,0.0104024679456395
0.0693621,0.0050849506802412275,0.03551871763908175,0.15090073758708955,0.0030171014246811734,0.005479652291595037,0.022146686375960813,0.07680207497809342,0.010386124844661813
0.0698276,0.0051089325628301905,0.03553164604539748,0.1514345071833959,0.0030771457826868596,0.005513683524137129,0.022165236797990713,0.0767528232770061,0.010369022866167978
0.0702931,0.0051329263807856716,0.03554158478493996,0.15195171319417508,0.00313804596948913,0.005547563000875519,0.022181934524768705,0.07670148670964665,0.010351175614610048
0.0707586,0.005156933358478048,0.03554855734975889,0.15245230297904105,0.003199810722643949,0.005581289809126886,0.02219680392789857,0.07664809355679042,0.010332596782850046
0.0712241,0.00518095471732782,0.03555258737142871,0.15293622652759278,0.0032624485765480036,0.005614863140565326,0.022209869621715957,0.0765926713917585,0.010313300147490186
0.0716897,0.0052049916749658375,0.03555369861425719,0.15340343648768026,0.0033259678578727407,0.005648282292562116,0.022221156455913924,0.07653524707304159,0.010293299564221444
0.0721552,0.005229045444392372,0.03555191496867562,0.1538538881929014,0.0033903766810443148,0.005681546669490736,0.022230689508163304,0.07647584673757916,0.010272608963192527
0.0726207,0.00525311723313547,0.035547260444811435,0.15428753968930517,0.00345568294377115,0.005714655783996313,0.022238494076729544,0.07641449579469378,0.010251242344401171
0.0730862,0.005277208242409099,0.03553975916624375,0.1547043517612772,0.0035218943226208105,0.005747609258228699,0.022244595673087522,0.07635121892067959,0.010229213773109733
0.0735517,0.005301319666271613,0.03552943536394251,0.15510428795658585,0.003589018268647868,0.005780406825038489,0.022249020014536006,0.0762860400540444,0.010206537375286926
0.0740172,0.005325452690785112,0.035516313370391364,0.15548731461056692,0.003657062003074447,0.0058130483291353825,0.022251793016813196,0.0762189823914038,0.01018322733307749
0.0744828,0.0053496084931762946,0.03550041761389466,0.15585340086942828,0.0037260325130251486,0.005845533728208269,0.02225294078671491,0.07615006838402584,0.01015929788030149
0.0749483,0.0053737882409994175,0.03548177261306867,0.156202518712658,0.0037959365473180942,0.005877863094006484,0.022252489614716667,0.07607931973502403,0.010134763297984897
0.0754138,0.005397993091302003,0.03546040297151697,0.15653464297452496,0.0038667806123138947,0.005910036613381629,0.022250465967601017,0.07600675739719616,0.010109637909922977
0.0758793,0.005422224189793939,0.03543633337268976,0.15684975136466545,0.003938570967824436,0.005942054589289347,0.022246896481091363,0.07593240157150584,0.010083936078277993
0.0763448,0.005446482670020634,0.035409588574926515,0.15714782448775358,0.004011313623083465,0.00597391744175046,0.02224180795249333,0.07585627170620354,0.010057672199212579
0.0768103,0.0054707696525408715,0.03538019340668142,0.15742884586225817,0.0040850143327810055,0.006005625708770888,0.022235227333344643,0.0757783864965831,0.010030860698560101
0.0772759,0.0054950862441100435,0.03534817276193043,0.15769280193829105,0.004159678593163701,0.006037180047219841,0.022227181722074454,0.07569876388536945,0.010003516027533263
0.0777414,0.0055194335368694185,0.03531355159575877,0.1579396821145531,0.004235311638203225,0.006068581233665814,0.022217698356672762,0.07561742106373287,0.00997565265847211
0.0782069,0.005543812607542074,0.03527635492012726,0.1581694787543851,0.004311918435834885,0.006099830165169949,0.02220680460737055,0.07553437447292424,0.00994728508063257
0.0786724,0.0055682245166361515,0.03523660779981575,0.15838218720093117,0.004389503684268607,0.006130927860036322,0.02219452796933104,0.07544963980652548,0.009918427796016604
0.0791379,0.005592670307656031,0.035194335348541494,0.15857780579142045,0.004468071808374464,0.006161875458518702,0.02218089605535243,0.07536323201330881,0.009889095315245013
0.0796034,0.0056171510063220634,0.03514956272525057,0.15875633587057364,0.004547626956145027,0.006192674223483365,0.02216593658858225,0.07527516530069794,0.009859302153473939
0.080069,0.005641667619799445,0.035102315130579945,0.158917781803138,0.004628172995236862,0.006223325541027491,0.022149677395243473,0.07518545313882379,0.00982906282635612
0.0805345,0.005666221135936831,0.035052617803487764,0.15906215098555437,0.004709713509593633,0.0062538309210527,0.022132146397372144,0.07509410826516692,0.009798391846047978
0.081,0.0056908125225152645,0.03500049601804927,0.15918945385675873,0.004792251796153319,0.006284191997793215,0.022113371605566364,0.07500114268977823,0.00976730371726368
0.0814655,0.0057154427265080025,0.03494597508041556,0.15929970390811976,0.004875790861642166,0.006314410530298167,0.022093381111746233,0.0749065677010689,0.009735812933377372
0.081931,0.005740112673351826,0.034889080325932374,0.15939291769251357,0.004960333419457957,0.006344488402867489,0.022072203081924223,0.0748103938721605,0.009703933972574774
0.0823966,0.005764823266230434,0.03482983711641574,0.15946911483253517,0.005045881886645228,0.006374427625440807,0.022049865748985337,0.07471263106778502,0.009671681294055373
0.0828621,0.005789575385370544,0.03476827083758124,0.15952831802784623,0.005132438380965028,0.006404230333938712,0.022026397405476374,0.07461328845172491,0.009639069334286425
0.0833276,0.0058143698873513875,0.0347044068966235,0.1595705530616568,0.005220004718061775,0.00643389879055578,0.02200182639640356,0.07451237449478225,0.009606112503309932
0.0837931,0.0058392076044283744,0.03463827071994233,0.15959584880633892,0.005308582408729738,0.006463435384004659,0.021976181112037738,0.07440989698326658,0.009572825181103792
0.0842586,0.0058640893438717005,0.034569887751011476,0.15960423722816808,0.005398172656281637,0.00649284262971054,0.021949489980726235,0.07430586302799023,0.009539221713998212
0.0847241,0.005889015887320726,0.03449928344838601,0.15959575339118812,0.00548877635402183,0.006522123169955267,0.021921781461710612,0.07420027907376066,0.00950531641114848
0.0851897,0.0059139879901549865,0.034426483283843776,0.15957043546019511,0.005580394082826478,0.006551279773970335,0.02189308403794954,0.07409315090935886,0.009471123541065165
0.0856552,0.005939006380882722,0.03435151274065656,0.15952832470283468,0.005673026108833075,0.006580315337978005,0.021863426208946223,0.07398448367799298,0.009436657328202761
0.0861207,0.005964071760547824,0.034274397311986025,0.15946946549080745,0.005766672381241665,0.006609232885179783,0.021832836483579955,0.07387428188821575,0.009401931949607813
0.0865862,0.0059891848021561,0.034195162499399544,0.15939390530017755,0.005861332530230047,0.006638035565691548,0.02180134337294159,0.07376254942529407,0.009366961531627528
0.0870517,0.006014346150121767,0.03411383381150065,0.15930169471077874,0.0059570058649852,0.006666726656424638,0.021768975383172882,0.07364928956301847,0.009331760146679895
0.0875172,0.006039556419735094,0.03403043676266885,0.15919288740471255,0.006053691371853183,0.006695309560912215,0.021735761008309894,0.07353450497593986,0.009296341810086315
0.0879828,0.0060648161966520885,0.03394499687190317,0.15906754016393224,0.006151387712609704,0.006723787809080151,0.021701728723131048,0.07341819775202098,0.009260720476967766
0.0884483,0.006090126036407149,0.033857539661763816,0.15892571286690504,0.006250093222853556,0.006752165056961714,0.02166690697601057,0.07330036940568957,0.00922491003920547
0.0889138,0.006115486463949585,0.03376809065740594,0.15876746848434445,0.006349805910525094,0.006780445086355251,0.02163132418177865,0.07318102089128065,0.009188924322467007
0.0893793,0.006140897973204935,0.033676675385699635,0.1585928730740029,0.006450523454551959,0.006808631804424129,0.021595008714589744,0.07306015261685483,0.009152777083298733
0.0898448,0.006166361026661973,0.03358331937442974,0.15840199577451394,0.006552243203624177,0.006836729243238202,0.021557988900800643,0.07293776445837952,0.009116482006285313
0.0903103,0.006191876054986288,0.03348804815156926,0.15819490879827197,0.006654962175100779,0.0068647415592561715,0.021520293011860325,0.07281385577425903,0.009080052701277153
0.0907759,0.006217443456661306,0.03339088724461958,0.15797168742333678,0.006758677054050068,0.006892673032748233,0.021481949257213445,0.07268842542020082,0.009043502700686464
0.0912414,0.006243063597657564,0.03329186218001072,0.1577324099843484,0.006863384192425593,0.00692052806715843,0.021442985777219627,0.07256147176440403,0.00900684545685267
0.0917069,0.006268736811130997,0.03319099848255447,0.15747715786243713,0.006969079608379938,0.00694831118840615,0.02140343063609062,0.07243299270305793,0.008970094339477826
0.0921724,0.006294463397150987,0.03308832167494329,0.1572060154741134,0.007075758985718364,0.006976027044126254,0.0213633118148474,0.07230298567613805,0.008933262633132686
0.0926379,0.0063202436224588324,0.03298385727728757,0.1569190702591213,0.00718341767349435,0.007003680402847372,0.021322657204299055,0.07217144768348817,0.00889636353483403
0.0931034,0.006346077720257294,0.03287763080668401,0.1566164126672404,0.00729205068574904,0.0070312761531079885,0.02128149459804518,0.07203837530117653,0.008859410151693786
0.093569,0.006371965890031773,0.032769667776808176,0.15629813614402044,0.0074016527013965935,0.007058819302510103,0.021239851685503453,0.07190376469811452,0.008822415498640473
0.0940345,0.006397908297403686,0.03265999369752446,0.1559643371154339,0.007512218064257377,0.007086314976710349,0.021197756044963736,0.0717676116529263,0.008785392496213412
0.0945,0.006423905074016503,0.03254863407450718,0.15561511497143315,0.0076237407832408875,0.00711376841834864,0.02115523513667014,0.07162991157105755,0.008748353968430085
0.0949655,0.00644995631745491,0.03243561440886687,0.15525057204839934,0.007736214532680228,0.007141184985914476,0.0211123162959322,0.07149065950211117,0.00871131264072699
0.095431,0.006476062091197489,0.032320960196776306,0.15487081361047278,0.007849632652819946,0.0071685701525512095,0.021069026726266548,0.0713498501573976,0.008674281137974235
0.0958966,0.006502222424603271,0.0322046969290909,0.1544759478297571,0.007963988150458942,0.007195929504798718,0.021025393492570293,0.07120747792768703,0.008637271982564108
0.0963621,0.006528437312932466,0.032086850090958643,0.15406608576539144,0.008079273699750117,0.0072232687412750905,0.020981443514327652,0.0710635369011508,0.008600297592573773
0.0968276,0.006554706717401625,0.0319674451614148,0.15364134134148819,0.008195481643158368,0.007250593671298045,0.020937203558851376,0.07091802088147912,0.008563370280002204
0.0972931,0.006581030565273464,0.03184650761295715,0.15320183132393678,0.008312603992578474,0.00727791021344685,0.020892700234560697,0.07077092340616238,0.008526502249081436
0.0977586,0.006607408749981516,0.03172406291109761,0.15274767529607639,0.008430632430614347,0.007305224394065543,0.020847959984297712,0.07062223776492296,0.008489705594662151
0.0982241,0.00663384113128973,0.03160013651388645,0.15227899563324282,0.008549558312021033,0.007332542345708255,0.02080300907868412,0.07047195701828407,0.008452992300673699
0.0986897,0.006660327535487128,0.031474753871405296,0.15179591747619628,0.008669372665310836,0.007359870305527422,0.020757873609520455,0.07032007401626195,0.008416374238658632
0.0991552,0.006686867755617581,0.03134794042522516,0.15129856870343736,0.008790066194524807,0.007387214613605771,0.02071257948322983,0.07016658141716739,0.008379863166381915
0.0996207,0.0067134615517447935,0.03121972160782587,0.15078707990241874,0.008911629281170794,0.0074145817112329605,0.02066715241434829,0.07001147170650233,0.008343470726514965
0.1000862,0.00674010865125258,0.031090122841973763,0.15026158433966008,0.009034051986329235,0.0074419781391279255,0.020621617919063973,0.06985473721593669,0.00830720844539467
0.1005517,0.006766808749180498,0.030959169540054527,0.14972221792977256,0.009157324052927764,0.007469410535607911,0.020576001308807462,0.06969637014235035,0.008271087731857548
0.1010172,0.006793561508594968,0.03082688710335866,0.14916911920340017,0.009281434908185672,0.007496885634705273,0.020530327683896257,0.06953636256692497,0.008235119876149236
0.1014828,0.006820366560995952,0.03069330092131715,0.14860242927408449,0.009406373666229234,0.007524410264232994,0.020484621927236824,0.06937470647426955,0.008199316048909477
0.1019483,0.006847223506759256,0.03055843637068532,0.1480222918040587,0.009532129130878872,0.007551991343799917,0.02043890869808831,0.06921139377156327,0.008163687300232843
0.1024138,0.006874131915614478,0.030422318814672774,0.14742885296897706,0.009658689798609066,0.007579635882776563,0.020393212425892628,0.06904641630769878,0.0081282445588054
0.1028793,0.006901091327158635,0.030284973602017564,0.14682226142158428,0.00978604386168184,0.00760735097821239,0.020347557304175968,0.0688797658924087,0.008092998631117516
0.1033448,0.006928101251405456,0.03014642606600267,0.1462026682543303,0.009914179211454635,0.0076351438127052595,0.020301967284526976,0.06871143431535738,0.00805796020075303
0.1038103,0.006955161169370354,0.030006701523412685,0.14557022696093452,0.010043083441863287,0.007663021652223847,0.02025646607065691,0.06854141336517959,0.008023139827754886
0.1042759,0.006982270533691072,0.02986582527342864,0.1449250933969046,0.01017274385308073,0.007690991843883639,0.020211077112547063,0.0683696948484471,0.007988547948067356
0.1047414,0.007009428769284003,0.029723822596458595,0.1442674257390143,0.010303147455352046,0.0077190618136771276,0.020165823600688495,0.06819627060854386,0.007954194873054871
0.1052069,0.007036635274036177,0.029580718752901733,0.14359738444374634,0.010434280973006282,0.007747239064158757,0.0201207284604192,0.06802113254442965,0.007920090789097427
0.1056724,0.007063889419532877,0.029436538981843233,0.142915132204707,0.010566130848645501,0.007775531172085078,0.02007581434636345,0.06784427262927173,0.007886245757262511
0.1061379,0.007091190551820834,0.02929130849967729,0.1422208339090227,0.01069868324751134,0.0078039457860105774,0.020031103636978142,0.06766568292892354,0.007852669713053423
0.1066034,0.007118537992206958,0.029145052498655448,0.14151465659273266,0.010831924062029312,0.007832490623839592,0.019986618429210713,0.06748535562022981,0.007819372466233813
0.107069,0.00714593103809252,0.028997796145357378,0.14079676939519567,0.01096583891653101,0.007861173470334751,0.019942380533273046,0.06730328300913781,0.007786363700728203
0.1075345,0.007173368963842742,0.028849564579081385,0.14006734351253483,0.011100413172154286,0.007890002174582408,0.01989841146753567,0.06711945754859625,0.007753652974598181
0.108,0.00720085102169174,0.028700382910152013,0.13932655215014758,0.011235631931921432,0.0079189846474156,0.01985473245354638,0.06693387185622425,0.00772124972009391
0.1084655,0.007228376442682744,0.028550276218142538,0.13857457047431232,0.011371480045995282,0.007948128858795101,0.019811364411177285,0.06674651873173502,0.00768916324378054
0.108931,0.007255944437643535,0.028399269550010476,0.13781157556292606,0.011507942117113071,0.00797744283514916,0.019768327953904073,0.06655739117409999,0.0076574027267390125
0.1093966,0.007283554198196974,0.028247387918144566,0.13703774635540852,0.011645002506197842,0.008006934656672586,0.01972564338422115,0.06636648239844091,0.007625977224840764
0.1098621,0.007311204897806466,0.028094656298322026,0.136253263601809,0.011782645338147114,0.008036612454585859,0.019683330689196126,0.06617378585263924,0.007594895669095737
0.1103276,0.00733889569285616,0.02794109962757519,0.13545830981115195,0.011920854507798428,0.00806648440835496,0.019641409536167016,0.06597929523365413,0.007564166866073081
0.1107931,0.007366625723765619,0.027786742801966885,0.1346530691990566,0.012059613686071322,0.008096558742872661,0.019599899268585293,0.0657830045035423,0.0075337994983939085
0.1112586,0.007394394116138689,0.02763161067427396,0.13383772763466498,0.012198906326285218,0.008126843725601959,0.01955881890200787,0.06558490790517399,0.007503802125295437
0.1117241,0.007422199981946215,0.027475728051578666,0.13301247258691254,0.01233871567065267,0.00815734766368236,0.01951818712024087,0.0653849999776401,0.00747418318326584
0.1121897,0.007450042420742269,0.027319119692767718,0.13217749307017485,0.012479024756947264,0.008188078900999748,0.01947802227163794,0.06518327557134548,0.007444950986749108
0.1126552,0.0074779205209135275,0.02716181030593928,0.13133297958932305,0.012619816425345438,0.00821904581522059,0.01943834236555568,0.06497972986278344,0.007416113728919223
0.1131207,0.007505833360961412,0.027003824545718612,0.1304791240842208,0.012761073325441345,0.008250256814791312,0.019399165068968605,0.06477435836898626,0.007387679482522864
0.1135862,0.0075337800108166144,0.026845187010483575,0.1296161198736947,0.012902777923433834,0.008281720335903756,0.019360507703245954,0.06456715696164726,0.007359656200789898
0.1140517,0.007561759533185615,0.026685922239501794,0.12874416159901028,0.013044912509484476,0.008313444839427673,0.019322387241092472,0.0643581218809093,0.007332051718410815
0.1145172,0.007589770984928764,0.026526054709981962,0.1278634451668851,0.013187459205245493,0.008345438807811254,0.019284820303655126,0.0641472497488152,0.007304873752580213
0.1149828,0.007617813418469494,0.02636560883404242,0.12697416769207068,0.013330399971556307,0.008377710741950607,0.0192478231577976,0.06393453758241542,0.0072781299041054
0.1154483,0.007645885883234177,0.026204608955600554,0.12607652743953437,0.013473716616307398,0.008410269158029117,0.019211411713544194,0.06371998280652781,0.007251827658579129
0.1159138,0.0076739874271221,0.02604307934718685,0.12517072376627245,0.013617390802470045,0.008443122584327488,0.019175601521694688,0.06350358326614433,0.007225974387615399
0.1163793,0.007702117098005014,0.025881044206687617,0.12425695706278533,0.013761404056290456,0.008476279558005242,0.01914040777161145,0.06328533723847915,0.007200577350147232
0.1168448,0.007730273945255659,0.025718527654020554,0.12333542869424628,0.013905737775646743,0.008509748621854375,0.019105845289180013,0.06306524344465202,0.0071756436937852625
0.1173103,0.007758457021304709,0.02555555372774743,0.12240634094139503,0.014050373238567112,0.008543538321025827,0.01907192853494415,0.06284330106100051,0.007151180456235918
0.1177759,0.007786665383225532,0.02539214638162811,0.12146989694118829,0.014195291611907567,0.008577657199729407,0.019038671602416395,0.06261950973001444,0.007127194566777942
0.1182414,0.00781489809434618,0.025228329481120138,0.12052630062723953,0.014340473960187405,0.008612113797907777,0.0190060882165648,0.06239386957088532,0.00710369284779596
0.1187069,0.007843154225888044,0.025064126799827953,0.11957575667008123,0.014485901254580661,0.008646916647885272,0.018974191732476695,0.062166381189664194,0.007080682016369713
0.1191724,0.007871432858630572,0.024899562015905662,0.11861847041728328,0.014631554382061606,0.008682074270992325,0.01894299513419997,0.06193704568902072,0.007058168685917602
0.1196379,0.007899733084601578,0.024734658708417276,0.11765464783346066,0.014777414154702344,0.008717595174166455,0.01891251103376251,0.061705864677597096,0.007036159367893164
0.1201034,0.007928054008792684,0.024569440353658194,0.11668449544020443,0.014923461319120429,0.008753487846530818,0.01888275167037009,0.06147284027895018,0.007014660473533089
0.120569,0.007956394750899614,0.02440393032144203,0.11570822025596904,0.01506967656607432,0.008789760755951418,0.01885372890978311,0.06123797514007551,0.006993678315655388
0.1210345,0.007984754447087144,0.02423815187135679,0.11472602973594834,0.015216040540204432,0.008826422345574214,0.018825454243872327,0.06100127243950704,0.006973219110506319
0.1215,0.008013132251778582,0.024072128148994773,0.11373813171197196,0.015362533849917329,0.008863481030343475,0.018797938790353606,0.0607627358949866,0.006953288979654696
0.1219655,0.00804152733946971,0.023905882182160627,0.11274473433245287,0.015509137077410529,0.00890094519350303,0.018771193292701636,0.06052236977069724,0.006933893951932204
0.122431,0.00806993890656711,0.023739436877062075,0.11174604600241579,0.015655830788835205,0.008938823183082307,0.01874522812024242,0.06028017888405534,0.006915039965418334
0.1228966,0.008098366173250757,0.02357281501448792,0.11074227532363562,0.015802595544594004,0.008977123308369455,0.0187200532684242,0.06003616861205697,0.006896732869468581
0.1233621,0.008126808385360848,0.023406039245977978,0.10973363103491479,0.015949411909770995,0.009015853836374071,0.018695678359266384,0.05979034489717483,0.006878978426784522
0.1238276,0.008155264816308759,0.023239132089989584,0.10872032195252743,0.01609626046469069,0.009055022988282247,0.01867211264198595,0.059542714252802234,0.006861782315524436
0.1242931,0.008183734769012095,0.02307211592806519,0.10770255691085837,0.016243121815602935,0.009094638935906806,0.018649364993800585,0.059293283768241334,0.006845150131453081
0.1247586,0.00821221757785385,0.022905013001005413,0.10668054470326475,0.016389976605490363,0.009134709798135602,0.018627443920907642,0.05904206111323327,0.006829087390129276
0.1252241,0.008240712610665682,0.02273784540505185,0.10565449402318734,0.016536805524994945,0.009175243637380757,0.018606357559637972,0.05878905454202889,0.006813599529129913
0.1256897,0.008269219270735305,0.022570635088083862,0.10462461340553829,0.01668358932346011,0.009216248456031665,0.018586113677783393,0.05853427289699969,0.006798691910309031
0.1261552,0.008297736998838037,0.02240340384583341,0.10359111116839137,0.016830308820084804,0.009257732192914571,0.01856671967609652,0.05827772561178971,0.0067843698220905555
0.1266207,0.00832626527529244,0.022236173318121968,0.10255419535499997,0.016976944915185657,0.009299702719761405,0.018548182589961427,0.05801942271400935,0.006770638481793292
0.1270862,0.008354803622039995,0.02206896498512341,0.10151407367616734,0.017123478601563477,0.009342167837690547,0.018530509091233594,0.05775937482747255,0.006757503037986754
0.1275517,0.008383351604748637,0.021901800163656657,0.10047095345299335,0.017269890975970044,0.009385135273702085,0.01851370549024748,0.05749759317397865,0.0067449685728763545
0.1280172,0.008411908834939997,0.021734700003511864,0.09942504156002159,0.017416163250671166,0.009428612677190076,0.018497777737990006,0.05723408957463985,0.006733040104716458
0.1284828,0.008440474972140115,0.0215676854838137,0.09837654436881003,0.017562276765101813,0.009472607616474261,0.01848273142843821,0.05696887645075528,0.006721722590249753
0.1289483,0.008469049726053326,0.021400777409425257,0.09732566769194852,0.017708212997609094,0.0095171275753536,0.018468571801059437,0.05670196682423263,0.006711020927171421
0.1294138,0.008497632858758958,0.021233996407395917,0.09627261672754546,0.017853953577278706,0.00956217994968393,0.01845530374347237,0.056433374317558786,0.00670093995661653
0.1298793,0.008526224186930472,0.0210673629234564,0.09521759600420672,0.01799948029584042,0.009607772043982062,0.018442931794267373,0.0561631131533212,0.0066914844656691015
0.1303448,0.0085548235840765,0.020900897218564064,0.09416080932652819,0.018144775119647908,0.00965391106805853,0.018431460145984613,0.05589119815328248,0.006682659189891325
0.1308103,0.008583430982803274,0.020734619365501323,0.0931024597211238,0.018289820201728244,0.009700604133681236,0.018420892648248453,0.055617644737011245,0.00667446881587142
0.1312759,0.008612046377097848,0.020568549245529925,0.0920427493832102,0.018434597893896145,0.009747858251272168,0.018411232811056662,0.05534246892007219,0.006666917983788626
0.1317414,0.008640669824631516,0.020402706545103684,0.09098187962376839,0.018579090758927944,0.00979568032663942,0.018402483808222982,0.05506568731177879,0.006660011289993886
0.1322069,0.008669301449082787,0.020237110752642028,0.08992005081730164,0.018723281582790054,0.009844077157746623,0.018394648480971488,0.05478731711251182,0.006653753289604801
0.1326724,0.008697941442479293,0.02007178115536663,0.08885746235020932,0.018867153386916705,0.009893055431521934,0.018387729341681147,0.054507376110607346,0.00664814849911344
0.1331379,0.00872659006755798,0.019906736836203226,0.08779431256979445,0.019010689440531445,0.009942621720708656,0.01838172857777897,0.05422588267881841,0.006643201399005643
0.1336034,0.008755247660142976,0.019741996670750654,0.08673079873392275,0.019153873273006904,0.009992782480759537,0.018376648055780105,0.053942855770355715,0.006638916436390405
0.134069,0.00878391463154048,0.019577579324319,0.08566711696135047,0.01929668868625712,0.010043544046776756,0.018372489325473258,0.05365831491451358,0.006635298027637963
0.1345345,0.008812591470950005,0.01941350324903867,0.0846034621827373,0.019439119767156655,0.010094912630499593,0.018369253624249907,0.0533722802118882,0.006632350561025182
0.135,0.008841278747891281,0.019249786681042123,0.08354002809236033,0.019581150899980516,0.010146894317341722,0.018366941881575824,0.053084772329195735,0.006630078399386808
0.1354655,0.008869977114646075,0.01908644763771994,0.08247700710054459,0.019722766778858813,0.010199495063480038,0.018365554723603402,0.05279581249369766,0.006628485882771192
0.135931,0.008898687308714093,0.018923503915052802,0.08141459028682484,0.01986395242023991,0.010252720692996875,0.018365092477923266,0.05250542248724095,0.006627577331099074
0.1363966,0.008927410155282147,0.018760973085020897,0.08035296735385308,0.020004693175355595,0.010306576895077442,0.018365555178453518,0.052213624639920304,0.006627357046823949
0.1368621,0.008956146569705684,0.01859887249309212,0.07929232658206573,0.020144974742681718,0.010361069221264224,0.018366942570464995,0.05192044182336963,0.006627829317592562
0.1373276,0.008984897560001754,0.018437219255790355,0.0782328547851238,0.020284783180387518,0.01041620308277004,0.018369254115740776,0.05162589744369034,0.0066289984189040205
0.1377931,0.009013664229352495,0.01827603025834506,0.0771747372661391,0.020424104918766717,0.01047198374785133,0.018372488997868166,0.051330015434024164,0.006630868616765973
0.1382586,0.009042447778618264,0.018115322152423247,0.07611815777469876,0.020562926772643285,0.010528416339243224,0.01837664612766129,0.05103282024677878,0.006633444170346287
0.1387241,0.00907124950885952,0.017955111353944793,0.07506329846470025,0.020701235953744627,0.010585505831657823,0.018381724148712458,0.05073433684551483,0.00663672933461865
0.1391897,0.00910007082386663,0.017795414040981998,0.07401033985300841,0.020839020083034777,0.010643257049347082,0.01838772144307032,0.05043459069650433,0.006640728363000478
0.1396552,0.009128913232696774,0.01763624615174438,0.07295946077894515,0.02097626720299998,0.010701674663731621,0.01839463613704286,0.05013360775997112,0.006645445509981575
0.1401207,0.009157778352217209,0.017477623382649736,0.07191083836462264,0.021112965789878927,0.010760763191096725,0.018402466107123105,0.0498314144810254,0.006650885033741951
0.1405862,0.009186667909654082,0.01731956118648273,0.0708646479761296,0.02124910476582964,0.010820526990356717,0.018411208986035422,0.04952803778030516,0.006657051198757357
0.1410517,0.00921558374514607,0.017162074770642403,0.06982106318558003,0.021384673511024972,0.01088097026088884,0.01842086216890005,0.049223505044337465,0.006663948278391107
0.1415172,0.009244527814302048,0.017005179095480237,0.06878025573403329,0.021519661875668412,0.010942097040437642,0.018431422819513512,0.04891784411563306,0.006671580557470866
0.1419828,0.009273502190761998,0.016848888872730294,0.06774239549529355,0.02165406019192189,0.011003911203090853,0.018442887876742396,0.048611083282527334,0.006679952334849144
0.1424483,0.00930250906876028,0.016693218564033052,0.06670765044059604,0.0217878592857371,0.011066416457327585,0.01845525406102779,0.048303251268780587,0.006689067925946246
0.1429138,0.00933155076569044,0.016538182379554407,0.06567618660418734,0.021921050488581624,0.011129616344139679,0.018468517880997574,0.04799437722295029,0.006698931665274459
0.1433793,0.009360629724670576,0.016383794276701134,0.06464816804980604,0.022053625649051375,0.011193514235226904,0.01848267564018361,0.047684490707547884,0.00670954790894231
0.1438448,0.00938974851710827,0.016230067958934113,0.06362375683806966,0.022185577144360497,0.011258113331266695,0.01849772344384075,0.047373621687992064,0.006720921037137721
0.1443103,0.009418909845264068,0.01607701687468041,0.06260311299477313,0.022316897891699924,0.011323416660259045,0.018513657205864304,0.04706180052137035,0.006733055456588941
0.1447759,0.009448116544812389,0.015924654216345317,0.061586394480103654,0.022447581359455702,0.01138942707594716,0.018530472655802675,0.04674905794502047,0.006745955603002222
0.1452414,0.009477371587398708,0.015772992919425317,0.06057375715877629,0.022577621578278088,0.011456147256314388,0.018548165345961515,0.046435425064942686,0.006759625943475187
0.1457069,0.009506678083191847,0.015622045661723026,0.059565354771093905,0.02270701315199248,0.011523579702157902,0.018566730658595824,0.04612093334405387,0.006774070978884917
0.1461724,0.009536039283430083,0.01547182486266506,0.05856133890493487,0.02283575126834301,0.011591726735739466,0.018586163813186216,0.04580561459029376,0.0067892952462497635
0.1466379,0.009565458582959794,0.015322342682723733,0.05756185896867119,0.022963831709559686,0.011660590499513582,0.01860645987379552,0.04548950094459368,0.006805303321063924
0.1471034,0.009594939522765258,0.015173611022943527,0.056567062165019256,0.02309125086273989,0.011730172954933282,0.018627613756501932,0.045172624868717606,0.006822099819603743
0.147569,0.009624485792488157,0.015025641524573195,0.05557709346582475,0.023218005730034935,0.011800475881333712,0.018649620236904734,0.04485501913298543,0.006839689401204748
0.1480345,0.009654101232935319,0.014878445568804355,0.054592095587783225,0.023344093938632286,0.011871500874893578,0.01867247395769868,0.04453671680388808,0.006858076770508403
0.1485,0.009683789838573183,0.01473203427661742,0.053612208969097144,0.023469513750524144,0.011943249347674522,0.018696169436312936,0.044217751231603604,0.006877266679677623
0.1489655,0.00971355576000746,0.014586418508735616,0.052637571747069546,0.023594264072053093,0.012015722526738472,0.018720701072610528,0.043898156037423475,0.006897263930580163
0.149431,0.00974340330644644,0.01444160886568794,0.0516683197366343,0.02371834446322559,0.012088921453342973,0.01874606315664405,0.04357796510109839,0.0069180733769391035
0.1498966,0.009773336948146472,0.01429761568798172,0.05070458640982235,0.023841755146784032,0.012162846982214587,0.018772249876463386,0.04325721254811277,0.006939699926449696
0.1503621,0.00980336131883809,0.01415444905638555,0.04974650287616302,0.02396449701702814,0.012237499780900378,0.018799255325971174,0.04293593273689744,0.006962148542861921
0.1508276,0.009833481218131344,0.014012118792323234,0.0487941978640187,0.02408657164837632,0.012312880329197522,0.018827073512821615,0.04261416024599021,0.006985424248028102
0.1512931,0.009863701613898903,0.013870634458379364,0.047847797702851275,0.024207981303657526,0.012388988918661003,0.018855698366358142,0.04229192986115411,0.007009532123914911
0.1517586,0.009894027644635556,0.013730005358917163,0.0469074263064178,0.024328728942124248,0.012465825652189332,0.018885123745585316,0.041969276562463284,0.0070344773145791205
0.1522241,0.009924464621792764,0.013590240540809154,0.045973205156892835,0.024448818227177222,0.01254339044368814,0.01891534344717013,0.04164623551136651,0.007060265028106455
0.1526897,0.009955018032086925,0.013451348794281146,0.045045253289914176,0.024568253533792675,0.012621683017811448,0.018946351213467875,0.04132284203773841,0.0070869005385129176
0.1531552,0.009985693539780058,0.013313338653870008,0.04412368728054868,0.024687039955642996,0.012700702909780323,0.01897814074056753,0.04099913162692845,0.00711438918760794
0.1536207,0.010016496988931603,0.013176218399495579,0.04320862123017437,0.024805183311901985,0.012780449465278598,0.01901070568635154,0.040675139906817925,0.007142736386818709
0.1540862,0.010047434405620032,0.013039996057646988,0.042300166754274705,0.02492269015372567,0.012860921840425237,0.019044039678564953,0.040350902634894804,0.007171947618974988
0.1545517,0.010078512000132996,0.01290467940268358,0.041398432971140854,0.025039567770399736,0.012942119001822811,0.019078136322888566,0.04002645568535631,0.007202028440053804
0.1550172,0.010109736169124675,0.012770275958250536,0.04050352649147721,0.025155824195144446,0.013024039726681435,0.019112989211010945,0.039701835036248946,0.007232984480883431
0.1554828,0.010141113497738984,0.012636792998809125,0.03961555140890543,0.025271468210567742,0.013106682603017485,0.019148591928693868,0.03937707675665545,0.007264821448806255
0.1559483,0.010172650761697233,0.012504237551281452,0.03873460929136189,0.025386509353756997,0.013190046029926203,0.01918493806382574,0.03905221699393776,0.007297545129300298
0.1564138,0.010204354929348793,0.012372616396809508,0.037860799173383156,0.025500957920999785,0.013274128217927277,0.019222021214457465,0.03872729196104486,0.0073311613875592955
0.1568793,0.010236233163683193,0.012241936072628195,0.03699421754927387,0.025614824972123675,0.013358927189382377,0.01925983499681522,0.03840233792389404,0.007365676170031391
0.1573448,0.01026829282430207,0.012112202874051965,0.036134958367151186,0.025728122334445012,0.013444440778983558,0.019298373053284586,0.038077391188833805,0.007401095505916548
0.1578103,0.01030054146934926,0.011983422856574607,0.0352831130238594,0.02584086260631627,0.013530666634311283,0.01933762906036044,0.03775248809019637,0.007437425508622912
0.1582759,0.010332986857397313,0.011855601838081691,0.034438770360748494,0.025953059160261492,0.013617602216460788,0.01937759673655714,0.03742766497794726,0.007474672377182451
0.1587414,0.010365636949288633,0.011728745401175099,0.033602016660309736,0.026064726145689037,0.013705244800735367,0.01941826985027336,0.03710295820543925,0.0075128423976263195
0.1592069,0.01039849990992946,0.011602858895609016,0.03277293564366116,0.026175878491170777,0.013793591477405108,0.019459642227606166,0.03677840411727769,0.007551941944320459
0.1596724,0.010431584110034857,0.011477947440836748,0.0319516084688757,0.02628653190627663,0.013882639152529505,0.01950170776010861,0.036454039037303716,0.0075919774812620005
0.1601379,0.010464898127822869,0.01135401592866751,0.03113811373014421,0.02639670288295331,0.01397238454884233,0.019544460412485462,0.03612989925670168,0.007632955563337112
0.1606034,0.01049845075065603,0.011231069026032374,0.03033252745776551,0.02650640869643602,0.014062824206697118,0.01958789423022142,0.035806021022236824,0.0076748828375409195
0.161069,0.010532250976628365,0.011109111177858422,0.02953492311895519,0.02661566740568187,0.0141539544850715,0.019632003347136388,0.035482440524628914,0.007717766044160186
0.1615345,0.010566308016096005,0.01098814661005009,0.028745371619464805,0.0267244978533137,0.014245771562628635,0.01967678199286222,0.035159193887067154,0.0077616120179193875
0.162,0.010600631293149535,0.010868179332576586,0.027963941306002753,0.026832919665062956,0.014338271438833868,0.01972222450023544,0.0348363171538715,0.0078064276890908064
0.1624655,0.010635230447026122,0.010749213142664181,0.0271906979694481,0.026940953248700262,0.014431449935124685,0.01976832531260033,0.03451384627930514,0.007852220084569232
0.162931,0.010670115333459467,0.010631251628092106,0.026425704848848198,0.02704861979244236,0.014525302696131927,0.019815078991016734,0.03419181711654275,0.007898996328911815
0.1633966,0.010705296025965573,0.01051429817059074,0.02566902263619098,0.02715594126282395,0.014619825190950175,0.01986248022136679,0.03387026540679861,0.007946763645343635
0.1638621,0.010740782817062252,0.010398355949340705,0.02492070948194259,0.027262940402023036,0.01471501271445511,0.019910523821354924,0.03354922676861894,0.007995529356729496
0.1643276,0.010776586219420316,0.010283427944571459,0.024180821001340766,0.027369640724628504,0.014810860388665492,0.019959204747395327,0.033228736687342116,0.008045300886512428
0.1647931,0.010812716966944247,0.010169516941257941,0.023449410281434522,0.027476066513838944,0.01490736316414743,0.020008518101381288,0.032908830504730674,0.008096085759619398
0.1652586,0.010849186015780159,0.010056625532913806,0.022726527888860322,0.02758224281708252,0.015004515821458413,0.020058459137330936,0.032589543408778544,0.008147891603334668
0.1657241,0.010886004545248755,0.009944756125479756,0.022012221878344833,0.027688195441048728,0.015102312972628602,0.020109023267904227,0.03227091042369684,0.008200726148141203
0.1661897,0.010923183958700967,0.009833910941305427,0.021306537801924336,0.02779395094612451,0.015200749062676816,0.02016020607078615,0.03195296640008125,0.0082545972285305
0.1666552,0.010960735884293834,0.009724092023223224,0.020609518718870658,0.027899536640228907,0.015299818371158702,0.020212003294931342,0.03163574600526395,0.008309512783781135
0.1671207,0.010998672175684203,0.009615301238712433,0.019921205206313377,0.02800498057204222,0.015399515013744572,0.020264410866665434,0.031319283713852716,0.008365480858706273
0.1675862,0.01103700491263769,0.009507540284151872,0.01924163537054795,0.028110311523627272,0.015499832943824472,0.020317424895638675,0.03100361379845976,0.008422509604370392
0.1680517,0.011075746401550339,0.009400810689159269,0.01857084485901923,0.028215559002441545,0.015600765954138006,0.0203710416806276,0.030688770320622498,0.008480607278775448
0.1685172,0.011114909175880316,0.00929511382101552,0.017908866872969813,0.028320753232739835,0.01570230767842646,0.020425257715180837,0.03037478712191852,0.008539782247516666
0.1689828,0.011154505996486987,0.009190450889171914,0.01725573218074242,0.028425925146367527,0.015804451593104736,0.020480069693105524,0.030061697815276848,0.008600042984408215
0.1694483,0.011194549851874578,0.009086822949838305,0.01661146913172545,0.028531106372944905,0.01590719101895063,0.020535474513790737,0.029749535776487503,0.008661398072078934
0.1699138,0.01123505395833763,0.008984230910650218,0.015976103670930664,0.028636329229443303,0.016010519122809038,0.020591469287364526,0.029438334135911185,0.008723856202538271
0.1703793,0.011276031760005419,0.008882675535412766,0.015349659354191818,0.028741626709154373,0.016114428919308615,0.02064805133968103,0.02912812577039091,0.008787426177712512
0.1708448,0.011317496928782601,0.008782157448919185,0.014732157363972964,0.028847032470054712,0.01621891327258842,0.020705218217134204,0.02881894329536716,0.00885211690995132
0.1713103,0.011359463364183506,0.008682677141841757,0.014123616525774946,0.028952580822569192,0.01632396489803203,0.02076296769129476,0.028510819057198076,0.008917937422504562
0.1717759,0.011401945193057731,0.008584234975692856,0.013524053325128566,0.029058306716737786,0.01642957636400649,0.020821297763367153,0.028203785125685974,0.00898489684996927
0.1722414,0.011444956769204878,0.008486831187853804,0.012933481925162712,0.029164245728792355,0.016535740093603344,0.02088020666846364,0.02789787328681134,0.009053004438706576
0.1727069,0.011488512672876462,0.0083904658966692,0.012351914184735725,0.02927043404715175,0.016642448366379185,0.020939692879692554,0.027593115035675235,0.009122269547228397
0.1731724,0.01153262771016311,0.008295139106604354,0.011779359677118073,0.029376908457845574,0.01674969332009301,0.020999755112058066,0.027289541569650907,0.009192701646553524
0.1736379,0.011577316912265252,0.00820085071346343,0.011215825709214384,0.0294837063293788,0.016857466952438126,0.02106039232616862,0.026987183781745108,0.009264310320532753
0.1741034,0.011622595534645608,0.00810760050966588,0.010661317341312778,0.02959086559705107,0.016965761122766418,0.021121603731751242,0.02668607225416952,0.009337105266142611
0.174569,0.011668479056061857,0.008015388189578691,0.010115837407349351,0.029698424746745906,0.017074567553803148,0.021183388790968777,0.026386237252122424,0.009411096293747145
0.1750345,0.011714983177478044,0.007924213354901899,0.009579386535675607,0.02980642279820582,0.01718387783335057,0.02124574722153704,0.026087708717780562,0.009486293327327207
0.1755,0.011762123820853489,0.007834075520104823,0.009051963170316665,0.029914899287809844,0.017293683415978665,0.021308678999638776,0.025790516264501073,0.009562706404676605
0.1759655,0.011809917127808095,0.007744974117910443,0.008533563592707908,0.030023894250870292,0.017403975624701352,0.021372184362631205,0.025494689171233095,0.009640345677564452
0.176431,0.011858379458163214,0.007656908504825383,0.008024181943897823,0.03013344820346575,0.017514745652636426,0.021436263811543965,0.025200256377138675,0.00971922141186301
0.1768966,0.011907527388357382,0.0075698779667129875,0.007523810247204668,0.03024360212382698,0.017625984564647586,0.021500918113364128,0.024907246476422343,0.009799343987640345
0.1773621,0.011957377709736665,0.007483881724406968,0.007032438431314595,0.030354397433292504,0.01773768329896686,0.021566148303104885,0.024615687713368598,0.009880723899217033
0.1778276,0.012007947426719507,0.007398918939363232,0.00655005435380878,0.030465875976850413,0.017849832668795723,0.021631955685654472,0.0243256079775864,0.009963371755186216
0.1782931,0.012059253754836246,0.0073149887193474615,0.006076643825107069,0.030578080003282593,0.017962423363883293,0.02169834183740184,0.024037034799459563,0.010047298278396182
0.1787586,0.012111314118643685,0.007232090124156099,0.005612190632815616,0.03069105214492751,0.01807544595208004,0.021765308607635443,0.02374999534580179,0.010132514305894721
0.1792241,0.012164146149515151,0.007150222171368412,0.005156676566465906,0.030804835397077394,0.01818889088086563,0.021832858119711362,0.023464516415714908,0.010219030788834434
0.1796897,0.0122177676833068,0.007069383842127344,0.004710081442632576,0.03091947309702563,0.0183027484788496,0.021900992771986903,0.023180624436648756,0.01030685879233819
0.1801552,0.012272196757901203,0.006989574086946877,0.004272383130417426,0.031035008902779906,0.01841700895724383,0.021969715238515652,0.02289834546066101,0.010396009495323958
0.1806207,0.012327451610629763,0.006910791831543683,0.003843557577287035,0.031151486771456707,0.018531662411305792,0.022039028469500063,0.022617705160875225,0.01048649419028823
0.1810862,0.012383550675575884,0.006833035982690832,0.0034235788352514405,0.03126895093737276,0.01864669882175162,0.022108935691497394,0.022338728828135195,0.010578324283047362
0.1815517,0.01244051258076129,0.006756305434091337,0.0030124190873714323,0.03138744588984894,0.018762108056138326,0.02217944040737497,0.022061441367853717,0.010671511292436178
0.1820172,0.012498356145218084,0.006680599072269355,0.0026100486745820667,0.031507016350742316,0.018877879870214474,0.02225054639601083,0.021785867297053747,0.010766066849963295
0.1824828,0.012557100375949143,0.006605915782476787,0.0022164361228201174,0.03162770725172207,0.01899400390923904,0.022322257711735925,0.021512030741599773,0.010862002699422672
0.1829483,0.012616764464779653,0.006532254454613044,0.0018315481704432657,0.03174956371130498,0.019110469709268368,0.022394578683514355,0.021239955433617348,0.010959330696461045
0.1834138,0.01267736778510251,0.006459613989155651,0.0014553497959289437,0.031872631011666264,0.01922726669841121,0.022467513913858615,0.02096966470909848,0.011058062808100896
0.1838793,0.012738929888520397,0.006387993303099382,0.0010878042458408231,0.03199695457524175,0.019344384198052095,0.022541068277477132,0.02070118150569061,0.011158211112218555
0.1843448,0.012801470501387437,0.006317391335901551,0.0007288730630510479,0.03212257994113726,0.019461811424043216,0.022615246919651895,0.02043452836066683,0.011259787796977087
0.1848103,0.012865009521253372,0.006247807055431084,0.0003785161152063907,0.03224955274136117,0.01957953748786526,0.022690055254344418,0.02016972740907493,0.011362805160213488
0.1852759,0.01292956701321333,0.0061792394639190356,3.6691623426595786e-05,0.03237791867689631,0.019697551397757876,0.022765498962028598,0.019906800382062755,0.011467275608779663
0.1857414,0.012995163206166262,0.006111687603908158,-0.0002966438087767437,0.03250772349362724,0.019815842059820774,0.022841583987249434,0.019645768605377343,0.011573211657836601
0.1862069,0.01306181848898518,0.006045150564199238,-0.0006215351663723557,0.03263901295813913,0.019934398279086808,0.022918316535906754,0.019386652998035193,0.011680625930101052
0.1866724,0.013129553406602372,0.005979627485791861,-0.0009380289934840341,0.03277183283340426,0.02005320876056863,0.022995703072263316,0.019129474071161178,0.011789531155043885
0.1871379,0.013198388656012907,0.005915117567817383,-0.0012461733638794376,0.03290622885437236,0.020172262110280583,0.023073750315676586,0.018874251926993418,0.011899940168039278
0.1876034,0.013268345082199902,0.005851620073461855,-0.001546017851284387,0.033042246703480965,0.0202915468362378,0.023152465237053613,0.018621006258051635,0.012011865909463768
0.188069,0.013339443673985145,0.005789134335876713,-0.0018376134995340783,0.03317993198610184,0.020411051349434387,0.02323185505502859,0.018369756346466436,0.01212532142374411
0.1885345,0.013411705559808874,0.005727659764075094,-0.0021210127925725968,0.03331933020593942,0.020530763964802808,0.02331192723186288,0.01812052106346699,0.012240319858352909
0.189,0.013485152003442576,0.0056671958488116545,-0.0023962696243120933,0.03346048674039722,0.020650672902156456,0.023392689469067755,0.01787331886902449,0.012356874462750904
0.1894655,0.013559804399638728,0.005607742168443801,-0.0026634392683629327,0.03360344681592806,0.020770766287117534,0.023474149702750562,0.017628167811648797,0.012474998587274917
0.189931,0.013635684269721431,0.00554929839477227,-0.0029225783476460676,0.03374825548338376,0.02089103215203228,0.02355631609868571,0.01738508552833543,0.012594705681970455
0.1903966,0.01371281325712183,0.005491864298858971,-0.00317374480389882,0.03389495759337979,0.02101145843687558,0.02363919704711246,0.01714408924466011,0.012716009295368083
0.1908621,0.013791213122862233,0.005435439756820003,-0.0034169978670851625,0.034043597771690366,0.02113203299014718,0.023722801157262132,0.016905195775017978,0.012838923073202738
0.1913276,0.013870905740992819,0.00538002475559172,-0.003652398024721482,0.034194220394688966,0.02125274356976157,0.02380713725161788,0.016668421523004618,0.01296346075707525
0.1917931,0.013951913093984811,0.005325619398667733,-0.003880006991128703,0.03434686956484939,0.021373577843933927,0.023892214359910794,0.01643378248193611,0.013089636183055323
0.1922586,0.014034257268083978,0.005272223911804678,-0.004099887676621506,0.03450158908632198,0.021494523392064632,0.023978041712856685,0.016201294235505377,0.013217463280225225
0.1927241,0.0141179604486283,0.005219838648694622,-0.004312104156645265,0.03465842244059962,0.02161556770562492,0.024064628735638666,0.015970971958572205,0.01334695606916341
0.1931897,0.014203044915333675,0.005168464096601953,-0.004516721640871188,0.03481741276228776,0.021736698189046517,0.024151985041141567,0.01574283041808445,0.013478128660367175
0.1936552,0.014289533037551424,0.005118100881962643,-0.00471380644225999,0.03497860281499258,0.02185790216061809,0.024240120422945165,0.015516883974127949,0.013610995252613485
0.1941207,0.014377447269501322,0.005068749775943742,-0.004903425946104281,0.03514203496734113,0.021979166853391408,0.024329044848084055,0.015293146581102923,0.013745570131256993
0.1945862,0.014466810145483814,0.005020411699960985,-0.005085648579059687,0.035307751169147174,0.022100479416100296,0.02441876844958255,0.01507163178902462,0.013881867666464326
0.1950517,0.014557644275074944,0.004973087731152422,-0.005260543778174545,0.035475792927735846,0.02222182691409571,0.024509301518773438,0.014852352744946111,0.014019902311383661
0.1955172,0.014649972338307383,0.004926779107806026,-0.005428181959927848,0.03564620128444044,0.022343196330300324,0.02460065449740963,0.014635322194501173,0.0141596886002486
0.1959828,0.014743817080840932,0.004881487234739263,-0.005588634489284921,0.03581901679128412,0.022464574566186335,0.024692837969577896,0.014420552483565226,0.014301241146415261
0.1964483,0.014839201309125704,0.004837213688628632,-0.005741973648780128,0.03599427948785928,0.022585948442780234,0.024785862653424258,0.01420805556003241,0.014444574640331491
0.1969138,0.01493614788556116,0.004793960223287265,-0.005888272607635731,0.03617202887841687,0.022707304701698437,0.024879739392700537,0.013997842975706852,0.01458970384743696
0.1973793,0.015034679723654115,0.004751728774888675,-0.006027605390925854,0.03635230390917791,0.02282863000621753,0.02497447914814175,0.013789925888306147,0.014736643605992953
0.1978448,0.015134819783178788,0.004710521467134789,-0.006160046848794341,0.03653514294587901,0.02294991094238297,0.025070092988683883,0.013584315063575192,0.014885408824840522
0.1983103,0.015236591065341896,0.004670340616366411,-0.006285672625735136,0.036720583751563396,0.02307113402015984,0.02516659208253162,0.013381020877508358,0.015036014481085694
0.1987759,0.01534001660795578,0.00463118873661427,-0.006404559129943723,0.03690866346462881,0.02319228567462913,0.025263987688085385,0.013180053318678046,0.0151884756177103
0.1992414,0.015445119480622561,0.004593068544588764,-0.006516783502747991,0.037099418577143224,0.023313352267232853,0.025362291144737144,0.012981421990667572,0.015342807341106967
0.1997069,0.015551922779932248,0.0045559829646065406,-0.006622423588126817,0.03729288491343907,0.02343432008707107,0.025461513863544012,0.012785136114606221,0.015499024818536756
0.2001724,0.015660449624677775,0.004519935133452007,-0.006721557902324536,0.037489097608996276,0.023555175352253918,0.02556166731778877,0.012591204531804297,0.015657143275507875
0.2006379,0.015770723151089905,0.004484928405171878,-0.006814265603569394,0.03768809108962416,0.023675904211311435,0.025662763033436314,0.012399635706485852,0.01581717799307391
0.2011034,0.015882766508094948,0.004450966355800827,-0.006900626461903974,0.03788989905095194,0.023796492744664006,0.0257648125794948,0.012210437728616763,0.015979144305049913
0.201569,0.015996602852598255,0.004418052788016352,-0.0069807208291355295,0.038094554438237144,0.02391692696615612,0.025867827558290323,0.012023618316825743,0.01614305759514467
0.2020345,0.01611225534479638,0.0043861917357208985,-0.007054629608914072,0.03830208942650106,0.024037192824656037,0.02597181959566382,0.011839184821415827,0.016308933294007368
0.2025,0.016229747143520844,0.004355387468549303,-0.007122434226945995,0.03851253540099992,0.024157276205724172,0.02607680033109881,0.0116571442274639,0.016476786876186904
0.2029655,0.016349101401616346,0.004325644496299615,-0.007184216601350928,0.03872592293804026,0.02427716293335282,0.026182781407788538,0.01147750315800574,0.01664663385700193
0.203431,0.016470341261356273,0.004296967573285338,-0.007240059113169426,0.03894228178614646,0.024396838771780144,0.026289774462651048,0.01130026787730421,0.01681848978931988
0.2038966,0.016593489849898228,0.004269361702607156,-0.0072900445770290485,0.03916164084758827,0.024516289427381228,0.02639779111630053,0.011125444294198069,0.016992370260243306
0.2043621,0.016718570274782248,0.004242832140342239,-0.007334256211976241,0.03938402816027562,0.024635500550638952,0.026506842962983293,0.010953037965529027,0.01716829088770174
0.2048276,0.016845605619474308,0.0042173843996492506,-0.00737277761248137,0.039609470880028044,0.02475445773819746,0.026616941560486655,0.01078305409964462,0.01734626731694751
0.2052931,0.016974618938957554,0.004193024254787227,-0.007405692719624183,0.03983799526322529,0.024873146535000633,0.026728098420028896,0.010615497559974556,0.017526315216953737
0.2057586,0.017105633255373575,0.004169757745046557,-0.007433085792466842,0.04006962664984609,0.024991552436518055,0.02684032499613841,0.010450372868678216,0.017708450276712785
0.2062241,0.017238671553715938,0.00414759117859037,-0.007455041379621605,0.04030438944690168,0.025109660891060554,0.026953632676529993,0.010287684210360918,0.01789268820143315
0.2066897,0.017373756777578037,0.004126531136204698,-0.007471644291020101,0.04054230711227075,0.02522745730218741,0.027068032771986033,0.010127435435856699,0.018079044708632818
0.2071552,0.017510911824957207,0.004106584474955877,-0.007482979569891056,0.040783402138942944,0.025344927031206988,0.027183536506250203,0.009969630066075272,0.01826753552412714
0.2076207,0.017650159544116927,0.004087758331753729,-0.007489132464953186,0.04102769603967777,0.0254620553997724,0.02730015500594111,0.009814271295910877,0.018458176377909117
0.2080862,0.017791522729508766,0.004070060126819165,-0.00749018840282989,0.04127520933208601,0.025578827692573507,0.02741789929049302,0.009661361998210664,0.01865098299992027
0.2085517,0.01793502411775565,0.004053497567054884,-0.00748623296069224,0.04152596152414046,0.02569522916012652,0.02753678026213083,0.009510904727800275,0.018845971115710475
0.2090172,0.01808068638369784,0.004038078649317915,-0.0074773518391366535,0.04177997110012273,0.025811245021662085,0.02765680869588627,0.00936290172556417,0.01904315644198556
0.2094828,0.01822853213650302,0.00402381166359279,-0.007463630835303533,0.04203725550701258,0.02592686046811267,0.027777995229662473,0.009217354922578172,0.01924255468204187
0.2099483,0.018378583915841618,0.004010705196064098,-0.0074451558162429935,0.04229783114132612,0.026042060665199738,0.027900350354353943,0.009074265944291716,0.019444181521087275
0.2104138,0.01853086418812854,0.003998768132087238,-0.007422012692533721,0.04256171333640894,0.02615683075662107,0.02802388440402912,0.008933636114757072,0.019648052621448375
0.2108793,0.0186853953428323,0.00398800965905613,-0.0073942873921608475,0.04282891635019013,0.026271155867338476,0.028148607546182675,0.00879546646090287,0.019854183617663588
0.2113448,0.01884219968885244,0.00397843926916666,-0.007362065834658639,0.04309945335340248,0.026385021106965827,0.028274529772064464,0.008659757716849134,0.02006259011146199
0.2118103,0.019001299450966052,0.003970066762074601,-0.0073254339055236406,0.04337333641827436,0.02649841157325726,0.02840166088709211,0.008526510328260954,0.020273287666627615
0.2122759,0.019162716766344037,0.003962902247446759,-0.00728447743090377,0.04365057650769822,0.026611312355695048,0.02853001050135377,0.00839572445673789,0.02048629180374888
0.2127414,0.019326473681137726,0.0039569561474040995,-0.007239282152568697,0.043931183464880334,0.0267237085391765,0.028659588020207745,0.008267399984236166,0.020701617994852796
0.2132069,0.019492592147136306,0.0039522391988556305,-0.007189933703166673,0.04421516600347657,0.026835585207799124,0.02879040263498523,0.008141536517520618,0.020919281657923502
0.2136724,0.019661094018495428,0.003948762455721865,-0.007136517581772815,0.044502531698218786,0.026946927448742858,0.028922463313802275,0.008018133392643397,0.021139298151304695
0.2141379,0.019832001048537225,0.003946537291046716,-0.007079119129733629,0.044793286976036295,0.027057720356248257,0.0290557787924869,0.007897189679446344,0.021361682767985595
0.2146034,0.020005334886621918,0.003945575398996726,-0.007017823506812425,0.045087437107677,0.027167949035689126,0.029190357565627083,0.0077787041860840015,0.021586450729770265
0.215069,0.02018111707509109,0.00394588879674661,-0.006952715667640105,0.045384986199831986,0.02727759860773806,0.029326207877745144,0.007662675463564208,0.021813617181330458
0.2155345,0.020359369046282556,0.003947489826250134,-0.006883880338475706,0.04568593718776746,0.027386654212623138,0.029463337714603816,0.007549101810303204,0.022043197184142365
0.216,0.020540112119616663,0.0039503911558954165,-0.0068114019942809405,0.045990291828467506,0.0274951010144739,0.02960175479464942,0.007437981276692234,0.022275205710308096
0.2164655,0.020723367498753784,0.003954605782043827,-0.006735364836112898,0.04629805069429076,0.02760292420575465,0.029741466560597306,0.0073293116696725785,0.022509657636263267
0.216931,0.020909156268822584,0.003960147030451666,-0.00665585276883902,0.046609213167143684,0.027710109011782978,0.029882480171164728,0.0072230905573160125,0.02274656773637242
0.2173966,0.02109749939371856,0.003967028557573882,-0.006572949379178321,0.04692377743317303,0.027816640695331407,0.030024802492956245,0.00711931527340763,0.0229859506764146
0.2178621,0.021288417713472167,0.003975264351749093,-0.006486737914072829,0.04724174047797936,0.027922504561309975,0.030168440092506577,0.007017982922027977,0.023227821006961764
0.2183276,0.021481931941685666,0.003984868734265195,-0.006397301259393002,0.04756309808235366,0.02802768596152742,0.030313399228485655,0.006919090382131364,0.02347219315665296
0.2187931,0.021678062663037685,0.003995856360304872,-0.006304721918980837,0.04788784481853888,0.02813217029952873,0.03045968584407055,0.006822634312117216,0.02371908142536738
0.2192586,0.02187683033085433,0.004008242219770326,-0.006209081994034127,0.048215974047018044,0.02823594303550637,0.030607305559488592,0.0067286111543912565,0.02396849997729945
0.2197241,0.02207825526474543,0.004022041637986572,-0.006110463162835133,0.04854747791383031,0.028338989691282627,0.030756263664735967,0.006637017139913277,0.024220462833939495
0.2201897,0.02228235764830448,0.004037270276282695,-0.006008946660826751,0.04888234734841688,0.028441295855360184,0.030906565112475783,0.006547848292728225,0.024474983866963698
0.2206552,0.02248915752687071,0.004053944132450465,-0.005904613261039012,0.049220572061998126,0.028542847188038026,0.031058214511119453,0.006461100434477334,0.024732076791037682
0.2211207,0.022698674805351517,0.004072079541079748,-0.005797543254868667,0.049562140546483203,0.028643629426589455,0.031211216118094954,0.006376769188886018,0.024991755156538713
0.2215862,0.02291092924610355,0.004091693173770196,-0.005687816433214408,0.04990704007391355,0.028743628390499,0.03136557383330534,0.00629484998622519,0.025254032342201783
0.2220517,0.023125940466870682,0.0041128020392187156,-0.005575512067970192,0.05025525669644132,0.028842829986754824,0.03152129119278071,0.006215338067742715,0.025518921547695254
0.2225172,0.02334372793877706,0.004135423483182256,-0.005460708893878885,0.05060677524684383,0.028941220215193107,0.03167837136252663,0.006138228490061642,0.025786435786131757
0.2229828,0.023564310984373237,0.004159575188315453,-0.005343485090748259,0.05096157933957492,0.029038785173890767,0.03183681713257206,0.006063516129541873,0.02605658787652049
0.2234483,0.02378770877573344,0.004185275173882677,-0.00522391826603113,0.05131965137235411,0.029135511064602673,0.03199663091121949,0.005991195686601949,0.026329390436167117
0.2239138,0.024013940332601843,0.004212541795344035,-0.005102085437771144,0.051680972528294115,0.02923138419823952,0.03215781471950008,0.005921261689997645,0.026604855873027675
0.2243793,0.02424302452058554,0.004241393743814853,-0.004978063017915546,0.05204552277856705,0.02932639100038248,0.03232037018583633,0.005853708501054116,0.026882996378022918
0.2248448,0.02447498004939183,0.004271850045398173,-0.004851926795996094,0.052413280885609405,0.029420518016830738,0.03248429854091469,0.005788530317848465,0.02716382391731955
0.2253103,0.02470982547110738,0.004303930060389811,-0.004723751923179108,0.052784224406865525,0.029513751919178276,0.032649600612770405,0.0057257211793396495,0.02744735022458493
0.2257759,0.024947579178516536,0.0043376534823555335,-0.004593612896685565,0.05315832969906896,0.029606079510416473,0.032816276822086425,0.005665274969442851,0.027733586793222083
0.2262414,0.025188259403456186,0.004373040337079914,-0.004461583544582062,0.05353557192306062,0.02969748773055953,0.032984327177708314,0.005607185421045522,0.028022544868592004
0.2267069,0.025431884215204207,0.004410110981386487,-0.004327737010943384,0.05391592504914237,0.029787963662289904,0.03315375127237686,0.0055514461199625605,0.02831423544023064
0.2271724,0.025678471518898464,0.00444888610182878,-0.004192145741387364,0.05429936186296422,0.029877494536621235,0.03332454827867987,0.005498050508828224,0.02860866923406821
0.2276379,0.025928039053983165,0.004489386713251868,-0.004054881468982647,0.05468585397194268,0.029966067738576577,0.033496716945224735,0.005446991890922572,0.028905856704658565
0.2281034,0.02618060439267911,0.0045316341572241145,-0.003916015200529936,0.05507537181220762,0.030053670812879945,0.03367025559303295,0.005398263433930376,0.029205808027426526
0.228569,0.026436184938474286,0.004575650100338764,-0.0037756172032172323,0.05546788465607459,0.03014029146965964,0.03384516211215797,0.00535185817363058,0.029508533090940935
0.2290345,0.02669479792463108,0.00462145653238512,-0.0036337569916495343,0.055863360620039014,0.03022591759016214,0.034021433958527074,0.005307769017514409,0.02981404148922106
0.2295,0.026956460412706253,0.00466907576438906,-0.0034905033152534213,0.05626176667328825,0.030310537232475596,0.03419906815100824,0.005265988748330321,0.030122342514083786
0.2299655,0.0272211892910797,0.004718530426522673,-0.003345924146056912,0.05666306864672766,0.030394138637262293,0.03437806126870242,0.005226510027554009,0.030433445147538863
0.230431,0.02748900127348787,0.0047698434658828255,-0.003200086666844929,0.057067231242516,0.03047671023349937,0.03455840944846172,0.0051893253987817375,0.03074735805423925
0.2308966,0.027759912897557578,0.0048230381441384815,-0.0030530572596906423,0.05747421804410541,0.030558240644227328,0.03474010838263365,0.005154427291045463,0.03106408957399331
0.2313621,0.028033940523335618,0.004878138035046655,-0.00290490149486291,0.05788399152678111,0.030638718692305732,0.03492315331703161,0.005121808022048265,0.03138364771434555
0.2318276,0.02831110033180959,0.004935167021836849,-0.0027556841201099437,0.05829651306869541,0.030718133406175546,0.03510753904913106,0.005091459801318805,0.03170604014323234
0.2322931,0.02859140832341506,0.004994149294463877,-0.0026054690503192436,0.05871174296239038,0.030796474025627334,0.035293259926491065,0.005063374733283665,0.03203127418171875
0.2327586,0.028874880316524385,0.005055109346728971,-0.0024543193575537353,0.059129640426803284,0.030873730007574488,0.03548030984540023,0.005037544820256587,0.032359356796822475
0.2332241,0.02916153194591243,0.005118071973269067,-0.0023022972614639347,0.05955016361974856,0.030949891031830677,0.03566868224974598,0.005013961965343773,0.032690294594430666
0.2336897,0.02945137866119492,0.0051830622664141325,-0.00214946412007584,0.059973269650869396,0.031024947006890347,0.03585837013010581,0.0049926179752645935,0.03302409381231499
0.2341552,0.029744435725235312,0.005250105612912413,-0.0019958804209541372,0.06039891459505158,0.031098888075711182,0.03604936602305879,0.0049735045630871656,0.033360760313250255
0.2346207,0.03004071821251635,0.0053192276905234094,-0.0018416057727401686,0.0608270535062923,0.031171704621497112,0.03624166201071543,0.0049566133508784,0.03370029957824151
0.2350862,0.03034024100747263,0.005390454464478405,-0.0016866988970639836,0.061257640432015405,0.031243387273480392,0.03643524972046353,0.004941935872268253,0.03404271669986445
0.2355517,0.030643018802780576,0.0054638121838083715,-0.0015312176208296308,0.061690628427824606,0.03131392691270098,0.03663012032492759,0.004929463574928016,0.03438801637572358
0.2360172,0.03094906609760202,0.005539327377539096,-0.001375218868872718,0.062125969572685465,0.031383314677781285,0.03682626454213889,0.004919187822962605,0.0347362029020324
0.2364828,0.031258397195777665,0.005617026850753372,-0.001218758656989099,0.06256361498452642,0.03145154197069402,0.037023672635913135,0.004911099899216939,0.03508728016731982
0.2369483,0.031571026203966616,0.0056969376805201645,-0.0010618920853333977,0.06300351483624875,0.03151860046252079,0.03722233441643213,0.004905191007496602,0.035441251646266346
0.2374138,0.031886967029728173,0.005779087211690657,-0.0009046733321859236,0.06344561837213461,0.0315844820991988,0.03742223924102583,0.004901452274703078,0.03579812039367384
0.2378793,0.03220623337954221,0.005863503052561151,-0.0007471556480863999,0.06388987392464225,0.03164917910725279,0.03762337601515081,0.004899874752883889,0.03615788903857217
0.2383448,0.03252883875676441,0.0059502130704028,-0.0005893913503327766,0.06433622893157635,0.03171268399950964,0.03782573319356088,0.004900449421198001,0.03652055977846588
0.2388103,0.03285479645951289,0.006039245386858196,-0.0004314318178432679,0.06478462995362137,0.031774989580792515,0.0380292987816653,0.0049031671877968344,0.03688613437372379
0.2392759,0.03318411957848283,0.006130628373204826,-0.00027332748637963494,0.06523502269222509,0.03183608895359176,0.03823406033706992,0.00490801889162121,0.0372546141421142
0.2397414,0.03351682099468605,0.006224390645485483,-0.00011512784412961489,0.06568735200781907,0.03189597552370955,0.038440004971296536,0.004914995304114538,0.0376259999534883
0.2402069,0.03385291337711262,0.006320561059505696,4.3118572353696836e-05,0.06614156193836235,0.03195464300587512,0.03864711935167537,0.004924087130852548,0.038000292224613895
0.2406724,0.03419240918031161,0.006419168705698244,0.0002013641818577989,0.06659759571819387,0.032012085429327514,0.03885538970340574,0.004935285013089869,0.03837749091416177
0.2411379,0.03453532064188848,0.006520242903854837,0.0003595623618644395,0.06705539579717933,0.032068297143362366,0.03906480181177956,0.0049485795292237705,0.038757595517846875
0.2416034,0.03488165977991627,0.0066238131977250135,0.0005176674515534207,0.06751490386013721,0.032123272822839284,0.03927534102456244,0.004963961196175411,0.03914060506372644
0.242069,0.035231438390257955,0.006729909349482254,0.0006756347544590679,0.067976060846529,0.03217700747364608,0.039486992254526954,0.004981420470688944,0.039526518107657144
0.2425345,0.035584668043796994,0.006838561334057305,0.0008334205407819448,0.06843880697039764,0.032229496438115846,0.03969973998213283,0.005000947750548855,0.039915332728913476
0.243,0.03594136008357353,0.006949799333338639,0.0009909820493584564,0.06890308174053848,0.032280735400392856,0.039913568258349026,0.005022533375715912,0.040307046525969344
0.2434655,0.03630152562182347,0.007063653730239975,0.0011482774892910307,0.06936882398088659,0.03233072039174289,0.040128460707612675,0.005046167629382095,0.04070165661244462
0.243931,0.03666517553691809,0.007180155102634759,0.0013052660412416265,0.06983597185110355,0.03237944779580352,0.040344400530920185,0.0050718407389448526,0.04109915961321832
0.2443966,0.03703232047020185,0.007299334217157496,0.001461907858391378,0.07030446286734696,0.03242691435376983,0.040561370509045784,0.0050995428769010035,0.041499551660709844
0.2448621,0.03740297082272639,0.007421222022871823,0.001618164067069274,0.0707742339232056,0.03247311716951073,0.04077935300588293,0.005129264161660551,0.04190282839132951
0.2453276,0.037777136751878916,0.0075458496448051905,0.0017739967670528938,0.07124522131078284,0.03251805371461112,0.04099832997190411,0.005160994658280651,0.04230898494209934
0.2457931,0.038154828167903325,0.0076732483773500025,0.001929369031544359,0.07171736074191119,0.03256172183333503,0.04121828294773447,0.0051947243791199285,0.042718015947444773
0.2462586,0.03853605473031263,0.007803449677531036,0.002084244906824791,0.07219058736948103,0.03260411974750466,0.04143919306783501,0.005230443284413324,0.04312991553615759
0.2467241,0.03892082584419135,0.007936485158138948,0.0022385894115906986,0.07266483580886675,0.032645246061290226,0.0416610410642909,0.005268141282767584,0.04354467732853007
0.2471897,0.03930915065638661,0.008072386580729726,0.0023923685359758416,0.07314004015943401,0.032685099765905015,0.041883807270700346,0.005307808231577517,0.04396229443366021
0.2476552,0.03970103805158666,0.008211185848490017,0.002545549240262219,0.0736161340261116,0.03272368024420028,0.04210747162615953,0.005349433937363116,0.04438275944692713
0.2481207,0.0400964966482854,0.008352914998968418,0.002698099453283933,0.07409305054101206,0.03276098727515423,0.042332013679339205,0.005393008156027638,0.04480606444763589
0.2485862,0.040495534794632006,0.00849760619667298,0.0028499880705277645,0.074570722385086,0.032797021038249496,0.042557412592648454,0.005438520593036764,0.04523220099683094
0.2490517,0.040898160564164544,0.008645291725535372,0.003001184951934369,0.07504908180979575,0.03283178211773389,0.042783647146481404,0.0054859609035189634,0.04566116013527713
0.2495172,0.041304381751426776,0.008796003981242341,0.0031516609194040812,0.07552806065879494,0.03286527150675909,0.04301069574354288,0.005535318692287237,0.04609293238160762
0.2499828,0.04171420586746746,0.008949775463435264,0.003301387754011332,0.07600759038960071,0.032897490611392584,0.04323853641324922,0.005586583513782427,0.04652750773063764
0.2504483,0.04212764013522141,0.009106638767778744,0.0034503381929317477,0.0764876020952456,0.03292844125449796,0.04346714681620092,0.005639744871938312,0.04696487565184339
0.2509138,0.04254469148477185,0.009266626577899248,0.003598485926086,0.07696802652589582,0.03295812567947905,0.0436965042487239,0.005694792219968754,0.04740502508800479
0.2513793,0.04296536654849388,0.009429771657194897,0.003745805592504506,0.07744879411042194,0.03298654655388373,0.04392658564747674,0.005751714960077193,0.04784794445401117
0.2518448,0.04338967165607928,0.009596106840517577,0.003892272776417045,0.07792983497790847,0.033013706972863835,0.044157367594122074,0.005810502443088863,0.048293621635828336
0.2523103,0.043817612829443436,0.00976566502572854,0.004037864003071376,0.0784110789790888,0.033039610462488454,0.04438882632006154,0.005871143968006152,0.048742043989625436
0.2527759,0.04424919577751565,0.009938479165128723,0.004182556734284902,0.07889245570769268,0.033064260982908836,0.04462093771123539,0.0059336287814875325,0.049193198341060125
0.2532414,0.04468442589091406,0.010114582256764986,0.0043263293637333935,0.07937389452169517,0.033087662931373836,0.04485367731298926,0.005997946077250525,0.04964707098472003
0.2537069,0.045123308236506815,0.010294007335613503,0.004469161211980796,0.07985532456445736,0.03310982114509541,0.04508702033501205,0.006064084995399192,0.05010364768371888
0.2541724,0.04556584755186109,0.010476787464641497,0.004611032521254085,0.0803366747857504,0.0331307409039639,0.045320941656349194,0.006132034621676657,0.050562913669445236
0.2546379,0.04601204823958145,0.010662955725748546,0.004751924449967165,0.08081787396265551,0.033150427933113055,0.045555415830495986,0.006201783986643249,0.05102485364146157
0.2551034,0.04646191436153928,0.010852545210588713,0.00489181906699775,0.08129885072033287,0.033168888405334905,0.04579041709057566,0.00627332206478095,0.051489451767551306
0.255569,0.04691544963299513,0.01104558901127482,0.005030699345721195,0.08177953355265301,0.033186128943344675,0.04602591935460673,0.006346637773524946,0.05195669168391101
0.2560345,0.04737265741661646,0.011242120210966306,0.005168549157805221,0.0822598508426838,0.03320215662189588,0.046261896230863984,0.006421719972223136,0.052426556495484986
0.2565,0.04783354071639288,0.011442171874342235,0.005305353266769443,0.08273973088302662,0.033216978969745854,0.04649832102333729,0.006498557461024646,0.05289902877643933
0.2569655,0.04829810217145209,0.01164577703796108,0.00544109732131364,0.08321910189599496,0.03323060397147212,0.046735166737292416,0.0065771389796983925,0.05337409057077309
0.257431,0.048766344049779385,0.011852968700509104,0.005575767848418645,0.0836978920536282,0.03324304006914009,0.04697240608493768,0.00665745320638289,0.05385172339306472
0.2578966,0.04923826824184461,0.012063779812939194,0.005709352246223737,0.08417602949753314,0.0332542961638229,0.047210011491200285,0.006739488756268532,0.054331908229352716
0.2583621,0.04971387625414113,0.012278243268502112,0.0058418387766843785,0.0846534423585456,0.03326438161697419,0.04744795509961569,0.006823234180213606,0.054814625538149794
0.2588276,0.05019316920264229,0.012496391892672017,0.005973216558014103,0.08513005877620383,0.033273306251654505,0.04768620877833353,0.0069086779632953465,0.055299855251589904
0.2592931,0.05067614780618146,0.01271825843296822,0.00610347555691429,0.08560580691802597,0.033281080353612234,0.04792474412624303,0.006995808523297323,0.0557875767767074
0.2597586,0.05116281237976223,0.012943875548674993,0.006232606580595586,0.08608061499858462,0.033287714672219394,0.04816353247922117,0.007084614209134527,0.056277768996847236
0.2602241,0.05165316282780543,0.013173275800461369,0.0063606012685946435,0.08655441129837192,0.0332932204212629,0.048402544916506425,0.007175083299217551,0.056770410273204924
0.2606897,0.05214719863733982,0.013406491639902825,0.00648745208438984,0.08702712418244991,0.03329760927959161,0.048641752267200675,0.007267203999757422,0.05726547844649485
0.2611552,0.05264491887114345,0.013643555398906652,0.006613152306819605,0.08749868211888166,0.033300893391619686,0.04888112511690195,0.00736096444301282,0.057762950838745615
0.2616207,0.053146322160842654,0.01388449927904287,0.006737696021306973,0.08796901369693987,0.03330308536768701,0.04912063381447016,0.0074563526854816466,0.05826280425522073
0.2620862,0.05365140669997556,0.014129355340782412,0.006861078110894002,0.08843804764508989,0.03330419828427776,0.049360248478927685,0.007553356706039056,0.05876501498646306
0.2625517,0.05416017023702707,0.01437815549264424,0.0069832942470896536,0.08890571284874486,0.0333042456840981,0.049599939006496285,0.007651964404024345,0.059269558810461635
0.2630172,0.05467261006844202,0.014630931480253006,0.007104340880534791,0.08937193836779038,0.03330324157601411,0.04983967507777176,0.007752163597279289,0.05977641099493958
0.2634828,0.05518872303162329,0.014887714875308825,0.007224215231487915,0.08983665345387659,0.033301200434850985,0.050079426165037126,0.007853942020140623,0.06028554629976226
0.2639483,0.05570850549792164,0.015148537064470632,0.007342915280135349,0.09029978756747473,0.033298137201054456,0.05031916153971498,0.007957287321389539,0.06079693897946526
0.2644138,0.05623195336562346,0.015413429238154561,0.007460439756729551,0.09076127039469531,0.033294067280215264,0.0505588502799594,0.008062187062161115,0.06131056278590171
0.2648793,0.05675906205294293,0.01568242237924872,0.007576788131559295,0.09122103186386443,0.03328900654245723,0.05079846127838734,0.008168628713816612,0.061826390971008796
0.2653448,0.05728982649102491,0.015955547251745826,0.0076919606047555055,0.09167900216185405,0.03328297132168934,0.051037963249949435,0.008276599655781577,0.06234439628969284
0.2658103,0.05782424111696521,0.016232834389295153,0.007805958095936557,0.09213511175016202,0.03327597841472213,0.05127732473993945,0.008386087173352727,0.06286455100283225
0.2662759,0.05836229986685501,0.016514314083675357,0.007918782233696898,0.0925892913807368,0.0332680450802482,0.051516514132141374,0.008497078455476564,0.06338682688039741
0.2667414,0.05890399616885719,0.016800016373189952,0.008030435344942908,0.09304147211154189,0.033259189037686876,0.051755499657112965,0.008609560592502761,0.06391119520468652
0.2672069,0.05944932293632209,0.01708997103098726,0.00814092044407993,0.0934915853218549,0.0332494284658928,0.051994249400604,0.008723520573915327,0.06443762677367634
0.2676724,0.05999827256095094,0.01738420755330684,0.008250241222054451,0.09393956272729599,0.03323878200172832,0.05223273131210732,0.008838945286044663,0.06496609190448725
0.2681379,0.06055083690601517,0.017682755147654484,0.008358402035255463,0.09438533639458055,0.03322726873849943,0.05247091321354043,0.00895582150976352,0.06549656043696232
0.2686034,0.06110700729963968,0.01798564272090785,0.008465407894279058,0.09482883875599105,0.03321490822425492,0.05270876280805488,0.009074135918169895,0.06602900173736043
0.269069,0.061666774528158386,0.018292898867354867,0.008571264452560349,0.09527000262356296,0.03320172045994819,0.052946247688970424,0.009193875074259812,0.06656338470216357
0.2695345,0.062230128829550264,0.01860455185666691,0.008675977994876833,0.09570876120298036,0.03318772589746096,0.05318333534883053,0.00931502542859298,0.06709967776199875
0.27,0.06279705988696418,0.018920629621808786,0.008779555425727328,0.09614504810717696,0.0331729454374879,0.05341999318857548,0.00943757331695418,0.06763784888567452
0.2704655,0.06336755682234096,0.01924115974688753,0.008882004257590627,0.09657879736963841,0.033157400427280846,0.05365618852682905,0.009561504958013289,0.06817786558433184
0.270931,0.06394160819014094,0.019566169454942207,0.00898333259906805,0.09700994345740192,0.03314111265825119,0.0538918886092944,0.009686806450986837,0.0687196949157087
0.2713966,0.06451920197118519,0.019895685595676917,0.009083549142914048,0.0974384212837486,0.033124104363428684,0.054127060618254605,0.00981346377330389,0.06926330348851767
0.2718621,0.06510032556661835,0.02022973463313963,0.00918266315395904,0.09786416622058453,0.033106398214774846,0.054361671682173464,0.009941462778279066,0.06980865746693513
0.2723276,0.06568496579200078,0.020568342633349477,0.009280684456928773,0.0982871141105056,0.03308801732034924,0.05459568888539154,0.010070789192795438,0.07035572257520092
0.2727931,0.06627310887153752,0.02091153525187549,0.009377623424164493,0.09870720127854204,0.03306898522132697,0.05482907927791274,0.010201428615000053,0.07090446410232691
0.2732586,0.06686474043245103,0.021259337721369977,0.009473490963248357,0.09912436454357781,0.03304932588886585,0.05506180988527626,0.010333366512014852,0.07145484690691306
0.2737241,0.0674598454995048,0.021611774839059798,0.009568298504538584,0.09953854122944088,0.03302906372082165,0.05529384771850866,0.010466588217665766,0.07200683542207015
0.2741897,0.0680584084896848,0.021968870954198996,0.009662057988618921,0.09994966917566127,0.033008223538310066,0.05552515978415049,0.010601078930232884,0.07256039366044825
0.2746552,0.0686604132070457,0.02233064995548629,0.00975478185366711,0.1003576867478943,0.032986830582114074,0.055755713094351775,0.010736823710224623,0.07311548521937104
0.2751207,0.06926584283772967,0.022697135258451,0.009846483022747137,0.10076253284800685,0.032964910508935186,0.05598547467703064,0.010873807478178968,0.07367207328607608
0.2755862,0.06987467994516501,0.023068349792811013,0.009937174891030154,0.10116414692382611,0.032942489387487624,0.056214411586088864,0.01101201501249487,0.07423012064306145
0.2760517,0.07048690646545251,0.023444315989806203,0.010026871312949067,0.10156246897855098,0.03291959369443408,0.05644249091167829,0.011151430947297019,0.07478958967353869
0.2765172,0.07110250370294667,0.023825055769510817,0.010115586589291915,0.10195743957982703,0.0328962503101619,0.056669679790511795,0.011292039770337117,0.07535044236699186
0.2769828,0.07172145232603919,0.024210590528128087,0.010203335454239244,0.10234899986848715,0.032872486514398384,0.056895945416212144,0.011433825820934877,0.07591264032484199
0.2774483,0.07234373236315181,0.02460094112527041,0.01029013306235077,0.10273709156696015,0.03284832998166368,0.05712125504969245,0.011576773287961842,0.07647614476621627
0.2779138,0.0729693231989454,0.024996127871228364,0.01037599497550671,0.10312165698734968,0.032823808776559826,0.05734557602956125,0.011720866207871099,0.07704091653382059
0.2783793,0.07359820357075195,0.025396170514231837,0.010460937149809113,0.10350263903918558,0.032798951348894115,0.05756887578254571,0.011866088462775884,0.07760691609991391
0.2788448,0.07423035156523572,0.02580108822770667,0.01054497592244859,0.10387998123684912,0.03277378652863506,0.0577911218339266,0.012012423778579983,0.07817410357238233
0.2793103,0.07486574461528996,0.026210899597530302,0.010628127998541723,0.1042536277066734,0.03274834352069891,0.058012281817979086,0.012159855723162735,0.0787424387009108
0.2797759,0.0755043594971744,0.026625622609289995,0.010710410437944464,0.10462352319371943,0.03272265189956481,0.058232323488413146,0.01230836770462139,0.07931188088324975
0.2802414,0.07614617232789919,0.027045274635547414,0.01079184064204673,0.1049896130682292,0.032696741603716516,0.058451214728807994,0.012457942969573435,0.0798823891715738
0.2807069,0.07679115856286013,0.027469872423113637,0.010872436340553383,0.10535184333175741,0.03267064292990854,0.05866892356303409,0.012608564601521523,0.0804539222789292
0.2811724,0.07743929299373024,0.027899432080339022,0.010952215578256754,0.1057101606229847,0.03264438652725492,0.05888541816565648,0.012760215519283503,0.08102643858576664
0.2816379,0.07809054974661195,0.028333969064422797,0.011031196701805837,0.10606451222321604,0.032618003391139155,0.05910066687231285,0.012912878475490079,0.08159989614655513
0.2821034,0.07874490228045418,0.028773498168747486,0.01110939834647721,0.10641484606156908,0.03259152485694425,0.0593146381900595,0.013066536055152473,0.08217425269647295
0.282569,0.07940232338573817,0.029218033510243657,0.011186839422952703,0.10676111071985717,0.03256498259360226,0.059527300807678464,0.013221170674302509,0.08274946565817021
0.2830345,0.08006278518343535,0.029667588516790588,0.011263539104108768,0.10710325543717208,0.03253840859696331,0.059738623605939185,0.013376764578707305,0.08332549214859804
0.2835,0.08072625912424054,0.030122175914658503,0.011339516811822348,0.1074412301141709,0.03251183518298399,0.059948575667808104,0.013533299842660796,0.08390228898589826
0.2839655,0.08139271598808319,0.030581807715998076,0.011414792203798079,0.10777498531707146,0.03248529498073518,0.060157126288599684,0.013690758367854154,0.08447981269634688
0.284431,0.0820621258839189,0.031046495206382713,0.01148938516042155,0.10810447228136014,0.0324588209252295,0.06036424498606213,0.013849121882327143,0.0850580195213447
0.2848966,0.0827344582498033,0.03151624893240936,0.011563315771643325,0.10842964291521534,0.03243244625006866,0.06056990151039063,0.01400837193950235,0.08563686542444732
0.2853621,0.0834096818532497,0.031991078689363746,0.011636604323898389,0.10875044980265028,0.032406204479910675,0.060774065854160585,0.014168489917304362,0.0862163060984272
0.2858276,0.08408776479187144,0.03247099350895622,0.011709271287065696,0.10906684620637844,0.032380129422757496,0.06097670826217354,0.014329457017365864,0.0867962969723602
0.2862931,0.08476867449430917,0.03295600164713488,0.011781337301472395,0.10937878607040624,0.03235425516206325,0.0611777992412073,0.014491254264322686,0.08737679321872902
0.2867586,0.08545237772144312,0.03344611057198307,0.011852823164947393,0.10968622402235881,0.0323286160486638,0.06137730956966214,0.01465386250519987,0.08795774976053625
0.2872241,0.08613884056788942,0.03394132695170875,0.011923749819928888,0.10998911537554604,0.03230324669252859,0.06157521030709429,0.014817262408890874,0.08853912127841922
0.2876897,0.08682802846377868,0.034441656642733444,0.01199413834063052,0.11028741613077747,0.0322781819543363,0.06177147280362787,0.014981434465731984,0.08912086221775842
0.2881552,0.08751990617681539,0.034947104677888904,0.012064009920270772,0.11058108297793504,0.03225345693687636,0.061966068709236204,0.015146358987174084,0.08970292679577146
0.2886207,0.08821443781461465,0.0354576752547293,0.012133385858370272,0.1108700732973129,0.032229106976278926,0.06215896998288321,0.015312016105553827,0.09028526900858358
0.2890862,0.08891158682731365,0.03597337172396703,0.012202287548121622,0.11115434516073378,0.032205167633076244,0.062350148901516175,0.01547838577396625,0.09086784263826626
0.2895517,0.08961131601045413,0.03649419657803979,0.012270736463836333,0.11143385733245137,0.03218167468309874,0.06253957806890112,0.015645447766240776,0.0914506012598359
0.2900172,0.09031358750813225,0.03702015143981655,0.012338754148473404,0.11170856926984872,0.03215866410820896,0.06272723042429248,0.015813181677022507,0.09203349824820406
0.2904828,0.09101836281641239,0.03755123705144972,0.012406362201254085,0.11197844112394216,0.03213617208687662,0.06291307925092907,0.015981566921960625,0.09261648678507156
0.2909483,0.09172560278700259,0.0380874532633808,0.012473582265367262,0.11224343373970101,0.03211423498459796,0.06309709818434847,0.016150582738005764,0.09319951986575774
0.2914138,0.09243526763118923,0.03862879902350652,0.01254043601576993,0.11250350865619284,0.032092889344162656,0.06327926122051317,0.01632020818381817,0.09378255030595699
0.2918793,0.09314731692402965,0.03917527236651241,0.012606945147087219,0.1127586281065641,0.03207217187577175,0.06345954272374181,0.01649042214028847,0.094365530748415
0.2923448,0.09386170960880179,0.039726870403380715,0.012673131361616229,0.11300875501786611,0.032052119447009864,0.06363791743443994,0.016661203311172913,0.09494841366951792
0.2928103,0.09457840400171022,0.040283589311079684,0.01273901635743805,0.11325385301073654,0.03203276907267525,0.06381436047662455,0.01683253022384498,0.0955311513857888
0.2932759,0.09529735779684781,0.04084542432244084,0.01280462181664211,0.11349388639894706,0.03201415790447097,0.06398884736523726,0.017004381230165115,0.09611369606028575
0.2937414,0.09601852807141255,0.04141236971623126,0.012869969393666995,0.11372882018882798,0.03199632322056061,0.06416135401324113,0.01717673450747052,0.09669599970889718
0.2942069,0.09674187129117824,0.04198441880742747,0.01293508070376177,0.11395862007858179,0.031979302414991924,0.0643318567384962,0.01734956805968674,0.09727801420652894
0.2946724,0.0974673433162178,0.04256156393769773,0.012999977311571693,0.11418325245749805,0.03196313298699202,0.06450033227040966,0.017522859718562905,0.09785969129317823
0.2951379,0.09819489940687721,0.043143796466099116,0.013064680719852199,0.11440268440508249,0.03194785253013791,0.06466675775635702,0.0176965871450323,0.09844098257988942
0.2956034,0.09892449422999766,0.04373110675999569,0.013129212358314886,0.11461688369011347,0.031933498721406446,0.06483111076787074,0.017870727830699984,0.09902183955458839
0.296069,0.09965608186538227,0.044323484186204014,0.013193593572609281,0.11482581876963883,0.03192010931010793,0.06499336930659372,0.018045259099458942,0.09960221358779302
0.2965345,0.10038961581250361,0.044920917102372025,0.013257845613444067,0.11502945878792571,0.03190772210670779,0.06515351180999596,0.018220158109236235,0.10018205593819923
0.297,0.10112504899744747,0.04552339284859698,0.013321989625851528,0.11522777357537647,0.03189637497154092,0.06531151715685327,0.018395401853870365,0.10076131775814315
0.2974655,0.1018623337800883,0.04613089773928833,0.013386046638598879,0.11542073364742288,0.03188610580342341,0.06546736467248845,0.01857096716512109,0.10133995009894098
0.297931,0.10260142196149111,0.04674341705528105,0.013450037553750195,0.11560831020341071,0.03187695252816655,0.06562103413377593,0.018746830714812597,0.10191790391611018
0.2983966,0.1033422647915345,0.04736093503620478,0.013513983136382596,0.11579047512548694,0.031868953086998164,0.06577250577391155,0.018922969017110935,0.10249513007447753
0.2988621,0.10408481297674912,0.04798343487311397,0.013577904004460297,0.11596720097750088,0.03186214542489603,0.0659217602869503,0.019099358430936457,0.10307157935318273
0.2993276,0.10482901668836656,0.04861089870138418,0.013641820618870034,0.11613846100393019,0.03185656747883828,0.06606877883211444,0.019275975162512015,0.1036472024505876
0.2997931,0.10557482557057303,0.04924330759387919,0.013705753273621281,0.11630422912884299,0.03185225716597542,0.06621354303787631,0.019452795268047534,0.10422194998910236
0.3002586,0.10632218874896361,0.04988064155439352,0.01376972208621457,0.11646447995490598,0.031849252371728635,0.06635603500581955,0.019629794656561575,0.10479577251994035
0.3007241,0.10707105483919224,0.05052287951137459,0.013833746988181125,0.11661918876244888,0.031847590937818734,0.06649623731428331,0.01980694909284045,0.10536862052781185
0.3011897,0.10782137195581347,0.05116999931192859,0.013897847715796916,0.11676833150859424,0.03184731065023017,0.06663413302179447,0.019984234200535408,0.10594044443556754
0.3016552,0.10857308772131233,0.051821977716113604,0.013962043800974109,0.11691188482646168,0.031848449227114335,0.06676970567029321,0.02016162546539832,0.10651119460880093
0.3021207,0.10932614927531838,0.05247879039152339,0.014026354562332734,0.11704982602445535,0.03185104430663626,0.06690293928815752,0.020339098238656317,0.10708082136041876
0.3025862,0.11008050328400071,0.0531404119081652,0.014090799096455348,0.11718213308564321,0.03185513343476878,0.06703381839303316,0.020516627740525657,0.107649274955187
0.3030517,0.11083609594963996,0.053806815733634945,0.014155396269327287,0.11730878466723695,0.031860754053038086,0.067162327994475,0.020694189063865248,0.10821650561426116
0.3035172,0.1115928730203732,0.05447797422859263,0.014220164707965032,0.1174297601001817,0.031867943486224466,0.067288453596406,0.020871757177970154,0.1087824635197084
0.3039828,0.11235077980010706,0.05515385864254129,0.014285122792235037,0.11754503938886542,0.03187673893002193,0.0674121811993996,0.021049306932505424,0.10934709881903008
0.3044483,0.11310976115859443,0.055834439109912065,0.014350288646865314,0.1176546032109568,0.031887177438660354,0.06753349730279112,0.02122681306158058,0.10991036162969342
0.3049138,0.11386976154166928,0.05651968464645831,0.01441568013365195,0.11775843291738168,0.031899295912493644,0.0676523889066232,0.021404250187964918,0.11047220204368069
0.3053793,0.11463072498163403,0.0572095631459615,0.014481314843862675,0.1178565105324459,0.03191313108555729,0.06776884351342967,0.021581592827443777,0.11103257013206486
0.3058448,0.11539259510779347,0.057904041377251324,0.014547210090839483,0.11794881875411356,0.03192871951309858,0.06788284912986244,0.021758815393315867,0.11159141594961927
0.3063103,0.11615531515712794,0.05860308498154274,0.014613382902802315,0.1180353409544485,0.03194609755908259,0.06799439426816482,0.02193589220103148,0.11214868953946873
0.3067759,0.11691882798509858,0.05930665847009205,0.014679850015855691,0.11811606118022716,0.031965301383676946,0.06810346794749493,0.022112797472971398,0.1127043409377885
0.3072414,0.11768307607657662,0.06001472522217428,0.014746627867200268,0.11819096415373041,0.03198636693071819,0.06821005969510187,0.02228950534336607,0.11325832017855704
0.3077069,0.11844800155688823,0.0607272474833842,0.014813732588551126,0.118260035273722,0.03200932991516258,0.06831415954735755,0.022465989863354564,0.1138105772983672
0.3081724,0.11921354620296622,0.06144418636426258,0.01488117999976463,0.11832326061662135,0.03203422581052371,0.06841575805064634,0.022642225006182654,0.11436106234130079
0.3086379,0.11997965145460045,0.06216550183924936,0.014948985602675617,0.1183806269378779,0.03206108983629955,0.06851484626211457,0.0228181846725393,0.11490972536387085
0.3091034,0.12074625842577835,0.06289115274596496,0.015017164575146683,0.11843212167355396,0.03208995694539099,0.06861141575028178,0.022993842696030664,0.11545651644003571
0.309569,0.1215133079161073,0.06362109678482056,0.015085731765331152,0.1184777329421222,0.03212086181151404,0.06870545859551559,0.02316917284879079,0.1160013856662889
0.3100345,0.12228074042230996,0.06435529051895743,0.015154701686151283,0.11851744954648374,0.032153838816607556,0.06879696739037178,0.02334414884722787,0.11654428316682895
0.3105,0.12304849614978337,0.0650936893745152,0.01522408850999315,0.11855126097621192,0.032188922038238234,0.06888593523980098,0.023518744357904835,0.11708515909881262
0.3109655,0.12381651502421182,0.06583624764122817,0.015293906063619519,0.11857915741002646,0.03222614523700429,0.06897235576122399,0.023692933003553053,0.11762396365769517
0.311431,0.12458473670322293,0.06658291847334834,0.015364167823301958,0.11860112971850204,0.03226554184393931,0.06905622308447627,0.0238666883692177,0.11816064708266127
0.3118966,0.12535310058807594,0.06733365389089332,0.015434886910173301,0.1186171694670149,0.032307144947917366,0.06913753185162337,0.02403998400853341,0.11869515966214915
0.3123621,0.12612154583537102,0.06808840478121658,0.015506076085801459,0.11862726891893037,0.03235098728306053,0.06921627721664803,0.024212793450128806,0.11922745173947036
0.3128276,0.1268900113687678,0.06884712090089744,0.01557774774798551,0.11863142103903426,0.03239710121614976,0.06929245484501009,0.02438509020415849,0.11975747371852716
0.3132931,0.12765843589070175,0.06960975087794762,0.015649913926774887,0.11862961949721099,0.03244551873404019,0.0693660609130804,0.02455684776896122,0.12028517606962884
0.3137586,0.1284267578940869,0.07037624221433118,0.015722586280712315,0.11862185867237146,0.03249627143108185,0.06943709210744944,0.024728039637842723,0.12081050933540768
0.3142241,0.1291949156739935,0.0711465412887946,0.015795776093301083,0.11860813365663378,0.03254939049654687,0.06950554562411243,0.024898639305981764,0.12133342413683522
0.3146897,0.12996284733928964,0.07192059336000359,0.01586949426969713,0.11858844025975973,0.03260490670206457,0.06957141916753183,0.02506862027745781,0.12185387117933857
0.3151552,0.13073049082423602,0.07269834256998321,0.015943751333626258,0.11856277501384985,0.032662850389066314,0.06963471094957895,0.025237956072398548,0.12237180125901605
0.3156207,0.1314977839000236,0.07347973194785846,0.0160185574245267,0.11853113517829944,0.032723251456242074,0.06969541968835585,0.025406620234245364,0.12288716526895084
0.3160862,0.13226466418624394,0.0742647034138915,0.016093922294917205,0.11849351874501707,0.03278613934701122,0.06975354460689898,0.025574586337134754,0.12339991420562182
0.3165517,0.1330310691622823,0.07505319778381238,0.0161698553079906,0.11844992444390665,0.032851543037010295,0.06980908543176567,0.02574182799339356,0.12390999917541058
0.3170172,0.13379693617862412,0.0758451547734397,0.016246365435432793,0.11840035174861403,0.03291949102160082,0.06986204239150516,0.02590831886114587,0.12441737140120401
0.3174828,0.13456220246806594,0.07664051300358803,0.016323461255467103,0.11834480088253843,0.03299001130340073,0.06991241621501473,0.02607403265202948,0.12492198222909183
