Time,Rectus Femoris right,Rectus Femoris left,Hamstrings right,Hamstrings left,TibilaisÂ Anterior right,TibilaisÂ Anterior left,Gastrocnemius right,Gastrocnemius left
0.0,-0.03162087792421603,0.010492569871178085,-0.01562954584155153,-0.0005076520715908624,0.01248066598270554,-0.006824974428970801,0.20220213820304028,-0.0002368981633273861
0.0004655,-0.030701793220704068,0.01063483058051244,-0.014343380795825181,-0.00040298284488460756,0.014689693098766395,-0.006552819234054071,0.20424811215290067,-3.7869601591587946e-05
0.000931,-0.029784313199164206,0.010777309909206926,-0.013050521328261141,-0.00029855338274185477,0.01692013180569904,-0.006280021944980993,0.20630149443156384,0.00016175436209900303
0.0013966,-0.02886856229369924,0.010919989039810871,-0.011751099257308308,-0.0001943785975645694,0.019171841414203895,-0.006006609654447896,0.20836190825703754,0.000361949576535666
0.0018621,-0.02795466454141388,0.011062849063460823,-0.010445248402277934,-9.047334821167455e-05,0.021444675841246336,-0.005732609563947106,0.2104289718720199,0.0005626916847446125
0.0023276,-0.027042743544962753,0.011205870984841413,-0.009133104565333694,1.3147564654786454e-05,0.023738483601890525,-0.005458048977341456,0.21250229861995912,0.0007639561292192568
0.0027931,-0.02613292243537434,0.011349035727178332,-0.007814805513034859,0.0001164694032007562,0.026053107802369902,-0.005182955294457507,0.21458149702372858,0.0009657181572146217
0.0032586,-0.025225323835176214,0.011492324137260182,-0.006490490957439947,0.00021947749702588902,0.02838838613440118,-0.00490735600470146,0.21666617086691917,0.001167952826101755
0.0037241,-0.024320069821846323,0.011635716990486116,-0.005160302536777968,0.00032215724774126115,0.030744150870749,-0.004631278680701658,0.21875591927774937,0.0013706350087800646
0.0041897,-0.023417281891614336,0.011779194995936234,-0.003824383795694048,0.0004244941335164374,0.03312022886204873,-0.004354750971981495,0.22085033681559188,0.001573739399145518
0.0046552,-0.02251708092363629,0.011922738801461835,-0.002482880165075793,0.0005264737135932725,0.035516441534895346,-0.004077800598666414,0.22294901356011473,0.0017772405176126947
0.0051207,-0.02161958714456494,0.01206632899879263,-0.001135938941466211,0.0006280816327638353,0.037932604891206874,-0.0038004553452286086,0.22505153520303278,0.0019811127166887298
0.0055862,-0.020724920093536887,0.012209946128658066,0.00021629073393164116,0.0007293036258098516,0.040368529508871584,-0.003522743054272869,0.2271574831424647,0.00218533018659723
0.0060517,-0.019833198587596513,0.012353570685919876,0.0015736578966537846,0.0008301255219010762,0.0428240205436887,-0.003244691620366816,0.2292664345798889,0.0023898669609502916
0.0065172,-0.0189445406875752,0.012497183124712838,0.002936009780774399,0.000930533248950014,0.04529887773261321,-0.0029663289839186795,0.23137796261969007,0.00259469692246681
0.0069828,-0.01805906366444313,0.012640763863590736,0.004303191841101696,0.0010305128379204211,0.04779289539831586,-0.0026876831251055715,0.2334916363712859,0.0027997938087353366
0.0074483,-0.01717688396614938,0.012784293290674336,0.005675047775768107,0.0011300504270870385,0.05030586245507051,-0.002408782057855129,0.23560702105382222,0.0030051312180198212
0.0079138,-0.016298117184964735,0.01292775176879813,0.0070514195492130055,0.0012291322662440483,0.05283756241598112,-0.0021296538238832065,0.2377236781034234,0.003210682615106681
0.0083793,-0.015422878025340123,0.013071119640652558,0.008432147415556908,0.0013277447208597996,0.05538777340156157,-0.0018503264867901154,0.239841165282982,0.003416421337191725
0.0088448,-0.014551280272292407,0.013214377233918365,0.009817069942366837,0.0014258742761754442,0.05795626814968177,-0.0015708281262176492,0.24195903679447028,0.0036223205998055603
0.0093103,-0.013683436760327803,0.013357504866389949,0.011206024034813186,0.0015235075412452167,0.060542814026893856,-0.0012911868320688656,0.24407684339375396,0.0038283535027761944
0.0097759,-0.012819459342912131,0.01350048285108461,0.012598844960219045,0.0016206312529162253,0.06314717304115218,-0.0010114306987923762,0.2461941325078876,0.004034493036227551
0.0102414,-0.011959458862495982,0.013643291501335003,0.013995366373003422,0.0017172322797457506,0.06576910185594097,-0.0007315878197327125,0.24831044835486768,0.004240712086612667
0.0107069,-0.011103545121102013,0.013785911135862333,0.015395420340020111,0.0018132976258542018,0.06840835180582273,-0.00045168628154822015,0.25042533206581863,0.0044469834427803365
0.0111724,-0.010251826851480812,0.01392832208382816,0.016798837366294228,0.001908814434712039,0.07106466891342099,-0.00017175415869785627,0.25253832180958424,0.0046532798020739174
0.0116379,-0.009404411688841168,0.014070504689862878,0.018205446421158483,0.002003769992859138,0.07373779390785032,0.00010818049200178888,0.2546489529196958,0.004859573776461045
0.0121034,-0.008561406143160042,0.01421243931906913,0.019615074964791382,0.0020981517335552377,0.0764274622446066,0.0003880896367479777,0.256756758023685,0.005065837898692923
0.012569,-0.007722915572077051,0.014354106361998515,0.021027548975159596,0.002191947240360276,0.0791334041269306,0.0006679452700505975,0.2588612671747082,0.005272044628491877
0.0130345,-0.0068890441543780516,0.01449548623959994,0.02244269297536676,0.002285144250643587,0.08185534452865764,0.0009477194199570563,0.26096200798544733,0.005478166358765784
0.0135,-0.0060598948640720185,0.01463655940813798,0.023860330061411146,0.0023777306590210953,0.08459300321856632,0.0012273841532022144,0.2630585057642491,0.00568417542184804
0.0139655,-0.005235569445065208,0.014777306364079566,0.02528028193035481,0.0024696945207197925,0.08734609478623828,0.0015069115802823672,0.26515028365346327,0.005890044095761629
0.014431,-0.004416168386436277,0.014917707648947473,0.02670236890890708,0.00256102405486891,0.09011432866944127,0.0017862738604524234,0.2672368627699374,0.006095744610505905
0.0148966,-0.003601790898315724,0.01505774385413904,0.028126409982425667,0.0026517076477173105,0.09289740918304673,0.0020654432066455736,0.26931776234762395,0.006301249154364587
0.0153621,-0.002792534888372605,0.01519739562570878,0.029552222824338933,0.0027417338557766922,0.09569503554949266,0.002344391890314904,0.27139249988225356,0.006506529880233489
0.0158276,-0.0019884969389111027,0.0153366436691136,0.030979623825992942,0.002831091408890245,0.09850690193080221,0.00262309224619655,0.2734605912780257,0.006711558911966416
0.0162931,-0.0011897722845791185,0.015475468753919447,0.03240842812692691,0.002919769213226404,0.10133269746216744,0.0029015166769941433,0.27552155099626474,0.00691630835073766
0.0167586,-0.0003964547906905882,0.01561385171846822,0.03383844964558074,0.0030077563541973666,0.10417210628710745,0.003179637657984427,0.2775748922059886,0.0071207502814194905
0.0172241,0.00039136306783722736,0.015751773474503843,0.035269501110438334,0.0030950420993020324,0.10702480759420942,0.003457427741544023,0.27962012693633326,0.007324856778973016
0.0176897,0.0011735902269307435,0.015889215011756427,0.03670139409161029,0.003181615900893035,0.1098904756554616,0.0037348595615974032,0.2816567662307751,0.007528599914850783
0.0181552,0.0019501370531910818,0.016026157402483622,0.03813393903285959,0.0032674673988675827,0.11276877986618643,0.004011905837986169,0.28368432030308977,0.007731951763409458
0.0186207,0.0027209153631093095,0.016162581805968364,0.03956694528407374,0.0033525864232818335,0.11565938478658161,0.004288539380759759,0.28570229869498437,0.007934884408330865
0.0190862,0.00348583844166645,0.016298469472972494,0.04100022113418662,0.003436962996888613,0.11856195018487771,0.004564733094387716,0.2877102104353379,0.008137369949049667
0.0195517,0.004244821060319159,0.016433801750145853,0.042433573844552985,0.0035205873375983078,0.12147613108211923,0.004840459981893653,0.28970756420098026,0.008339380507185903
0.0200172,0.004997779494372252,0.016568560084390622,0.043866809682778354,0.0036034498608628262,0.1244015777985766,0.005115693148911059,0.2916938684789408,0.008540888232980609
0.0204828,0.005744631539739579,0.016702726027180807,0.04529973395700659,0.003685541181982535,0.12733793600179588,0.0053904058076610925,0.2936686317300935,0.008741865311732742
0.0209483,0.006485296529095013,0.016836281238836927,0.046732151050667296,0.003766852118336109,0.13028484675629212,0.005664571280852501,0.29563136255412414,0.008942283970235627
0.0214138,0.007219695347415695,0.016969207492756086,0.048163864457684794,0.003847373691533229,0.13324194657489258,0.005938163005503807,0.2975815698557427,0.009142116483211133
0.0218793,0.007947750446919888,0.017101486679597655,0.04959467681815023,0.0039270971294900845,0.136208867471735,0.006211154536687955,0.29951876301206126,0.009341335179739754
0.0223448,0.008669385861402147,0.0172331008114249,0.05102438995445811,0.00400601386842763,0.13918523701692648,0.006483519551199607,0.30144245204105774,0.009539912449684718
0.0228103,0.00938452721996872,0.017364032025802965,0.05245280490790823,0.0040841155547925575,0.14217067839286818,0.006755231851145312,0.30335214777104164,0.009737820750108287
0.0232759,0.010093101760176361,0.017494262589853496,0.05387972197577365,0.004161394047100968,0.14516481045225094,0.007026265367456847,0.30524736201103914,0.009935032611678291
0.0237414,0.01079503834057795,0.017623774904266372,0.05530494074883489,0.004237841417704749,0.14816724777772566,0.007296594163328088,0.3071276077220108,0.010131520645062972
0.0242069,0.011490267452678617,0.017752551507268975,0.05672826014938038,0.004313449954480686,0.15117760074325348,0.007566192437575835,0.3089923991888156,0.010327257547312143
0.0246724,0.01217872123230632,0.01788057507855337,0.058149478469672576,0.004388212162442341,0.1541954755771378,0.007835034527925163,0.31084125219283265,0.010522216108222624
0.0251379,0.012860333470401145,0.018007828443161903,0.05956839341087906,0.004462120765274779,0.15722047442674184,0.00810309491421995,0.31267368418515223,0.010716369216685907
0.0256034,0.013535039623227918,0.018134294575331517,0.0609848021224679,0.004535168706792218,0.16025219542489322,0.008370348221559357,0.3144892144602465,0.010909689867016008
0.026069,0.014202776822017028,0.018259956602297216,0.06239850124206649,0.0046073491523186405,0.16329023275797777,0.008636769223361176,0.3162873643300296,0.011102151165255486
0.0265345,0.014863483882038684,0.018384797808054878,0.06380928693578311,0.004678655489991466,0.1663341767357228,0.008902332844353057,0.31806765729821596,0.011293726335457669
0.027,0.01551710131111606,0.018508801637083547,0.065216954938991,0.004749081331988279,0.16938361386267026,0.009167014163492733,0.319829619234888,0.011484388725943267
0.0274655,0.016163571317583,0.018631951698027272,0.0666213005975742,0.004818620515676651,0.17243812691133897,0.009430788416818435,0.3215727785511807,0.011674111815529636
0.027931,0.016802837817692148,0.018754231767336295,0.06802211890963471,0.004887267104687019,0.17549729499707356,0.009693631000230766,0.32329666637399374,0.011862869219731087
0.0283966,0.017434846442479526,0.018875625792867407,0.06941920456766022,0.004955015389908615,0.17856069365457758,0.0099555174722073,0.325000816720639,0.012050634696928795
0.0288621,0.018059544544091633,0.01899611789744308,0.07081235200115152,0.005021859890408415,0.18162789491612796,0.010216423556451183,0.32668476667333535,0.0122373821545089
0.0293276,0.018676881201581202,0.01911569238236895,0.0722013554197081,0.005087795354273143,0.1846984673914656,0.010476325144475003,0.32834805655345956,0.012423085654967516
0.0297931,0.019286807226177805,0.019234333730909076,0.07358600885657073,0.005152816759374414,0.18777197634935788,0.010735198298121121,0.3299902300954644,0.012607719421981385
0.0302586,0.019889275166039364,0.019352026611718337,0.07496610621261952,0.00521691931405719,0.1908479838008275,0.010993019252019577,0.3316108346203742,0.012791257846442883
0.0307241,0.020484239310490624,0.019468755882231088,0.07634144130082576,0.005280098457751839,0.19392604858404047,0.011249764415984714,0.33320942120877006,0.012973675492458096
0.0311897,0.02107165569375462,0.019584506592005137,0.07771180789115553,0.005342349861510159,0.1970057264508474,0.011505410377351623,0.33478554487317636,0.013154947103306591
0.0316552,0.021651482098183104,0.019699263986019955,0.07907699975592328,0.005403669428465826,0.20008657015496906,0.011759933903253571,0.33633876472976104,0.013335047607361584
0.0321207,0.022223678056991963,0.01981301350792792,0.08043681071559278,0.005464053294219768,0.20316812954181848,0.012013311942841694,0.33786864416926293,0.013513952123969232
0.0325862,0.022788204856507698,0.01992574080325725,0.08179103468502305,0.0055234978271510886,0.20624995163994916,0.012265521629448321,0.33937475102705994,0.013691635969285949
0.0330517,0.02334502553793089,0.02003743172256525,0.08313946572015579,0.00558199962865414,0.2093315807541192,0.012516540282695537,0.3408566577522935,0.013868074662072906
0.0335172,0.023894104898622676,0.02014807232454028,0.08448189806514061,0.0056395555333024405,0.21241255855995958,0.012766345410550715,0.3423139415759651,0.014043243929447035
0.0339828,0.024435409492920047,0.02025764887905085,0.08581812619989344,0.005696162608940129,0.2154924242002336,0.013014914711330816,0.34374618467792156,0.014217119712588034
0.0344483,0.02496890763248571,0.020366147870140183,0.08714794488808295,0.005751818156701648,0.21857071438267373,0.013262226075657354,0.3451529743526468,0.014389678172400977
0.0349138,0.025494569386198106,0.020473555998964596,0.0884711492255391,0.005806519710960402,0.22164696347938057,0.013508257588363855,0.3465339031737768,0.014560895695134196
0.0353793,0.026012366579587148,0.02057986018667413,0.0897875346890771,0.005860265039207136,0.22472070362776733,0.013752987530357565,0.34788856915725386,0.014730748897952102
0.0358448,0.026522272793821047,0.020685047577233974,0.0910968971857292,0.005913052141858802,0.22779146483303234,0.01399639438043716,0.34921657592303423,0.01489921463446257
0.0363103,0.02702426336424941,0.020789105540185364,0.0923990331023763,0.005964879251998719,0.2308587750721397,0.014238456817068104,0.35051753285526177,0.015066270000198502
0.0367759,0.027518315378507817,0.02089202167334494,0.09369373935577031,0.006015744835048804,0.23392216039928737,0.014479153720117353,0.35179105526081683,0.01523189233805316
0.0372414,0.02800440767418862,0.020993783805441684,0.09498081344293778,0.006065647588374709,0.23698114505284087,0.014718464172549068,0.35303676452614785,0.015396059243668783
0.0377069,0.028482520836082898,0.021094379998690932,0.09626005349195398,0.0061145864408247,0.24003525156370806,0.0149563674620831,0.3542542882722897,0.015558748570777938
0.0381724,0.028952637192998138,0.021193798551305223,0.0975312583130763,0.006162560552203141,0.24308400086513016,0.01519284308281796,0.35544326050797354,0.015719938436496973
0.0386379,0.029414740814156248,0.021292027999942124,0.09879422745022497,0.006209569312679434,0.2461269124038609,0.015427870736820046,0.35660332178072884,0.015879607226570818
0.0391034,0.02986881750517657,0.021389057122089387,0.10004876123279843,0.006255612342133278,0.2491635042527051,0.01566143033568083,0.3577341193258803,0.016037733600568232
0.039569,0.030314854803648504,0.02148487493838822,0.10129466082780957,0.0063006894894370915,0.25219329322438533,0.015893502002043768,0.3588353072133381,0.016194296497026608
0.0400345,0.030752841974298624,0.021579470714895563,0.10253172829232868,0.0063448008316764285,0.255215794986705,0.016124066071102585,0.35990654649208403,0.01634927513854522
0.0405,0.031182770003757344,0.021672833965286346,0.1037597666262183,0.006387946673309199,0.2582305241789737,0.016353103092072607,0.3609475053322513,0.016502649036825846
0.0409655,0.031604631594930606,0.02176495445299688,0.10497857982514366,0.006430127545264486,0.2612369945296605,0.01658059382963668,0.36195785916470086,0.016654397997659515
0.041431,0.032018421160982524,0.02185582219331046,0.1061879729338421,0.006471344203981791,0.26423471897523965,0.016806519265367192,0.36293729081799564,0.016804502125858156
0.0418966,0.032424134818935406,0.021945427455386267,0.10738775209963389,0.0065115976303914596,0.26722320978019376,0.0170308605991255,0.3638854906526745,0.0169529418301298
0.0423621,0.03282177038289399,0.022033760764232555,0.10857772462615572,0.006550889028837098,0.2702019786581366,0.017253599250440094,0.36480215669273275,0.017099697827895957
0.0428276,0.03321132735690116,0.022120812902624992,0.10975769902729776,0.006589219825940737,0.27317053689401893,0.017474716859864618,0.365686994754217,0.017244751150049607
0.0432931,0.03359280692743264,0.022206574912970914,0.11092748508132372,0.006626591669411497,0.2761283954673772,0.017694195290316864,0.36653971857084866,0.017388083145652395
0.0437586,0.03396621195553833,0.022291038099120156,0.11208689388515376,0.006663006426798535,0.2790750651765863,0.017912016628399703,0.36736004991659416,0.01752967548656944
0.0442241,0.03433154696863811,0.022374194028122928,0.11323573790878878,0.006698466184189045,0.28201005676407265,0.018128163185705044,0.36814771872510765,0.01766951017204033
0.0446897,0.034688818151979973,0.022456034531935103,0.11437383104985387,0.006732973244852143,0.28493288104244524,0.01834261750010183,0.3689024632059783,0.017807569533184905
0.0451552,0.03503803333976847,0.022536551709071255,0.1155009886882393,0.006766530127829478,0.2878430490214987,0.01855536233700926,0.3696240299577242,0.017943836237442386
0.0456207,0.0353792020059713,0.02261573792620563,0.11661702774081602,0.006799139566473493,0.29074007203603924,0.018766380690656413,0.3703121740774803,0.018078293292942364
0.0460862,0.035712335254811635,0.02269358581972121,0.11772176671620213,0.006830804506934257,0.2936234618744843,0.01897565578532954,0.3709666592673363,0.01821092405280612
0.0465517,0.03603744581095391,0.022770088297206902,0.1188150257695564,0.006861528106595845,0.2964927309081828,0.019183171076608288,0.37158725793728525,0.01834171221937668
0.0470172,0.03635454800939022,0.02284523853890276,0.11989662675737435,0.006891313732463304,0.29934739222140166,0.019388910252592262,0.3721737513047501,0.018470641848375813
0.0474828,0.03666365778503447,0.02291902999909317,0.12096639329226137,0.0069201649595011985,0.3021869597419228,0.01959285723511919,0.3727259294906565,0.018597697352986293
0.0479483,0.03696479266203103,0.022991456407447732,0.12202415079765637,0.006948085568924807,0.3050109483721924,0.01979499618097595,0.3732435916120231,0.018722863507857648
0.0484138,0.03725797174278448,0.023062511770309598,0.12306972656247878,0.006975079546444996,0.30781887412096665,0.019995311483103743,0.37372654587103843,0.018846125453033585
0.0488793,0.03754321569671681,0.02313219037193102,0.12410294979567062,0.007001151080467834,0.3106102542353946,0.020193787771798366,0.3741746096405974,0.018967468697799177
0.0493448,0.03782054674875812,0.023200486775655716,0.12512365168060438,0.007026304560250004,0.3133846073334826,0.020390409915906765,0.3745876095462646,0.019086879124445878
0.0498103,0.038089988667576714,0.023267395825047714,0.12613166542932666,0.007050544574011045,0.31614145353688267,0.02058516302402073,0.3749653815446333,0.0192043429919523
0.0502759,0.03835156675355399,0.023332912644966248,0.12712682633660607,0.007073875907003463,0.31888031460395055,0.020778032445668622,0.3753077709980479,0.019319846939578514
0.0507414,0.03860530782650971,0.02339703264258626,0.12810897183375353,0.0070963035395417255,0.3216007140630185,0.020969003772506024,0.3756146327456554,0.019433377990371686
0.0512069,0.03885124021318284,0.02345975150836396,0.12907794154218186,0.007117832644991104,0.32430217734582983,0.021158062839506078,0.3758858311707531,0.01954492355458086
0.0516724,0.03908939373447309,0.023521065216946732,0.13003357732667134,0.007138468587717272,0.3269842319210828,0.02134519572615028,0.3761212402643978,0.019654471432978608
0.0521379,0.03931979969244862,0.02358097002802675,0.13097572334830662,0.007158216920997539,0.32964640742803114,0.021530388757620436,0.3763207436852397,0.019762009820087332
0.0526034,0.039542490857125065,0.023639462487137303,0.13190422611705124,0.007177083384894534,0.3322882358100899,0.021713628505992347,0.3764842348155449,0.019867527307308078
0.053069,0.03975750145302121,0.023696539426390925,0.13281893454392454,0.007195073904093101,0.334909251448392,0.02189490179143172,0.37661161681336763,0.019971012885949876
0.0535345,0.039964867145496796,0.023752197965158192,0.1337196999927468,0.007212194585701167,0.3375089912952425,0.022074195683392587,0.37670280266083117,0.020072455950157882
0.054,0.04016462502687783,0.023806435510686133,0.13460637633141845,0.007228451717015322,0.34008699500741585,0.022251497501818415,0.3767577152084747,0.020171846299738724
0.0544655,0.040356813602374954,0.02385924975865512,0.13547881998269953,0.007243851763251898,0.3426428050792427,0.022426794818345974,0.3767762872156195,0.020269174142881624
0.054931,0.04054147277580033,0.023910638693673048,0.13633688997445598,0.007258401365244363,0.34517596697543323,0.02260007545751182,0.3767584613867083,0.02036443009877394
0.0553966,0.04071864383508853,0.02396060058970562,0.13718044798934034,0.00727210733710787,0.34768602926358705,0.022771327497961263,0.37670419040356967,0.020457605200109617
0.0558621,0.04088836943762671,0.024009134010441618,0.13800935841387538,0.007284976663871918,0.35017254374634127,0.022940539273659633,0.37661343695355887,0.020548690895488973
0.0563276,0.04105069359539911,0.024056237809592033,0.1388234883869095,0.007297016499082063,0.3526350655931114,0.023107699375105727,0.3764861737535278,0.0206376790517081
0.0567931,0.04120566165995067,0.024101911131122318,0.1396227078474147,0.0073082341623717136,0.35507315347138085,0.02327279665054721,0.3763223835695786,0.02072456195593591
0.0572586,0.04135332030717418,0.024146153409417226,0.14040688958159836,0.007318637137005045,0.35748636967749914,0.023435820207197876,0.3761220592325594,0.020809332317776805
0.0577241,0.04149371752192512,0.024188964369378188,0.1411759092693009,0.007328233067392098,0.3598742802669504,0.02359675941245656,0.3758852036492605,0.020891983271216736
0.0581897,0.04162690258246782,0.02423034402645328,0.141929645529653,0.007337029756577126,0.3622364551840552,0.023755603895127562,0.37561182980927615,0.020972508376450278
0.0586552,0.04175292604475639,0.024270292686600126,0.14266797996596559,0.007345035163701204,0.3645724683910723,0.02391234354664223,0.3753019607875001,0.02105090162158625
0.0591207,0.041871839726553534,0.024308810946182088,0.14339079720982648,0.0073522574014401034,0.3668818979966676,0.024066968522281317,0.37495562974222785,0.021127157424229208
0.0595862,0.041983696691389974,0.024345899691798307,0.14409798496437728,0.007358704733418365,0.36916432638372065,0.02421946924239766,0.3745728799088442,0.021201270632933995
0.0600517,0.04208855123236719,0.024381560100047987,0.14478943404674335,0.007364385571600475,0.37141934033643953,0.02436983639363849,0.37415376458907956,0.02127323652853058
0.0605172,0.04218645885580586,0.02441579363722965,0.14546503842958902,0.00736930847366,0.37364653116675667,0.024518060930166487,0.3736983471358251,0.021343050825316207
0.0609828,0.042277476264742694,0.02444860205897594,0.14612469528177002,0.007373482140327488,0.37584549483997826,0.02466413407487872,0.37320670093350283,0.021410709672111897
0.0614483,0.04236166134227835,0.024479987409824735,0.1467683050080542,0.007376915412717893,0.37801583209966033,0.02480804732062211,0.3726789093739923,0.021476209653180412
0.0619138,0.042439073134779515,0.024509952022727263,0.14739577128788253,0.007379617269638239,0.38015714859168503,0.024949792431404293,0.3721150658281213,0.021539547789002623
0.0623793,0.04250977183493832,0.02453849851849392,0.1480070011131423,0.007381596824876172,0.38226905498750935,0.02508936144359834,0.3715152736127356,0.021600721536909274
0.0628448,0.042573818764692926,0.024565629805178516,0.1486019048249267,0.0073828633244700315,0.38435116710655676,0.025226746667139855,0.3708796459533655,0.021659728791564945
0.0633103,0.04263127635801315,0.0245913490774016,0.14918039614925477,0.007383426143960969,0.386403106037722,0.025361940686714757,0.37020830594251647,0.021716567885300946
0.0637759,0.0426822081435554,0.02461565981561349,0.14974239223172858,0.007383294785627633,0.3884244982599565,0.025494936362935997,0.3695013864936153,0.021771237588293725
0.0642414,0.04272667872719111,0.024638565785297502,0.15028781367110589,0.007382478875703833,0.39041497576189943,0.025625726833507303,0.3687590302906473,0.02182373710858516
0.0647069,0.042764753774413036,0.024660071036113698,0.15081658455176838,0.007380988161579602,0.39237417616051695,0.025754305514371936,0.3679813897335276,0.02187406609194095
0.0651724,0.04279649999262398,0.024680179900983527,0.15132863247506784,0.007378832508986023,0.3943017428187099,0.025880666100844118,0.36716862687925245,0.021922224621543262
0.0656379,0.042821985113311985,0.024698896995115335,0.15182388858953416,0.007376021899164181,0.39619732496184623,0.026004802568720776,0.3663209133788837,0.02196821321751374
0.0661034,0.0428412778741164,0.02471622721497062,0.1523022876199317,0.007372566426018595,0.39806057779317155,0.026126709175370952,0.3654384304104214,0.02201203283626306
0.066569,0.0428544480007886,0.024732175737170608,0.15276376789515161,0.007368476293255519,0.39989116260804836,0.026246380460800165,0.36452136860762346,0.022053684869663363
0.0670345,0.0428615661890514,0.0247467480173427,0.15320827137493032,0.00736376181150649,0.4016887469069721,0.02636381124868683,0.3635699279848339,0.022093171144040198
0.0675,0.0428627040863606,0.024759949788905996,0.15363574367538563,0.007358433395437539,0.4034530045073096,0.026478996647387853,0.3625843178578818,0.022130493918981094
0.0679655,0.04285793427357204,0.024771787061795145,0.1540461340933636,0.007352501560844494,0.40518361565370414,0.02659193205091082,0.36156475676111244,0.022165655885958223
0.068431,0.04284733024651736,0.02478226612112155,0.15443939562959064,0.007345976921734832,0.4068802671270885,0.026702613139850125,0.36051147236061076,0.022198660166763237
0.0688966,0.04283096639749116,0.02479139352577105,0.15481548501062645,0.007338870187396531,0.40854265235224674,0.026811035882284933,0.3594247013636789,0.022229510311752805
0.0693621,0.042808917996652054,0.024799176106937076,0.15517436270961465,0.007331192159454436,0.41017047150386454,0.026917196534637165,0.35830468942462534,0.022258210297903907
0.0698276,0.042781261173339795,0.024805620966588213,0.15551599296582905,0.007322953728914628,0.41176343161100953,0.02702109164248801,0.35715169104692834,0.022284764526678134
0.0702931,0.042748072897310564,0.02481073547586912,0.1558403438030139,0.007314165873197326,0.41332124665998066,0.027122718041351905,0.35596596948183507,0.022309177821694733
0.0707586,0.042709430959892034,0.024814527273433824,0.15614738704651857,0.007304839653158817,0.414843637695468,0.02722207285740695,0.35474779662346556,0.022331455426212753
0.0712241,0.042665413955059885,0.0248170042637103,0.1564370983392267,0.007294986210102951,0.4163303329199671,0.027319153508180923,0.353497452900492,0.022351603000423596
0.0716897,0.04261610126043753,0.02481817461509552,0.15670945715628165,0.007284616762782699,0.4177810677913914,0.027413957703192222,0.35221522716447035,0.022369626618556345
0.0721552,0.04256157301822042,0.024818046758080258,0.15696444681861008,0.00727374260439231,0.41919558511883254,0.027506483444545267,0.3509014165749068,0.022385532765799427
0.0726207,0.04250191011602656,0.02481662938330305,0.15720205450524577,0.00726237509955061,0.4205736351564213,0.027596729027480237,0.34955632648114693,0.02239932833504285
0.0730862,0.04243719416767484,0.024813931439532918,0.15742227126445574,0.007250525681275932,0.4219149756952435,0.027684693040877683,0.3481802703011796,0.022411020623446028
0.0735517,0.0423675074938924,0.024809962131580657,0.15762509202367073,0.007238205847953219,0.4232193721532711,0.027770374367718627,0.3467735693974538,0.022420617328836247
0.0740172,0.04229293310295275,0.024804730918138517,0.15781051559822148,0.007225427160293764,0.42448659766327407,0.027853772185501304,0.345336552949811,0.022428126545943085
0.0744828,0.042213554671245795,0.0247982475095482,0.15797854469888153,0.007212201238288053,0.4257164331586794,0.027934885966615725,0.34386955782563916,0.02243355676247393
0.0749483,0.04212945652378133,0.024790521865497028,0.15812918593821587,0.007198539758152132,0.4269086674573505,0.028013715478677394,0.3423729284473591,0.022436916855035655
0.0754138,0.042040723614627504,0.024781564192642158,0.15826244983573456,0.007184454449267879,0.42806309734326053,0.028090260784821446,0.34084701665735784,0.02243821608490728
0.0758793,0.04194744150728573,0.024771384942162696,0.15837835082184828,0.007169957091117555,0.42917952764603884,0.028164522243958365,0.33929218158048524,0.02243746409366862
0.0763448,0.04184969635500385,0.024759994807239456,0.15847690724062222,0.007155059510212913,0.43025777131837145,0.028236500510992347,0.33770878948423394,0.022434670898689703
0.0768103,0.04174757488102937,0.024747404720462125,0.15855814135132382,0.007139773577019161,0.43129764951123756,0.0283061965370031,0.33609721363672296,0.02242984688848585
0.0772759,0.04164116435880471,0.02473362585116362,0.15862207932875869,0.007124111202874007,0.4322989916469667,0.028373611569391752,0.3344578341626077,0.0224230028179434
0.0777414,0.041530552592106876,0.024718669602681455,0.1586687512623889,0.007108084336902045,0.43326163549010244,0.028438747151991257,0.33279103789703807,0.02241414980342118
0.0782069,0.041415827895134004,0.024702547609545798,0.15869819115422734,0.007091704962924756,0.4341854272160551,0.028501605125141456,0.33109721823778765,0.022403299317732807
0.0786724,0.04129707907254155,0.02468527173459406,0.15871043691550182,0.00707498509636644,0.4350702214775299,0.02856218762572881,0.32937677499567547,0.022390463185014756
0.0791379,0.041174395399431234,0.024666854066011643,0.15870553036208263,0.0070579367811564354,0.4359158814687141,0.028620497087190517,0.32763011424340016,0.02237565357548518
0.0796034,0.04104786660129616,0.024647306914298322,0.15868351720866714,0.0070405720866280755,0.43672227898720356,0.028676536239482582,0.32585764816290325,0.02235888300009818
0.080069,0.040917582833925825,0.024626642809159632,0.15864444706171613,0.007022903104414871,0.4374892944936489,0.028730308109011362,0.3240597948913785,0.022340164305098092
0.0805345,0.040783634663275,0.024604874496322593,0.1585883734111368,0.0070049419453445,0.438216817169098,0.02878181601852797,0.32223697836603926,0.02231951066647817
0.081,0.040646113045300726,0.02458201493427492,0.15851535362070826,0.006986700736331175,0.4389047449700131,0.028831063586985152,0.3203896281677554,0.02229693558434807
0.0814655,0.040505109305772086,0.024558077290927065,0.15842544891724708,0.006968191617266998,0.43955298468093706,0.028878054729356412,0.3185181793636673,0.022272452877214438
0.081931,0.04036071512005746,0.02453307494019632,0.15831872437851088,0.006949426737912912,0.4401614519647873,0.02892279365641725,0.31662307234888454,0.02224607667617903
0.0823966,0.04021302249289434,0.02450702145851219,0.15819524891984021,0.006930418254789773,0.440730071410754,0.028965284874488698,0.31470475268737375,0.02221782141905887
0.0828621,0.04006212373814649,0.024479930621242273,0.15805509527953968,0.006911178328070143,0.4412587765797824,0.02900553318514328,0.31276367095213675,0.022187701844432993
0.0833276,0.039908111458553684,0.024451816399037575,0.15789834000300143,0.006891719118471302,0.44174751004761853,0.02904354368487387,0.31080028256478,0.02215573298562025
0.0837931,0.039751078525478434,0.024422692954096336,0.15772506342557557,0.006872052784150041,0.4421962234454007,0.029079321764725895,0.3088150476345718,0.022121930164592636
0.0842586,0.039591118058654486,0.02439257463634506,0.15753534965419366,0.006852191477599792,0.4426048774977822,0.029112873109893585,0.30680843079708287,0.022086308985828567
0.0847241,0.03942832340594115,0.024361475979535595,0.157329286547753,0.0068321473425507154,0.44297344205857114,0.029144203699280863,0.30478090105250266,0.022048885330110478
0.0851897,0.039262788123087575,0.024329411697257053,0.15710696569627144,0.0068119325108733616,0.4433018961438774,0.029173319805027555,0.3027329316037211,0.022009675348271085
0.0856552,0.039094605953510726,0.024296396678861482,0.15686848239882367,0.006791559099486586,0.44359022796276015,0.029200227992001334,0.30066499969426397,0.02196869545489275
0.0861207,0.03892387080809063,0.02426244598530244,0.1566139356402716,0.006771039207270477,0.4438384349453722,0.02922493511725563,0.2985775864461666,0.021925962321964323
0.0865862,0.03875067674498655,0.02422757484488567,0.15634342806680282,0.006750384911985077,0.4440465237685979,0.029247448329453495,0.29647117669786893,0.021881492872499846
0.0870517,0.03857511794947764,0.024191798648931274,0.15605706596029262,0.00672960826719579,0.44421451037918774,0.029267775068257267,0.29434625884221205,0.021835304274123387
0.0875172,0.03839728871383168,0.02415513294734684,0.15575495921150598,0.006708721299206406,0.44434242001439106,0.0292859230636838,0.29220332466461457,0.02178741393262436
0.0879828,0.038217283417205566,0.024117593444110824,0.15543722129215762,0.006687736004000705,0.44443028722009315,0.029301900335424808,0.2900428691815036,0.021737839485487544
0.0884483,0.03803519650558133,0.02407919599266555,0.1551039692258491,0.006666664344193646,0.44447815586646133,0.029315715192132132,0.28786539047907317,0.02168659879540213
0.0889138,0.037851122471741744,0.024039956591219054,0.15475532355790217,0.006645518245993162,0.44448607916110844,0.02932737623066755,0.2856713895524399,0.021633709943753996
0.0893793,0.03766515583528961,0.02399989137795499,0.15439140832410883,0.006624309596173555,0.44445411965977977,0.029336892335316854,0.2834613701452642,0.021579191224105437
0.0898448,0.037477391122714886,0.023959016626149927,0.15401235101841873,0.00660305023906148,0.44438234927457065,0.029344272676967802,0.2812358385899008,0.021523061135666592
0.0903103,0.037287922847514206,0.023917348739197413,0.15361828255958512,0.006581751973535513,0.44427084927968113,0.029349526712251325,0.2789953036481425,0.02146533837676261
0.0907759,0.03709684549036702,0.023874904245538456,0.15320933725679048,0.006560426550040302,0.44411971031471165,0.02935266418264531,0.27674027635261583,0.021406041838300766
0.0912414,0.036904253479373,0.023831699793498317,0.15278565277427233,0.0065390856676163225,0.4439290323855051,0.029353695113539944,0.274471269848888,0.021345190597241534
0.0917069,0.036710241170355144,0.023787752146029913,0.15234737009497032,0.00651774097094627,0.44369892486253687,0.02935262981326355,0.2721887992383395,0.02128280391007762
0.0921724,0.03651490282723305,0.023743078175364418,0.1518946334832144,0.006496404047419123,0.4434295064768533,0.029349478872067517,0.26989338142185637,0.02121890120632478
0.0926379,0.03631833260247066,0.023697694857569937,0.15142759044647316,0.006475086424212965,0.4431209053135556,0.029344253161069103,0.2675855349443919,0.02115350208202825
0.0931034,0.0361206245176029,0.023651619267019388,0.15094639169618068,0.006453799565397583,0.44277325880282514,0.02933696383115058,0.26526577984044736,0.021086626293288464
0.093569,0.03592187244384545,0.023604868570768656,0.15045119110765848,0.006432554869057903,0.44238671370848137,0.029327622311813475,0.2629346374805166,0.02101829374980955
0.0940345,0.035722170082791896,0.023557460022846248,0.14994214567914896,0.0064113636644392465,0.44196142611406075,0.029316240309986443,0.26059263041853925,0.020948524508474054
0.0945,0.03552161094720267,0.023509410958455546,0.14941941548997464,0.00639023720911542,0.4414975614064051,0.02930282980878524,0.2582402822404031,0.02087733876694713
0.0949655,0.03532028834188982,0.02346073878809079,0.14888316365783769,0.006369186686180563,0.4409952942567448,0.02928740306622316,0.25587811741353517,0.02080475685731336
0.095431,0.035118295344701914,0.02341146099156808,0.14833355629527226,0.006348223201465647,0.440454808599262,0.029269972613870245,0.25350666113761916,0.020730799239749204
0.0958966,0.034915724787613005,0.02336159511197273,0.1477707624652626,0.006327357780780475,0.4398762976071213,0.029250551255459688,0.25112643919647265,0.02065548649623407
0.0963621,0.03471266923791973,0.023311158749524424,0.14719495413603914,0.0063066013671819535,0.43925996366595266,0.029229152065439936,0.24873797781111764,0.02057883932430286
0.0968276,0.034509220979550254,0.023260169555361743,0.14660630613506437,0.00628596481826942,0.43860601834477525,0.02920578838747154,0.246341803494074,0.02050087853084294
0.0972931,0.034305471994488745,0.023208645225247772,0.14600499610222045,0.006265458903507686,0.4379146823643495,0.029180473832868203,0.2439384429049042,0.020421625025938372
0.0977586,0.03410151394431864,0.023156603493198907,0.14539120444221035,0.006245094301578528,0.4371861855629446,0.029153222278981997,0.2415284227070361,0.020341099816764397
0.0982241,0.03389743815188818,0.02310406212503942,0.1447651142761846,0.006224881597761251,0.4364207668595111,0.029124047867532987,0.23911226942588737,0.020259324001534972
0.0986897,0.033693335583101065,0.02305103891188482,0.1441269113926057,0.006204831281343005,0.43561867421424794,0.029092965002883744,0.2366905093083151,0.020176318763506146
0.0991552,0.03348929682883516,0.022997551663557596,0.14347678419736237,0.006184953743059528,0.43478016458655444,0.02905998835025916,0.23426366818341082,0.020092105365037905
0.0996207,0.033285412086991796,0.022943618201939315,0.14281492366314671,0.006165259272566949,0.4339055038903589,0.02902513283391186,0.2318322713246618,0.02000670514171705
0.1000862,0.03308177114467812,0.022889256354263185,0.14214152327810672,0.0061457580559453415,0.4329949669468174,0.0289884136352335,0.22939684331349472,0.019920139496543462
0.1005517,0.032878463360524884,0.022834483946351406,0.14145677899378747,0.00612646017323464,0.43204883743437816,0.02894984619081237,0.22695790790422032,0.01983242989418209
0.1010172,0.03267557764714172,0.022779318795801546,0.14076088917237461,0.006107375596003587,0.4310674078362083,0.028909446190437716,0.22451598789039276,0.01974359785528278
0.1014828,0.032473202453712005,0.022723778705126308,0.1400540545332539,0.006088514184952324,0.4300509793849797,0.02886722957505144,0.22207160497259798,0.01965366495086994
0.1019483,0.03227142574872922,0.02266788145485106,0.13933647809890096,0.006069885687549294,0.42899986200501383,0.028823212534647816,0.2196252796276834,0.019562652796804
0.1024138,0.03207033500287655,0.022611644796573682,0.1386083651401164,0.0060514997357030914,0.4279143742517798,0.028777411506121807,0.2171775309794394,0.019470583048316427
0.1028793,0.03187001717205161,0.022555086445991687,0.13786992312062082,0.006033365843469917,0.4267948432487421,0.028729843171066773,0.2147288766707422,0.019377477394619973
0.1033448,0.03167055868053769,0.022498224075901692,0.13712136164102573,0.00601549340479729,0.4256416046215515,0.028680524453522163,0.21227983273716663,0.019283357553595747
0.1038103,0.031472045404323225,0.022441075309176783,0.13636289238219598,0.005997891691304639,0.42445500242957246,0.02862947251767211,0.20983091348207603,0.019188245266558514
0.1042759,0.031274562654570626,0.022383657711727428,0.1355947290480205,0.005980569850101367,0.42323538909474373,0.02857670476549575,0.20738263135319657,0.019092162293101605
0.1047414,0.03107819516123589,0.022325988785451924,0.13481708730760825,0.005963536901642915,0.4219831253277667,0.028522238834370255,0.20493549682068235,0.018995130406022537
0.1052069,0.030883027056840175,0.022268085961182425,0.1340301847369268,0.00594680173762538,0.42069858005162386,0.028466092594627457,0.20249001825667765,0.01889717138633043
0.1056724,0.030689141860394373,0.02220996659163287,0.1332342407599018,0.005930373118919109,0.4193821303224303,0.028408284147065064,0.2000467018163827,0.018798307018336007
0.1061379,0.030496622461477687,0.022151647944355004,0.13242947658899543,0.005914259673541763,0.41803416124762693,0.02834883182041325,0.19760605132062936,0.018698559084824914
0.1066034,0.030305551104471213,0.022093147194708857,0.13161611516528218,0.0058984698946712285,0.4166550659015286,0.028287754168757583,0.1951685681399735,0.018597949362314938
0.107069,0.030116009372947356,0.02203448141885376,0.13079438109804165,0.005883012138698763,0.4152452452382431,0.028225069968919075,0.19273475108031185,0.018496499616397405
0.1075345,0.02992807817421572,0.021975667586766036,0.12996450060388687,0.00586789462332273,0.4138051080019797,0.028160798217792153,0.19030509627003184,0.01839423159716306
0.108,0.029741837724026023,0.02191672255528921,0.12912670144544844,0.0058531254256832255,0.41233507063477276,0.02809495812964133,0.18788009704870326,0.018291167034712494
0.1084655,0.02955736753142838,0.021857663061222457,0.12828121286963395,0.005838712480537926,0.4108355571816426,0.028027569133357338,0.18546024385732163,0.018187327634750994
0.108931,0.029374746383791187,0.021798505714452902,0.1274282655454832,0.00582466357847941,0.4093069991932243,0.027958650869673494,0.18304602413011345,0.01808273507426763
0.1093966,0.02919405233197658,0.021739266991137124,0.1265680915016395,0.005810986364194296,0.407749835625892,0.027888223188342907,0.18063792218791414,0.017977410997298184
0.1098621,0.02901536267567325,0.021679963226937098,0.12570092406345834,0.005797688334764475,0.4061645127394111,0.02781630614527726,0.17823641913312854,0.017871377010771433
0.1103276,0.028838753948886284,0.02162061061031575,0.12482699778977431,0.005784776838010808,0.4045514839921488,0.027742919999647835,0.1758419927462848,0.017764654680438103
0.1107931,0.02866430190558375,0.021561225175897022,0.12394654840934854,0.005772259070879569,0.4029112099338742,0.02766808521094942,0.17345511738419062,0.017657265526881773
0.1112586,0.028492081505499728,0.021501822797895198,0.12305981275701844,0.005760142077871995,0.40124415809617836,0.027591822436027823,0.1710762638797013,0.017549231021610837
0.1117241,0.028322166900093624,0.021442419183618222,0.12216702870957252,0.0057484327495171865,0.3995508028805426,0.02751415252607162,0.168705899443107,0.01744057258323052
0.1121897,0.028154631418665862,0.021383029867049444,0.12126843512137263,0.005737137820888661,0.39783162544408,0.027435096523568795,0.16634448756514617,0.017331311573693862
0.1126552,0.027989547554630175,0.021323670202512145,0.12036427175974637,0.005726263870164735,0.3960871135829733,0.027354675659228857,0.16399248792165033,0.0172214692946304
0.1131207,0.027826986951943057,0.021264355358421146,0.1194547792401715,0.005715817317232931,0.39431776161362975,0.027272911348870877,0.16165035627982477,0.017111066983751227
0.1135862,0.027667020391691066,0.02120510031112557,0.11854019896127377,0.005705804422338492,0.39252407025157116,0.027189825190277777,0.15931854440616777,0.017000125811328863
0.1140517,0.027509717778836915,0.021145919838846998,0.1176207730396592,0.005696231284777132,0.39070654648807684,0.027105438960017034,0.15699749997603096,0.016888666876750273
0.1145172,0.027355148129125605,0.02108682851571703,0.11669674424460048,0.005687103841632027,0.3888657034645956,0.027019774610227767,0.1546876664848223,0.016776711205141313
0.1149828,0.027203379556152145,0.02102784070591833,0.11576835593259643,0.005678427866555057,0.38700206034494417,0.026932854265374007,0.15238948316085307,0.01666427974406063
0.1154483,0.02705447925859247,0.020968970557933054,0.11483585198182307,0.005670208968592266,0.38511614218531093,0.02684470021896378,0.15010338487983035,0.016551393360261037
0.1159138,0.026908513507599558,0.020910231998902545,0.11389947672649386,0.005662452591053471,0.3832084798020846,0.02675533493023343,0.1478298020809952,0.016438072836516292
0.1163793,0.026765547634366907,0.020851638729102045,0.11295947489114655,0.005655164010425946,0.3812796096375296,0.026664781020796297,0.14556916068490722,0.01632433886851112
0.1168448,0.026625646017861666,0.02079320421653407,0.11201609152487355,0.005648348335332085,0.37933007362333304,0.026573061271254767,0.14332188201287624,0.016210212061792472
0.1173103,0.026488872072729916,0.020734941691644023,0.11106957193551278,0.005642010505530934,0.37736041904205114,0.026480198617774554,0.14108838270804006,0.016095712928779815
0.1177759,0.0263552882373767,0.020676864142161373,0.11012016162381572,0.005636155290963522,0.37537119838648575,0.026386216148619787,0.13886907465808826,0.015980861885832514
0.1182414,0.026224955962223517,0.02061898430806974,0.10916810621760943,0.005630787290841902,0.3733629692170247,0.026291137100647483,0.13666436491963127,0.0158656792503723
0.1187069,0.026097935698146016,0.020561314676708943,0.10821365140596984,0.005625910932781863,0.3713362940169837,0.026194984855759728,0.1344746556442132,0.015750185238059062
0.1191724,0.02597428688509474,0.020503867478012007,0.10725704287342276,0.0056215304719792825,0.36929174004598986,0.026097782937311756,0.13230034400596716,0.015634399960018256
0.1196379,0.02585406794090188,0.02044665467987993,0.10629852623419041,0.0056176499904301465,0.36722987919145306,0.025999555006474055,0.13014182213091077,0.015518343420118352
0.1201034,0.02573733625027687,0.020389687983696954,0.10533834696650064,0.005614273396194266,0.36515128781817013,0.025900324858546497,0.1279994770278801,0.015402035512296824
0.120569,0.025624148153993633,0.020332978819988967,0.10437675034697666,0.005611404422702755,0.3630565466161133,0.025800116419222387,0.12587369052109967,0.015285496017933263
0.1210345,0.025514558938272282,0.020276538344227563,0.10341398138512538,0.005609046628109386,0.36094624044645707,0.025698953740800327,0.12376483918438629,0.015168744603268175
0.1215,0.02540862282435809,0.020220377432782207,0.10245028475794234,0.005607203394685953,0.3588209581858992,0.025596860998341624,0.12167329427698384,0.01505180081686598
0.1219655,0.025306392958300252,0.02016450667902278,0.1014859047446521,0.005605877928261802,0.35668129256933456,0.025493862485770832,0.1195994216810272,0.014934684087120838
0.122431,0.025207921400933,0.020108936389574734,0.10052108516160253,0.005605073257707702,0.35452784003094107,0.02538998261191692,0.11754358184063256,0.014817413719803956
0.1228966,0.025113259118061462,0.02005367658072888,0.0995560692973323,0.00560479223446427,0.35236120054374154,0.02528524589649223,0.11550612970261143,0.014700008895651132
0.1233621,0.02502245597085442,0.01999873697500777,0.09859109984783089,0.005605037532115142,0.3501819774577043,0.02517967696600653,0.11348741465880588,0.014582488667989339
0.1238276,0.024935560706446043,0.019944126997890475,0.09762641885201076,0.005605811646005098,0.3479907773364449,0.025073300549613067,0.11148778049004246,0.01446487196040109
0.1242931,0.024852620948748433,0.01988985577469759,0.0966622676274114,0.005607116892903318,0.3457882097925947,0.024966141474883897,0.10950756531170239,0.014347177564425362
0.1247586,0.0247736831894767,0.019835932127638005,0.0956988867061559,0.005608955410711962,0.34357488732189906,0.024858224663511782,0.10754710152090509,0.014229424137293757
0.1252241,0.024698792779388114,0.019782364573019174,0.09473651577118024,0.005611329158220238,0.3413514251361071,0.024749575126936405,0.10560671574530292,0.014111630199700591
0.1256897,0.024627993919736697,0.0197291613186223,0.0937753935927559,0.005614239914904084,0.33911844099471633,0.024640217961893057,0.10368672879348473,0.013993814133605606
0.1261552,0.024561329653944388,0.01967633026124392,0.09281575796532668,0.005617689280771592,0.33687655503562913,0.024530178345882458,0.10178745560698575,0.013875994180067925
0.1266207,0.02449884185948991,0.01962387898440521,0.09185784564468082,0.005621678676254236,0.3346263896047808,0.024419481532561065,0.09990920521390188,0.013758188437109959
0.1270862,0.024440571240016203,0.019571814756230127,0.09090189228547918,0.005626209342143913,0.33236856908479295,0.024308152847051928,0.09805228068410604,0.013640414857610056
0.1275517,0.024386557317657348,0.019520144527493434,0.08994813237916079,0.00563128233957579,0.3301037197227043,0.024196217681176756,0.09621697908606454,0.013522691247222876
0.1280172,0.024336838425585875,0.01946887492983944,0.08899679919224643,0.0056368985500569145,0.3278324694568296,0.024083701488610453,0.09440359144525083,0.013405035262326746
0.1284828,0.0242914517007813,0.01941801227417213,0.08804812470506151,0.005643058675540517,0.32555544774279405,0.023970629779959562,0.09261240270415466,0.013287464407997596
0.1289483,0.02425043307702087,0.01936756254921721,0.08710233955089891,0.005649763238545895,0.32327328537878974,0.023857028117766424,0.09084369168388347,0.013169996036009306
0.1294138,0.024213817278093602,0.01931753142025644,0.08615967295564247,0.005657012582323793,0.32098661433009995,0.023742922111440874,0.08909773104735322,0.013052647342860485
0.1298793,0.02418163781123874,0.019267924228034458,0.08522035267787158,0.005664806871067124,0.3186960675529364,0.023628337412121628,0.08737478726406508,0.012935435367827843
0.1303448,0.02415392696080993,0.01921874598783827,0.0842846049494668,0.005673146090166877,0.3164022788176339,0.02351329970746969,0.08567512057646397,0.0128183769910463
0.1308103,0.024130715782166492,0.019170001388749365,0.08335265441673653,0.005682030046512974,0.3141058825312477,0.023397834716396237,0.08399898496787403,0.012701488931615941
0.1312759,0.02411203409579332,0.019121694793068404,0.0824247240820837,0.005691458368839861,0.3118075135595987,0.02328196818372786,0.08234662813200593,0.012584787745735893
0.1317414,0.02409791048165101,0.019073830235912213,0.08150103524623131,0.005701430508116517,0.3095078070488124,0.023165725874812138,0.0807182914440301,0.012468289824865161
0.1322069,0.024088372273758037,0.01902641142498281,0.08058180745102493,0.005711945737980573,0.3072073982463988,0.023049133570066743,0.07911420993320958,0.012352011393910496
0.1326724,0.024083445555006765,0.018979441740508092,0.07966725842282975,0.005723003155216179,0.30490692232191885,0.02293221705947551,0.07753461225708538,0.012235968509441395
0.1331379,0.02408315515221536,0.018932924235353716,0.07875760401653906,0.005734601680275259,0.3026070141872873,0.022815002137034752,0.07597972067720753,0.012120177057932328
0.1336034,0.024087524631417567,0.01888686163530568,0.07785305816021035,0.005746740057841782,0.3003083083167594,0.022697514595153113,0.074449751036404,0.01200465275403229
0.134069,0.02409657629339257,0.01884125633952305,0.07695383280034453,0.005759416857438729,0.29801143856665063,0.022579780219008146,0.07294491273757939,0.011889411138861737
0.1345345,0.024110331169437033,0.018796110421160063,0.0760601378478231,0.005772630474077462,0.29571703799484095,0.022461824780862744,0.07146540872403473,0.011774467578336986
0.135,0.024128809017381545,0.018751425628156952,0.07517218112451786,0.005786379128949302,0.2934257386801147,0.02234367403434446,0.07001143546129952,0.011659837261522128
0.1354655,0.024152028317853624,0.018707203384198696,0.07429016831058642,0.005800660870159185,0.2911381715413896,0.022225353708690873,0.06858318292046647,0.011545535199008602
0.135931,0.02418000627078954,0.018663444789840947,0.0734143028924669,0.0058154735735013435,0.2888549661568911,0.02210688950296416,0.06718083456301902,0.011431576221322536
0.1363966,0.024212758792197274,0.01862015062380229,0.07254478611158419,0.005830814943277037,0.28657675058332804,0.021988307080238,0.06580456732714103,0.011317974977360019
0.1368621,0.024250300511172846,0.018577321344421957,0.07168181691377967,0.005846682513154393,0.28430415117512964,0.02186963206175988,0.06445455161549803,0.011204745932850535
0.1373276,0.0242926447671724,0.01853495709128208,0.0708255918994762,0.005863073647070444,0.28203779240380444,0.02175089002109192,0.06313095128447822,0.01109190336884867
0.1377931,0.02433980360754242,0.018493057686993393,0.06997630527458905,0.00587998554017547,0.27977829667748394,0.021632106478233253,0.06183392363488163,0.010979461380254334
0.1382586,0.02439178778531043,0.018451622639143277,0.06913414880219398,0.005897415219819713,0.27752628416071484,0.02151330689372689,0.06056361940404489,0.010867433874361714
0.1387241,0.024448606757238624,0.018410651142404966,0.06829931175496239,0.005915359546582546,0.2752823725945674,0.021394516662753927,0.05932018275938902,0.010755834569437375
0.1391897,0.02451026868214273,0.018370142080806628,0.06747198086837383,0.005933815215344175,0.27304717711712695,0.02127576110921783,0.058103751293376776,0.010644676993328146
0.1396552,0.02457678041947845,0.018330094030159,0.06665234029471585,0.005952778756399951,0.2708213100844379,0.021157065479821286,0.056914456019865965,0.010533974482099558
0.1401207,0.024648147528197765,0.01829050526064011,0.06584057155788056,0.005972246536617361,0.26860538089197084,0.02103845493813812,0.055752421371845065,0.010423740178705803
0.1405862,0.024724374265877213,0.018251373739535608,0.06503685350896747,0.005992214760635804,0.2663999957966828,0.020919954558682535,0.05461776520053649,0.010313987031692222
0.1410517,0.024805463588120222,0.018212697134132903,0.06424136228270201,0.00601267947210918,0.26420575773974153,0.020801589320977944,0.05351059877585297,0.010204727793931386
0.1415172,0.024891417148235343,0.018174472814767324,0.06345427125467892,0.0060336365549913265,0.26202326616998445,0.02068338410362763,0.05243102678819184,0.010095975021393757
0.1419828,0.024982235297192117,0.01813669785801836,0.06267575099943949,0.006055081734864341,0.25985311686818174,0.020565363678389452,0.0513791473515517,0.00998774107195386
0.1424483,0.02507791708385611,0.018099369050053857,0.06190596924939165,0.0060770105803097385,0.2576959017721737,0.020447552704256845,0.050355052007955974,0.009880038104232844
0.1429138,0.02517846025550445,0.018062482890119917,0.06114509085458184,0.006099418504322417,0.2555522088029497,0.02032997572154825,0.049358825733166876,0.009772878076478265
0.1433793,0.025283861258623096,0.018026035594174275,0.06039327774332741,0.0061223007657673165,0.2534226216917348,0.020212657146007056,0.04839054694367383,0.009666272745481935
0.1438448,0.0253941152399869,0.017990023098660834,0.059650688883718196,0.00614565247087864,0.25130771980814914,0.020095621262914136,0.04745028750493952,0.009560233665536615
0.1443103,0.025509216048023312,0.017954441064422906,0.058917480245996016,0.0061694685748014295,0.24920807798950245,0.019978892221214916,0.046538112740886754,0.00945477218743232
0.1447759,0.025629156234460524,0.01791928488075278,0.058193804765820555,0.006193743883175309,0.24712426637128496,0.01986249402766305,0.04565408144460886,0.009349899457492913
0.1452414,0.02575392705626061,0.017884549669575048,0.05747981230843001,0.006218473053760091,0.24505685021891516,0.019746450540982678,0.04479824589028616,0.0092456264166537
0.1457069,0.02588351847783826,0.01785023028976112,0.05677564963370482,0.006243650598102969,0.2430063897608023,0.019630785466051293,0.0439706518462906,0.009141963799580615
0.1461724,0.026017919173565607,0.017816321341572273,0.056081460362142566,0.006269270883246907,0.2409734400227808,0.019515522348105215,0.04317133858946119,0.009038922133831654
0.1466379,0.026157116530563653,0.0177828171712284,0.055397384941751907,0.006295328133479856,0.23895855066397212,0.019400684566969605,0.04240033892053272,0.00893651173906106
0.1471034,0.02630109665178084,0.017749711875599587,0.054723560615873156,0.006321816432124326,0.23696226581412883,0.019286295331314884,0.04165767918070106,0.008834742726266824
0.147569,0.026449844359359195,0.017716999307017593,0.05406012139193272,0.006348729723366839,0.23498512391251283,0.019172377672941335,0.04094337926930923,0.008733624997081945
0.1480345,0.02660334319828836,0.017684673078204108,0.05340719801113825,0.006376061814126748,0.23302765754836172,0.01905895444109358,0.040257452662639505,0.008633168243109859
0.1485,0.026761575440347837,0.01765272656731258,0.05276491791912105,0.006403806375963865,0.23109039330299277,0.018946048296806465,0.03959990643379798,0.008533381945304336
0.1489655,0.026924522088337614,0.01762115292308029,0.05213340523753181,0.006431956947024301,0.22917385159359652,0.018833681707283802,0.03897074127367907,0.00843427537339414
0.149431,0.027092162880597157,0.01758994507008723,0.05151278073659571,0.006460506934023937,0.22727854651876908,0.018721876940311324,0.03836995151299862,0.008335857585352621
0.1498966,0.027264476295812842,0.017559095714118175,0.05090316180863207,0.0064894496142688315,0.2254049857058333,0.01861065605870502,0.03779752514538552,0.008238137426912472
0.1503621,0.027441439558113574,0.017528597347624332,0.05030466244254395,0.006518778137711898,0.22355367015999794,0.018500040914796026,0.0372534438515224,0.008141123531125748
0.1508276,0.02762302864245431,0.01749844225528085,0.049717393199282596,0.006548485529045116,0.2217250941154033,0.01839005314495308,0.036737683024327186,0.008044824317969344
0.1512931,0.027809218280287016,0.01746862251963637,0.04914146118829143,0.006578564689826531,0.21991974488810193,0.018280714164143744,0.03625021179516774,0.007949247993996062
0.1517586,0.02799998196551841,0.017439130026850855,0.04857697004493424,0.006609008400641288,0.2181381027310218,0.0181720451605356,0.03579099306110213,0.007854402552031441
0.1522241,0.02819529196075381,0.017409956472517862,0.04802401990891162,0.006639809323295945,0.21638064069095947,0.018064067090138865,0.03535998351313723,0.007760295770916511
0.1526897,0.028395119303826124,0.017381093367567275,0.047482707403669805,0.006670960003045378,0.21464782446764985,0.017956800671491895,0.03495713366549848,0.007666935215296598
0.1531552,0.02859943381460887,0.01735253204424463,0.046953125616805834,0.006702452870851584,0.21294011227495857,0.01785026638039131,0.03458238788590334,0.0075743282354563376
0.1536207,0.028808204102111972,0.01732426366216291,0.04643536408147241,0.006734280245673784,0.21125795470424205,0.01774448444466835,0.03423568442683149,0.007482481967201021
0.1540862,0.02902139757185884,0.017296279214422724,0.04592950875878588,0.006766434336789275,0.20960179458991993,0.017639474839013177,0.03391695545778448,0.007391403331784459
0.1545517,0.029238980433543133,0.017268569533796574,0.04543564202124037,0.00679890724614452,0.2079720668773036,0.01753525727984878,0.033626127098528184,0.007301099035883605
0.1550172,0.02946091770896352,0.017241125298972933,0.04495384263713091,0.006831690970736032,0.20636919849272364,0.017431851220256162,0.03336311945331081,0.007211575571620181
0.1554828,0.029687173240234437,0.01721393704085555,0.04448418575598816,0.006864777405020666,0.20479360821599865,0.01732927584495258,0.03312784664604973,0.007122839216629585
0.1559483,0.029917709698270928,0.01718699514891339,0.0440267428950269,0.0068981583433549406,0.2032457065552862,0.017227550065324712,0.03292021685648004,0.007034896034177316
0.1564138,0.030152488591545505,0.017160289877576392,0.04358158192661033,0.00693182548246308,0.20172589562435642,0.017126692514518906,0.03274013235725757,0.006947751873323148
0.1568793,0.03039147027511487,0.017133811352672203,0.04314876706673184,0.00696577042393348,0.20023456902232747,0.017026721542590738,0.032587489552009304,0.006861412369133192
0.1573448,0.03063461395991425,0.017107549577898746,0.04272835886451564,0.006999984676743345,0.19877211171590128,0.01692765521171636,0.03246217901432413,0.006775882942940006
0.1578103,0.030881877722316983,0.01708149444132749,0.04232041419273734,0.007034459659811255,0.19733889992413653,0.016829511291468032,0.03236408552767668,0.006691168802650854
0.1582759,0.03113321851395681,0.01705563572193214,0.04192498623936506,0.007069186704577446,0.1959353010057954,0.016732307254156205,0.032293088126277444,0.006607274943104247
0.1587414,0.03138859217181021,0.017029963096137416,0.0415421245001214,0.007104157057611597,0.1945616733492994,0.016636060270240317,0.03224906013684221,0.006524206146474891
0.1592069,0.03164795342853591,0.017004466144382592,0.041171874772066276,0.0071393618832479005,0.19321836626532854,0.016540787203810497,0.03223186922127415,0.006441966982727141
0.1596724,0.031911255923068614,0.016979134357694242,0.04081427914820015,0.007174792266247227,0.19190571988209668,0.016446504608142176,0.03224137742025172,0.006360561810117085
0.1601379,0.032178452211464016,0.016953957144262857,0.04046937601308711,0.007210439214486164,0.19062406504333598,0.016353228721325698,0.0322774411977159,0.006279994775743277
0.1606034,0.03244949377799197,0.01692892383601776,0.04013720003949676,0.007246293661672751,0.18937372320902146,0.01626097546197297,0.03233991148625049,0.006200269816146133
0.161069,0.03272433104647482,0.01690402369519481,0.03981778218606371,0.007282346470088667,0.18815500635886565,0.01616976042500327,0.03242863373334913,0.006121390657955931
0.1615345,0.03300291339186769,0.016879245920891368,0.03951114969596325,0.00731858843335764,0.1869682168986133,0.016079598877510197,0.032543447948563106,0.0060433608185893346
0.162,0.033285189152077614,0.016854579655603143,0.03921732609660156,0.007355010279239814,0.18581364756916388,0.015990505754711726,0.0326841887515239,0.005966183606994314
0.1624655,0.03357110564001799,0.016830013991737697,0.038936331200318745,0.007391602672451755,0.18469158135855,0.015902495655985224,0.03285068542083453,0.005889862124443299
0.162931,0.03386060915589505,0.016805537978099677,0.03866818110610244,0.007428356217511727,0.18360229141679785,0.015815582840989245,0.03304276194382384,0.0058143992653743514
0.1633966,0.03415364499972246,0.016781140626343127,0.03841288820230965,0.0074652614616098605,0.18254604097369587,0.01572978122587385,0.03326023706715795,0.005739797718280169
0.1638621,0.034450157484060204,0.016756810917386504,0.038170461170394375,0.007502308897502739,0.18152308325949656,0.01564510437958113,0.03350292434830312,0.005666059966644644
0.1643276,0.034750089946973865,0.016732537807786187,0.037940904989638244,0.007539488966431916,0.18053366142857644,0.015561565520237628,0.033770632207834425,0.005593188289926731
0.1647931,0.0350533847652103,0.016708310236064453,0.03772422094288093,0.00757679206106579,0.17957800848607777,0.015479177511640211,0.03406316398258477,0.005521184764591361
0.1652586,0.035359983367585744,0.016684117128987874,0.03752040662324729,0.00761420852846422,0.17865634721755566,0.015397952859836946,0.03438031797962898,0.005450051265187092
0.1657241,0.03566982624858262,0.016659947407792173,0.0373294559418677,0.007651728673065213,0.17776889012165228,0.015317903709804395,0.03472188753109777,0.005379789465470199
0.1661897,0.035982852982151224,0.016635789994349684,0.03715135913658772,0.007689342759692955,0.1769158393458205,0.015239041842222726,0.03508766104981636,0.005310400839574883
0.1666552,0.036299002235712925,0.016611633817275717,0.036986102781663345,0.007727041016586416,0.17609738662511812,0.015161378670350016,0.035477422085762454,0.005241886663229267
0.1671207,0.0366182117843615,0.0165874678179704,0.03683366979843741,0.00776481363844767,0.1753137132240923,0.015084925236996977,0.035890949383338186,0.005174248015016845
0.1675862,0.036940418525259394,0.016563280956592936,0.03669403946699289,0.007802650789509061,0.17456498988177405,0.015009692211603318,0.0363280169394503,0.005107485777683025
0.1680517,0.03726555849222589,0.016539062217965497,0.03656718743877826,0.007840542606618248,0.17385137675980156,0.014935689887416975,0.036788394062392954,0.005041600639486376
0.1685172,0.03759356687051423,0.01651480061740454,0.03645308575020014,0.007878479202340178,0.17317302339369,0.014862928178777235,0.037271845431527145,0.004976593095594187
0.1689828,0.037924378011774826,0.016490485206477657,0.0363517028371781,0.007916450668075012,0.17253006864726436,0.01479141661850288,0.037778131157750694,0.004912463449521879
0.1694483,0.038257925449201605,0.016466105078684547,0.03626300355065624,0.007954447077191033,0.17192264067027166,0.014721164355386304,0.03830700684475261,0.0048492118146157975
0.1699138,0.038594141912858704,0.016441649375061082,0.036186949173066266,0.00799245848817167,0.17135085685918683,0.014652180151794616,0.03885822365104552,0.004786838115578852
0.1703793,0.038932959345184544,0.016417107289705836,0.03612349743573641,0.008030474947775807,0.17081482382122623,0.014584472381378687,0.03943152835276969,0.004725342090038435
0.1708448,0.03927430891667022,0.016392468075228626,0.03607260253724067,0.008068486494210622,0.17031463734158075,0.014518049026891093,0.04002666340726231,0.004664723290156025
0.1713103,0.03961812104170906,0.01636772104812091,0.036034215162682584,0.008106483160316329,0.1698503823538795,0.014452917678113868,0.04064336701738566,0.004604981084277832
0.1717759,0.039964325394614045,0.016342855594048033,0.036008282503907946,0.008144454976762196,0.16942213291389377,0.014389085529896964,0.041281373196607754,0.004546114658625809
0.1722414,0.04031285092579982,0.01631786117306332,0.03599474828064063,0.008182391975253304,0.16902995217648908,0.014326559380308386,0.04194041183482911,0.004488123019028325
0.1727069,0.04066362587812634,0.01629272732474417,0.0359935527625357,0.008220284191747505,0.1686738923758326,0.014265345628896814,0.04262020876494892,0.004431004992689772
0.1731724,0.041016577803401115,0.016267443673250222,0.03600463279214398,0.008258121669682037,0.16835399480886157,0.014205450275067638,0.043320485830163714,0.004374759229998364
0.1736379,0.041371633579038045,0.016241999932303606,0.03602792180878216,0.008295894463209245,0.16807028982201805,0.014146878916573366,0.04404096095199138,0.004319384206371397
0.1741034,0.04172871942487078,0.016216385910091134,0.03606334987330248,0.008333592640440781,0.16782279680125417,0.014089636748119354,0.044781348199013145,0.004264878224137208
0.174569,0.04208776092011964,0.016190591514088314,0.03611084369375587,0.008371206286699611,0.1676115241653108,0.014033728560085995,0.04554135785632578,0.004211239414453073
0.1750345,0.04244868302051138,0.016164606755804837,0.03617032665194236,0.00840872550777911,0.1674364693622725,0.013979158737368592,0.04632069649569631,0.004158465739258309
0.1755,0.04281141007555196,0.016138421755451098,0.036241718830842505,0.008446140433208453,0.16729761886940103,0.013925931258336355,0.04711906704641165,0.0041065549932617984
0.1759655,0.043175865845952746,0.01611202674652533,0.03632493704292333,0.008483441219523496,0.16719494819624897,0.01387404969391211,0.04793616886681551,0.00405550480596318
0.176431,0.043541973521210836,0.016085412080320705,0.03641989485931206,0.008520618053542236,0.16712842189105517,0.013823517206774324,0.0487716978165258,0.004005312643706928
0.1768966,0.043909655737344656,0.01605856823035182,0.036526502639830795,0.008557661155643978,0.1670979935504236,0.013774336550683091,0.04962534632932663,0.003955975811768515
0.1773621,0.04427883459478573,0.016031485796699843,0.036644667563885,0.008594560783051246,0.1671036058322868,0.01372651006993178,0.05049680348672937,0.003907491456471844
0.1778276,0.04464943167642746,0.016004155510275588,0.03677429366219842,0.008631307233113443,0.16714519047215548,0.013680039698926,0.05138575509219837,0.003859856567337105
0.1782931,0.04502136806583166,0.0159765682369997,0.03691528184938698,0.008667890846591239,0.16722266830265534,0.01363492696189159,0.05229188374603698,0.0038130679792582425
0.1787586,0.0453945643655932,0.01594871498189912,0.03706752995736396,0.008704302010940643,0.1673359492763528,0.013591172972713323,0.05321486892093,0.003767122374709178
0.1792241,0.04576894071586277,0.015920586893118892,0.03723093276956863,0.008740531163595598,0.16748493249186994,0.013548778434905989,0.054154387038138393,0.0037220162859779708
0.1796897,0.046144416813027694,0.015892175265848334,0.03740538205601038,0.00877656879524796,0.16766950622328927,0.013507743641719415,0.05511011154434194,0.003677746097428071
0.1801552,0.04652091192855044,0.01586347154616052,0.037590766609120176,0.008812405453123607,0.16788954795284877,0.013468068476378985,0.05608171298912545,0.003634308047785852
0.1806207,0.046898344927964325,0.01583446733476396,0.03778697228040133,0.008848031744253483,0.16814492440692588,0.013429752412463051,0.057068859103103595,0.0035916982324535962
0.1810862,0.04727663429002551,0.015805154390665325,0.03799388201787104,0.008883438338738359,0.1684354915953099,0.013392794514418634,0.05807121487667958,0.0035499126058471135
0.1815517,0.04765569812602044,0.015775524634741994,0.03821137590428426,0.008918615973006151,0.1687610948537607,0.013357193438216633,0.05908844263943192,0.0035089469837571554
0.1820172,0.048035454199227355,0.015745570153223143,0.038439331196131084,0.008953555453060648,0.16912156888985108,0.01332294743214774,0.06012020214012352,0.003468797045733791
0.1824828,0.04841581994453051,0.015715283201078106,0.03867762236339871,0.008988247657720624,0.16951673783208945,0.013290054337760156,0.0611661506273266,0.003429458337492887
0.1829483,0.048796712488185554,0.015684656205310697,0.038926121130088635,0.00902268354184824,0.16994641528231855,0.013258511590940105,0.062225942930656745,0.0033909262733438335
0.1834138,0.0491780486677344,0.015653681768158123,0.03918469651547966,0.009056854139565695,0.17041040437138477,0.013228316223136067,0.0632992315426086,0.0033531961386376544
0.1838793,0.0495597450520677,0.015622352670193166,0.0394532148761268,0.009090750567459064,0.1709084978180716,0.01319946486272747,0.0643856667009855,0.0033162630922346594
0.1843448,0.04994171796163287,0.015590661873328282,0.03973153994858622,0.009124364027768263,0.1714404779912897,0.013171953736538566,0.0654848964719148,0.0032801221689908
0.1848103,0.05032388348878527,0.015558602523720247,0.040019532892855765,0.009157685811562101,0.17200611697551527,0.013145778671498033,0.06659656683344012,0.003244768282261928
0.1852759,0.050706157518280524,0.015526167954574009,0.04031705233652091,0.009190707301897336,0.17260517663946603,0.013120935096444793,0.06772032175968164,0.0032101962264251584
0.1857414,0.051088455747905756,0.015493351688844414,0.040623954419595446,0.009223419976960632,0.1732374087080044,0.013097418044080399,0.06885580330555503,0.003176400679416522
0.1862069,0.05147069370924786,0.015460147441834519,0.04094009284004644,0.009255815413192309,0.17390255483725417,0.013075222153068266,0.07000265169203962,0.0031433762052841276
0.1866724,0.05185278678859736,0.015426549123689213,0.041265318899992805,0.009287885288390661,0.17460034669291777,0.013054341670279988,0.07116050539198622,0.003111117256756
0.1871379,0.05223465024798632,0.015392550841782966,0.04159948155256711,0.009319621384795581,0.17533050603177888,0.013034770453188835,0.07232900121645502,0.0030796181778217795
0.1876034,0.05261619924635894,0.015358146903000552,0.041942427449430074,0.009351015592150139,0.17609274478637432,0.013016501972410477,0.07350777440157372,0.003048873206327447
0.188069,0.05299734886087369,0.015323331815909695,0.042294000988927126,0.009382059910738705,0.17688676515281862,0.012999529314390855,0.07469645869590565,0.00301887647658222
0.1885345,0.0533780141083357,0.015288100292824621,0.042654044364876534,0.009412746454400135,0.17771225968176288,0.012983845184241078,0.07589468644831747,0.0029896220219767793
0.189,0.05375810996675801,0.015252447251759617,0.04302239761597853,0.00944306745351449,0.17856891137246902,0.012969441908719044,0.07710208869633506,0.0029611037776119784
0.1894655,0.054137551397050294,0.01521636781827172,0.04339889867583448,0.009473015257961761,0.17945639376997918,0.012956311439357446,0.07831829525497583,0.0029333155829371965
0.189931,0.05451625336483357,0.015179857327191766,0.043783383423565414,0.009502582340051103,0.1803743710653584,0.01294444535573773,0.07954293480604502,0.0029062511843974785
0.1903966,0.05489413086237931,0.015142911324243016,0.04417568573501865,0.00953176129741916,0.18132249819898794,0.0129338348689094,0.08077563498788276,0.0028799042380886187
0.1908621,0.05527109893067163,0.015105525567546607,0.044575637534551134,0.009560544855896205,0.18230042096688456,0.012924470824954055,0.08201602248554843,0.002854268312419301
0.1913276,0.05564707268159086,0.015067696029013073,0.04498306884737832,0.009588925872338843,0.18330777613001994,0.012916343708693382,0.0832637231214277,0.002829336890779424
0.1917931,0.05602196732021711,0.015029418895619207,0.04539780785247692,0.009616897337428112,0.18434419152661288,0.012909443647540245,0.08451836194624755,0.0028051033742137236
0.1922586,0.05639569816725165,0.014990690570569381,0.045819680936029866,0.009644452378431796,0.18540928618736607,0.01290376041549193,0.08577956333048374,0.002781561084099819
0.1927241,0.05676818068155413,0.014951507674340551,0.04624851274540152,0.009671584261929787,0.18650267045361776,0.012899283437264469,0.08704695105614485,0.002758703264829799
0.1931897,0.05713933048279278,0.014911867045609982,0.04668412624363122,0.009698286396501346,0.18762394609837743,0.012896001792566877,0.08832014840891667,0.0027365230864944833
0.1936552,0.05750906337420467,0.014871765742064866,0.047126342764432824,0.009724552335373025,0.18877270645021355,0.012893904220514027,0.08959877827065035,0.002715013647569491
0.1941207,0.05787729536546254,0.014831201041092937,0.04757498206768797,0.00975037577902611,0.1899485365199606,0.012892979124176756,0.09088246321217702,0.0026941679776022833
0.1945862,0.058243942695644445,0.01479017044035328,0.048029862395420446,0.009775750577762308,0.1911510131302109,0.012893214575267811,0.09217082558643129,0.0026739790398993286
0.1950517,0.0586089218563019,0.01474867165822672,0.04849080052823896,0.009800670734226523,0.19237970504755578,0.012894598318962084,0.09346348762186592,0.0026544397342125746
0.1955172,0.058972149614621924,0.014706702634145174,0.048957611842235495,0.009825130405885521,0.1936341731175394,0.012897117778849545,0.09476007151613884,0.002635542899424392
0.1959828,0.059333543036678135,0.014664261528799617,0.04943011036632616,0.00984912390746141,0.19491397040228742,0.012900760062019201,0.09606019953005365,0.002617281316230171
0.1964483,0.0596930195107657,0.01462134672422639,0.04990810884002133,0.009872645713318834,0.19621864232077244,0.012905511964272372,0.0973634940817336,0.0025996477098177415
0.1969138,0.06005049677081458,0.014577956823771734,0.05039141877161162,0.009895690459804863,0.19754772679167573,0.012911359975463525,0.09866957784100902,0.0025826347525427793
0.1973793,0.060405892919875304,0.014534090651934556,0.0508798504967561,0.009918252947540502,0.19890075437880508,0.01291829028496682,0.09997807382399694,0.002566235066599329
0.1978448,0.060759126453671056,0.014489747254087377,0.05137321323745856,0.009940328143662754,0.20027724843902645,0.012926288787266432,0.10128860548785139,0.002550441226684585
0.1983103,0.06111011628420947,0.01444492589607549,0.05187131516141768,0.009961911184016183,0.2016767252726657,0.012935341087668693,0.10260079682566169,0.0025352457626570354
0.1987759,0.06145878176344701,0.014399626063694411,0.052373963441736615,0.009982997375292983,0.20309869427633673,0.012945432508133977,0.10391427246147587,0.002520641162187074
0.1992414,0.06180504270699837,0.014353847462045776,0.05288096431697738,0.01000358219712063,0.20454265809814953,0.012956548093226123,0.10522865774542554,0.0025066198733991562
0.1997069,0.06214881941788272,0.014307590014772139,0.05339212315154465,0.010023661304096286,0.2060081127952515,0.012968672616177146,0.10654357884892773,0.002493174307504573
0.2001724,0.06249003271029828,0.014260853863171372,0.05390724449638423,0.010043230527767193,0.20749454799365344,0.012981790585064901,0.10785866285993895,0.0024802968414239183
0.2006379,0.06282860393341619,0.014213639365191795,0.05442613214998051,0.010062285878556312,0.2090014470502905,0.012995886249101262,0.10917353787823532,0.0024679798203982987
0.2011034,0.0631644549951841,0.014165947094309522,0.054948589219637405,0.010080823547632501,0.210528287217266,0.01301094360502836,0.11048783311069225,0.0024562155605883456
0.201569,0.06349750838612969,0.014117777838289939,0.05547441818302696,0.01009883990872447,0.21207453980822538,0.013026946403620296,0.11180117896653581,0.0024449963516600774
0.2020345,0.06382768720315403,0.014069132597835637,0.056003420949989495,0.010116331519877763,0.21363967036680537,0.013043878156287745,0.11311320715253699,0.0024343144593566538
0.2025,0.06415491517330435,0.014020012585123417,0.05653539892456911,0.01013329512515396,0.21522313883710167,0.013061722141782726,0.11442355076811962,0.002424162128055061
0.2029655,0.06447911667751573,0.013970419222233384,0.057070153067267974,0.010149727656271342,0.21682439973609688,0.013080461413000777,0.11573184440035167,0.0024145315833067754
0.203431,0.0648002167743107,0.013920354139473396,0.05760748395750266,0.010165626234186133,0.21844290232798838,0.013100078803877603,0.11703772421878818,0.0024054150343614843
0.2038966,0.0651181412234459,0.013869819173602282,0.0581471918562454,0.010180988170613501,0.22007809080035481,0.013120556936377176,0.11834082807013407,0.0023968046766729523
0.2043621,0.06543281650949395,0.013818816365955462,0.05868907676883304,0.010195810969487386,0.2217294044420972,0.013141878227568207,0.11964079557269384,0.0023886926943861696
0.2048276,0.06574416986534934,0.013767347960476592,0.05923293850792601,0.010210092328358332,0.22339627782308946,0.013164024896785725,0.12093726821057411,0.0023810712628049287
0.2052931,0.06605212929564581,0.013715416401658883,0.05977857675659928,0.010223830139728503,0.22507814097547146,0.013186978972874443,0.12222988942760483,0.0023739325508389947
0.2057586,0.0663566236000734,0.013663024332399694,0.060325791131547096,0.010237022492323127,0.22677441957651592,0.013210722301510443,0.12351830472094386,0.002367268723430047
0.2062241,0.06665758239658261,0.013610174591771947,0.060874381246382725,0.010249667672297666,0.22848453513299838,0.01323523655259766,0.12480216173432934,0.002361071943955581
0.2066897,0.06695493614446371,0.013556870212715842,0.06142414677501423,0.010261764164380044,0.23020790516699802,0.013260503227735474,0.1260811103509447,0.0023553343766099574
0.2071552,0.06724861616728847,0.01350311441965428,0.061974887515076564,0.010273310652947263,0.23194394340305635,0.013286503667753774,0.1273548027858603,0.0023500481887617853
0.2076207,0.0675385546757021,0.013448910626035296,0.06252640345139998,0.01028430602303573,0.2336920599566179,0.013313219060311738,0.12862289367801655,0.002345205553286822
0.2080862,0.0678246847900529,0.013394262431804695,0.06307849481949418,0.010294749361284567,0.23545166152367825,0.013340630447556644,0.1298850401817123,0.0023407986508755547
0.2085517,0.06810694056284698,0.01333917362081201,0.06363096216902707,0.01030463995681114,0.23722215157156462,0.013368718733839024,0.13114090205756346,0.0023368196723146193
0.2090172,0.06838525700101575,0.013283648158152769,0.06418360642727644,0.010313977302018022,0.2390029305307742,0.013397464693480535,0.13239014176289524,0.0023332608207412026
0.2094828,0.06865957008798275,0.013227690187449943,0.06473622896253249,0.010322761093330591,0.24079339598779925,0.013426848978590972,0.13363242454153249,0.002330114313869582
0.2099483,0.06892981680551713,0.013171304028077363,0.06528863164742858,0.010330991231864444,0.24259294287886932,0.013456852126930855,0.13486741851295123,0.002327372386188974
0.2104138,0.06919593515536021,0.013114494172327795,0.06584061692217698,0.010338667824021857,0.24440096368454342,0.013487454569816017,0.13609479476075503,0.002325027291131889
0.2108793,0.0694578641806116,0.01305726528252825,0.06639198785768582,0.010345791182016534,0.24621684862508683,0.013518636640060729,0.13731422742043928,0.0023230713032122282
0.2113448,0.06971554398686111,0.012999622188105034,0.06694254821853322,0.01035236182432588,0.2480399858565683,0.013550378579955863,0.1385253937664062,0.0023214967201323914
0.2118103,0.06996891576305257,0.012941569882601004,0.06749210252577358,0.010358380476070118,0.2498697616676142,0.013582660549278569,0.13972797429819317,0.0023202958648587207
0.2122759,0.07021792180206547,0.012883113520647386,0.06804045611955092,0.010363848069317515,0.25170556067675637,0.013615462633330007,0.1409216528258762,0.002319461087664644
0.2127414,0.07046250552100013,0.012824258414892521,0.06858741522149354,0.010368765743314997,0.25354676603031046,0.01364876485099757,0.14210611655461142,0.0023189847681409524
0.2132069,0.07070261148115195,0.012765010032889792,0.06913278699686354,0.010373134844643419,0.2553927596007208,0.013682547162837939,0.14328105616827475,0.002318859317172706
0.2136724,0.07093818540766013,0.012705373993946951,0.06967637961643466,0.010376956927296753,0.2572429221853067,0.013716789479177304,0.14444616591216158,0.0023190771788823327
0.2141379,0.07116917420881548,0.012645356065939067,0.07021800231807146,0.01038023375268442,0.2590966337053456,0.013751471668224905,0.1456011436747062,0.002319630832538553
0.2146034,0.07139552599501237,0.01258496216208714,0.0707574654679821,0.010382967289556023,0.26095327340542523,0.013786573564196037,0.14674569106818083,0.0023205127944308144
0.215069,0.07161719009732917,0.012524198337704476,0.07129458062161718,0.01038515971384772,0.26281222005299765,0.013822074975440555,0.14787951350833395,0.0023217156197089537
0.2155345,0.07183411708572181,0.012463070786912785,0.07182916058418597,0.010386813408449469,0.26467285213806396,0.013857955692572881,0.14900232029292554,0.002323231904187816
0.216,0.07204625878681482,0.012401585839330037,0.07236101947076178,0.010387930962892294,0.26653454807291965,0.013894195496599402,0.15011382467911796,0.0023250542861165792
0.2164655,0.07225356830127451,0.012339749956731982,0.07288997276594726,0.010388515172954693,0.26839668639188635,0.013930774167039072,0.15121374395967926,0.002327175447912516
0.216931,0.07245600002074781,0.01227756972968927,0.07341583738307013,0.010388569040187264,0.27025864595095617,0.013967671490032947,0.1523017995379561,0.002329588117858933
0.2173966,0.07265350964435106,0.012215051874182108,0.07393843172287969,0.010388095771354506,0.2721198061272707,0.014004867266438325,0.1533777170015714,0.00233228507176704
0.2178621,0.07284605419469199,0.012152203228194346,0.07445757573171433,0.010387098777792775,0.2739795470183554,0.014042341319903043,0.15444122619480133,0.00233525913460152
0.2183276,0.07303359203340819,0.012089030748288843,0.07497309095910994,0.010385581674683276,0.27583724964102807,0.014080073504915509,0.1554920612895857,0.002338503182069591
0.2187931,0.07321608287620474,0.012025541506165973,0.07548480061481913,0.01038354828023903,0.277692296129899,0.014118043714826018,0.15652996085512427,0.002342010142173364
0.2192586,0.07339348780737369,0.011961742685207038,0.07599252962521157,0.010381002614804775,0.27954406993537806,0.014156231889834938,0.15755466792601086,0.0023457729967253055
0.2197241,0.07356576929377735,0.01189764157700441,0.07649610468902537,0.010377948899868766,0.2813919560211027,0.014194618024943423,0.15856593006885755,0.00234978478282661
0.2201897,0.07373289119827717,0.01183324557788012,0.0769953543324398,0.010374391556985486,0.28323534106070086,0.01423318217786234,0.15956349944735937,0.002354038594308285
0.2206552,0.0738948187925891,0.011768562185394658,0.07749010896343966,0.010370335206608336,0.28507361363380057,0.014271904476875279,0.16054713288575068,0.0023585275831347584
0.2211207,0.0740515187695467,0.011703598994847639,0.07798020092544189,0.010365784666831426,0.28690616442119615,0.014310765128651615,0.16151659193060344,0.0023632449607698413
0.2215862,0.07420295925475247,0.011638363695771984,0.07846546455015498,0.01036074495203959,0.2887323863990807,0.014349744426005713,0.16247164291091795,0.002368183999504876
0.2220517,0.07434910981759862,0.011572864068423285,0.078945736209642,0.010355221271465766,0.29055167503225193,0.014388822755598465,0.16341205699645595,0.0023733380337489425
0.2225172,0.07448994148163829,0.011507107980265932,0.07942085436755845,0.010349219027654856,0.2923634284661958,0.014427980605577458,0.16433761025426688,0.002378700461281014
0.2229828,0.07462542673428889,0.011441103382457579,0.079890659629536,0.010342743814833114,0.2941670477179516,0.014467198573152066,0.16524808370335795,0.0023842647444639775
0.2234483,0.07475553953584976,0.0113748583063335,0.0803549947926838,0.010335801417182131,0.2959619368656609,0.014506457372099829,0.16614326336745952,0.0023900244114204573
0.2239138,0.07488025532781724,0.011308380859892317,0.08081370489417936,0.010328397807016413,0.29774750323670085,0.014545737840200508,0.16702294032583853,0.0023959730571703856
0.2243793,0.0749995510404806,0.011241679224284575,0.08126663725892076,0.010320539142863572,0.2995231575943029,0.014585020946594208,0.167886910762114,0.0024021043447302677
0.2248448,0.07511340509978393,0.011174761650305596,0.08171364154621336,0.010312231767446133,0.30128831432255915,0.014624287799059988,0.16873497601102974,0.0024084120061740846
0.2253103,0.07522179743343946,0.011107636454894026,0.08215456979546353,0.010303482205564004,0.3030423916097168,0.014663519651211382,0.16956694260314184,0.002414889843655774
0.2257759,0.07532470947627971,0.011040312017637409,0.08258927647085322,0.010294297161876634,0.3047848116296659,0.014702697909605295,0.17038262230738066,0.0024215317303932426
0.2262414,0.07542212417483626,0.010972796777286152,0.08301761850496912,0.010284683518584015,0.306515000721526,0.01474180414076075,0.17118183217144953,0.002428331611613882
0.2267069,0.07551402599113484,0.010905099228277183,0.08343945534136138,0.01027464833300566,0.3082323895672412,0.014780820078084043,0.17196439456002638,0.0024352835054615787
0.2271724,0.07560040090569674,0.010837227917268587,0.08385464897600708,0.01026419883505686,0.309936413367099,0.014819727628696948,0.1727301371907376,0.0024423815038652433
0.2276379,0.07568123641973756,0.010769191439686472,0.08426306399765482,0.010253342424621552,0.3116265120130913,0.014858508880164718,0.17347889316787746,0.0024496197733689163
0.2281034,0.07575652155655477,0.01070099843628533,0.08466456762702695,0.01024208666882142,0.31330213026004455,0.014897146107120727,0.17421050101385005,0.0024569925559235323
0.228569,0.07582624686209563,0.01063265758972316,0.08505902975485781,0.01023043929918098,0.314962717894452,0.014935621777784769,0.1749248046983146,0.002464494169640477
0.2290345,0.0758904044046986,0.010564177621152509,0.08544632297874619,0.010218408208688873,0.31660772990094554,0.01497391856037207,0.17562165366501764,0.0024721190095071156
0.2295,0.07594898777400301,0.010495567286828635,0.08582632263880159,0.010206001448755796,0.31823662662635416,0.015012019329390204,0.17630090285630015,0.0024798615480645155
0.2299655,0.07600199207902557,0.010426835374735864,0.08619890685206479,0.010193227226069922,0.3198488739412982,0.015049907171821147,0.17696241273526772,0.00248771633604764
0.230431,0.07604941394540692,0.010357990701233178,0.08656395654568372,0.010180093899351069,0.32144394339927457,0.015087565393185742,0.17760604930561485,0.0024956780029883377
0.2308966,0.07609125151183618,0.010289042107719984,0.08692135548882692,0.010166609976005079,0.323021312393191,0.015124977523487815,0.1782316841290966,0.0025037412577815056
0.2313621,0.07612750442566599,0.010219998457322969,0.08727099032331655,0.010152784108680238,0.3245804643093118,0.015162127323035216,0.1788391943406398,0.0025119008892148208
0.2318276,0.07615817383773293,0.010150868631604821,0.08761275059296368,0.010138625091727622,0.3261208886785781,0.0151989987881349,0.1794284626610873,0.002520151766462473
0.2322931,0.07618326239640123,0.010081661527295649,0.0879465287715882,0.01012414185756743,0.3276420813252675,0.0152355761566592,0.17999937740756802,0.00252848883954333
0.2327586,0.07620277424084802,0.010012386053047863,0.0882722202897056,0.010109343472963364,0.3291435445129606,0.015271843913480273,0.180551832501486,0.0025369071397439743
0.2332241,0.07621671499360971,0.009943051126215343,0.08858972355986286,0.01009423913520724,0.3306247870877784,0.015307786795769586,0.18108572747412094,0.0025454017800070447
0.2336897,0.0762250917524088,0.009873665669657685,0.0888989400006057,0.010078838168216057,0.3320853246188579,0.015343389798159265,0.18160096746983545,0.0025539679552853147
0.2341552,0.0762279130812805,0.009804238608570381,0.0891997740590608,0.010063150018543889,0.33352467953602816,0.015378638177761927,0.18209746324688564,0.002562600942861934
0.2346207,0.07622518900101806,0.00973477886734184,0.0894921332321168,0.010047184251310938,0.33494238126464965,0.01541351745904569,0.1825751311758372,0.002571296102637263
0.2350862,0.07621693097895531,0.009665295366438155,0.08977592808619043,0.010030950546052164,0.3363379663575769,0.015448013438560941,0.18303389323559438,0.002580048877382748
0.2355517,0.07620315191810509,0.009595797019316583,0.09005107227556525,0.010014458692487793,0.337710978624201,0.015482112189515475,0.18347367700705333,0.002588854792962277
0.2360172,0.07618386614567137,0.009526292729368759,0.09031748255929303,0.00999771858621804,0.3390609692565292,0.015515800066194742,0.183894415664398,0.0025977094585214735
0.2364828,0.07615908940095352,0.009456791386894732,0.09057507881665079,0.00998074022434436,0.3403874969522546,0.015549063708223962,0.18429604796406018,0.00260660856664537
0.2369483,0.07612883882266107,0.009387301866108934,0.09082378406114829,0.009963533701019505,0.34169012803476984,0.015581890044669006,0.18467851823137094,0.0026155478934848865
0.2374138,0.07609313293565727,0.009317833022179265,0.09106352445308455,0.00994610920292877,0.3429684365700755,0.01561426629797314,0.1850417763449333,0.002624523298852562
0.2378793,0.07605199163715032,0.009248393688300533,0.09129422931065365,0.009928477004704887,0.3442220044805346,0.015646179987726917,0.18538577771875095,0.0026335307262879476
0.2383448,0.07600543618235099,0.009178992672803452,0.09151583111960296,0.009910647464279174,0.34545042165542217,0.015677618934268642,0.18571048328214987,0.002642566203093088
0.2388103,0.0759534891696157,0.009109638756300421,0.09172826554144964,0.009892631018171696,0.34665328605821943,0.01570857126211323,0.18601585945753296,0.0026516258403385027
0.2392759,0.07589617452509406,0.009040340688869363,0.09193147142026255,0.00987443817672328,0.3478302038306004,0.015739025403207464,0.18630187813600965,0.0026607058328400376
0.2397414,0.07583351748689966,0.008971107187276853,0.09212539078801919,0.009856079519272391,0.3489807893930623,0.015768970100009952,0.1865685166509439,0.0026698024591069827
0.2402069,0.07576554458882213,0.008901946932241778,0.09230996886854893,0.009837565689279988,0.3501046655421496,0.015798394408394464,0.1868157577494665,0.002678912081261788
0.2406724,0.07569228364359862,0.00883286856574078,0.09248515408007524,0.009818907389405544,0.3512014635442266,0.015827287700375565,0.18704358956199788,0.0026880311449317125
0.2411379,0.07561376372576177,0.008763880688356637,0.09265089803637104,0.009800115376537494,0.3522708232257585,0.015855639666655826,0.18725200556982893,0.0026971561791127186
0.2416034,0.07553001515408132,0.00869499185667074,0.0928071555465432,0.009781200456781446,0.353312393060063,0.015883440318994194,0.18744100457080867,0.002706283796005903
0.242069,0.07544106947361524,0.008626210580700712,0.09295388461346234,0.009762173480409492,0.35432583025050374,0.01591067999239545,0.18761059064318827,0.002715410690826736
0.2425345,0.07534695943738652,0.00855754532138417,0.09309104643085549,0.009743045336773958,0.355310800810101,0.01593734934712089,0.18776077310767178,0.0027245336415873725
0.243,0.0752477189877006,0.00848900448810956,0.0932186053790801,0.009723826949189005,0.35626697963754544,0.01596343937052071,0.18789156648772498,0.0027336495088522857
0.2434655,0.07514338323711817,0.008420596436294872,0.09333652901959764,0.00970452926978339,0.3571940505896042,0.015988941378688774,0.18800299046819363,0.002742755235467455
0.243931,0.07503398844909788,0.008352329465015063,0.09344478808816623,0.009685163274327767,0.35809170654991923,0.01601384701794068,0.18809506985228197,0.002751847846263318
0.2443966,0.07491957201832314,0.008284211814678833,0.09354335648677117,0.009665739957039834,0.35895964949420206,0.016038148266116208,0.18816783451694277,0.0027609244477316787
0.2448621,0.07480017245072691,0.008216251664755437,0.09363221127431248,0.009646270325370599,0.35979759055183586,0.016061837433707395,0.18822131936672903,0.0027699822276767497
0.2453276,0.07467582934322818,0.008148457131552074,0.09371133265606761,0.009626765394774988,0.36060525006390187,0.016084907164813582,0.18825556428615658,0.0027790184548405076
0.2457931,0.07454658336319336,0.008080836266042368,0.09378070397194799,0.009607236183469993,0.3613823576376518,0.016107350437924817,0.18827061409062484,0.002788030478502507
0.2462586,0.07441247622763583,0.008013397051746399,0.09384031168356666,0.009587693707183523,0.36212865219745227,0.016129160566535038,0.18826651847594283,0.0027970157280543194
0.2467241,0.07427355068216601,0.007946147402662695,0.09389014536013425,0.009568148973897102,0.3628438820322303,0.016150331199586403,0.18824333196650622,0.002805971712548746
0.2471897,0.07412985047970477,0.007879095161252505,0.0939301976631994,0.009548612978585587,0.3635278048394509,0.0161708563217461,0.18820111386217084,0.002814896020223948
0.2476552,0.07398142035897291,0.0078122480964766955,0.09396046433025043,0.00952909669795707,0.3641801877656615,0.016190730253516757,0.1881399281838678,0.002823786318002628
0.2481207,0.07382830602276953,0.007745613901885518,0.09398094415719375,0.009509611085196093,0.36480080744363547,0.01620994765118164,0.18805984361800535,0.00283264035096642
0.2485862,0.0736705541160519,0.0076792001937614615,0.09399163897972512,0.00949016706471334,0.36538945002614964,0.016228503506585636,0.18796093345970236,0.002841455941805636
0.2490517,0.07350821220382991,0.007613014509315352,0.09399255365360966,0.00947077552690487,0.36594591121642933,0.016246393146753028,0.1878432755548995,0.0028502309902445626
0.2495172,0.07334132874888799,0.00754706430493579,0.09398369603388722,0.009451447322923969,0.3664699962952927,0.016263612233342946,0.1877069522413933,0.0028589634724425273
0.2499828,0.07316995308934747,0.0074813569544920095,0.09396507695301906,0.009432193259468594,0.36696152014502514,0.016280156761943363,0.18755205028883945,0.0028676514403709642
0.2504483,0.07299413541608211,0.007415899747690113,0.09393671019799313,0.009413024093587314,0.367420307270011,0.016296023061204385,0.18737866083777166,0.002876293021166743
0.2509138,0.07281392674999951,0.007350699888482644,0.09389861248640553,0.009393950527506611,0.36784619181414857,0.01631120779181146,0.18718687933768302,0.002884886416462039
0.2513793,0.07262937891920074,0.007285764493531371,0.09385080344153596,0.009374983203482293,0.36823901757507177,0.0163257079452993,0.18697680548421636,0.0028934299016910433
0.2518448,0.07244054453603048,0.007221100590723107,0.0937933055664355,0.009356132698677697,0.3685986380151974,0.016339520842707168,0.18674854315551037,0.0029019218253738314
0.2523103,0.07224747697402943,0.0071567151177383374,0.09372614421704598,0.009337409520071305,0.36892491626961743,0.016352644133076397,0.18650220034774895,0.0029103606083777443
0.2527759,0.07205023034480024,0.007092614920672419,0.09364934757436996,0.009318824099396337,0.3692177251508532,0.01636507579179101,0.18623788910995992,0.0029187447431566673
0.2532414,0.07184885947479791,0.007028806752709009,0.09356294661571161,0.009300386788114802,0.36947694715048535,0.016376814118762437,0.18595572547810968,0.0029270727929686133
0.2537069,0.071643419882055,0.006965297272845393,0.09346697508500772,0.009282107852428513,0.3697024744376759,0.016387857736459403,0.18565582940853997,0.0029353433910720354
0.2541724,0.07143396775285155,0.006902093044669289,0.09336146946226967,0.009263997468329451,0.36989420885459456,0.016398205587784157,0.18533832471079248,0.0029435552399013415
0.2546379,0.07122055991833928,0.006839200535186682,0.09324646893215684,0.009246065716691928,0.370052061908764,0.016407856933796244,0.18500333897986623,0.002951707110222076
0.2551034,0.07100325383112903,0.006776626113700175,0.09312201535170223,0.009228322578408922,0.3701759547623353,0.016416811351285136,0.18465100352795252,0.002959797840266244
0.255569,0.07078210754185013,0.006714376050737332,0.09298815321721195,0.00921077792957494,0.3702658182183064,0.016425068730193275,0.18428145331569115,0.0029678263348482635
0.2560345,0.07055717967569027,0.006652456517028403,0.09284492963036035,0.009193441536717736,0.3703215927036949,0.016432629270891137,0.1838948268829908,0.002975791564462037
0.2565,0.0703285294089241,0.006590873582532845,0.0926923942635031,0.009176323052081251,0.37034322824967564,0.016439493481306102,0.1834912662794563,0.002983692564359657
0.2569655,0.07009621644543992,0.0065296332155139495,0.09253059932423095,0.009159432008962074,0.37033068446869516,0.016445662173907194,0.18307091699446365,0.0029915284336122735
0.257431,0.06986030099327273,0.006468741281660927,0.09235959951918767,0.009142777817101764,0.3702839305285725,0.01645113646254785,0.18263392788692268,0.0029992983341536935
0.2578966,0.06962084374115328,0.0064082035432577135,0.09217945201717592,0.009126369758137307,0.3702029451235978,0.01645591775916911,0.1821804511147669,0.003007001489807304
0.2583621,0.06937790583508216,0.006348025658397791,0.09199021641157577,0.009110216981112041,0.3700877164426386,0.016460007770365832,0.18171064206420862,0.003014637185296952
0.2588276,0.06913154885493829,0.006288213180244287,0.0917919546821008,0.009094328498049266,0.3699382421342654,0.016463408493818676,0.18122465927879522,0.0030222047652424425
0.2592931,0.06888183479113144,0.006228771556334559,0.09158473115591702,0.009078713179590733,0.36975452926890745,0.016466122214594866,0.18072266438830245,0.0030297036331403417
0.2597586,0.06862882602130845,0.006169706127928494,0.09136861246815038,0.009063379750702216,0.3695365942980499,0.01646815150132091,0.18020482203749844,0.0030371332503307744
0.2602241,0.0683725852871221,0.0061110221293997355,0.09114366752180887,0.00904833678644819,0.36928446301048473,0.016469499202230634,0.1796712998148113,0.003044493134950922
0.2606897,0.06811317567107283,0.006052724687669059,0.09090996744714586,0.0090335927078377,0.3689981704856279,0.016470168441092118,0.17912226818093144,0.003051782860875916
0.2611552,0.06785066057343239,0.005994818821679107,0.0906675855604909,0.009019155777743329,0.36867776104391703,0.016470162613017265,0.17855790039737793,0.003059002056647806
0.2616207,0.06758510368925891,0.005937309441909762,0.09041659732257486,0.009005034096895194,0.3683232881943042,0.01646948538015786,0.17797837245505752,0.0030661504043932937
0.2620862,0.06731656898551243,0.005880201349933412,0.09015708029637648,0.008991235599951783,0.3679348145788619,0.016468140667292235,0.17738386300284273,0.0030732276387309123
0.2625517,0.06704512067827981,0.005823499238009453,0.08988911410451737,0.00897776805164947,0.36751241191452405,0.016466132657306717,0.17677455327619412,0.0030802335456683355
0.2630172,0.0667708232101172,0.005767207688717348,0.0896127803862325,0.008964639043032418,0.3670561609319848,0.016463465786576082,0.17615062702585088,0.003087167961490494
0.2634828,0.0664937412275185,0.005711331174627669,0.0893281627539432,0.008951855987764584,0.36656615131178366,0.016460144740247453,0.1755122704466123,0.0030940307716391864
0.2639483,0.06621393955851762,0.00565587405801052,0.08903534674945979,0.008939426118525506,0.3660424816176092,0.01645617444743197,0.1748596721062316,0.0031008219095848403
0.2644138,0.06593148319043243,0.005600840590580842,0.08873441979983991,0.008927356483491468,0.3654852592268582,0.016451560076308578,0.1741930228744428,0.003107541355691098
0.2648793,0.06564643724775811,0.005546234913280093,0.08842547117292904,0.008915653942903638,0.36489460025849063,0.0164463070291442,0.1735125158521402,0.0031141891360728876
0.2653448,0.06535886697021713,0.005492061056093814,0.0881085919326087,0.008904325165724723,0.36427062949822814,0.01644042093723437,0.1728183463007286,0.0031207653214486604
0.2658103,0.06506883769097314,0.005438322937904644,0.0877838748937775,0.008893376626385611,0.36361348032114454,0.01643390765576835,0.17211071157166147,0.0031272700259874888
0.2662759,0.06477641481501521,0.005385024366380305,0.08745141457708933,0.008882814601623474,0.3629232946117026,0.01642677325862258,0.17138981103618262,0.0031337034061517223
0.2667414,0.06448166379771893,0.005332169037896077,0.08711130716347279,0.008872645167412745,0.36220022268129426,0.016419024033086226,0.17065584601528616,0.0031400656595359125
0.2672069,0.06418465012359048,0.005279760537491298,0.08676365044845465,0.00886287419599034,0.361444423183343,0.016410666474522474,0.16990901970990727,0.00314635702370272
0.2676724,0.06388543928519935,0.00522780233885935,0.08640854379630972,0.008853507352976481,0.36065606302602793,0.016401707280969235,0.16914953713135583,0.003152577775016525
0.2681379,0.06358409676230505,0.005176297804370598,0.08604608809405868,0.00884455009459242,0.3598353172826918,0.016392153347682785,0.16837760503200397,0.003158728227475442
0.2686034,0.06328068800118276,0.005125250185127722,0.08567638570533498,0.008836007664976338,0.35898236909999387,0.016382011761627877,0.16759343183623754,0.003164808731542437
0.269069,0.06297527839415268,0.005074662621052857,0.08529954042414098,0.008827885093598711,0.3580974096038675,0.016371289795917857,0.16679722757168156,0.003170819672976247
0.2695345,0.06266793325931716,0.005024538141005938,0.0849156574285132,0.008820187192778418,0.3571806378033416,0.01635999490420827,0.16598920380070908,0.0031767614716627784
0.27,0.06235871782051021,0.004974879662933597,0.08452484323411615,0.008812918555300758,0.35623226049228274,0.016348134715047435,0.16516957355224382,0.003182634580447678
0.2704655,0.06204769718746339,0.004925689994047955,0.0841272056477829,0.008806083552138633,0.3552524921491107,0.01633571702618733,0.1643385512538663,0.0031884394839707415
0.270931,0.06173493633619237,0.004876971831034606,0.08372285372102131,0.008799686330278072,0.35424155483453973,0.016322749798858154,0.1634963526642346,0.003194176697502832
0.2713966,0.061420500089608365,0.004828727760289046,0.08331189770350368,0.008793730810649204,0.35319967808739605,0.016309241152009827,0.16264319480583048,0.003199846765785936
0.2718621,0.06110445309835873,0.004780960258180792,0.08289444899655785,0.008788220686163797,0.35212709881855914,0.01629519935652352,0.16177929589804252,0.003205450261877008
0.2723276,0.06078685982190059,0.004733671691344411,0.08247062010667706,0.0087831594198604,0.3510240612030737,0.016280632829396284,0.160904875290599,0.003210987785996193
0.2727931,0.060467784509811516,0.004686864316996628,0.08204052459906609,0.008778550243158096,0.34989081657047943,0.01626555012790173,0.16002015339736284,0.0032164599643800446
0.2732586,0.06014729118334068,0.004640540283278689,0.08160427705124082,0.00877439615421976,0.34872762329340495,0.016249959943729457,0.15912535163050193,0.0032218674481403133
0.2737241,0.05982544361720415,0.004594701629623102,0.08116199300669841,0.008770699916425737,0.34753474667447326,0.01623387109710601,0.15822069233504824,0.003227210912128877
0.2741897,0.05950230532162761,0.004549350287143904,0.08071378892867498,0.008767464056958718,0.34631245883156503,0.016217292530899954,0.15730639872385963,0.0032324910538093763
0.2746552,0.05917793952464014,0.004504488079049543,0.08025978215400777,0.00876469086550061,0.3450610385814881,0.016200233304713613,0.15638269481299744,0.0032377085921360773
0.2751207,0.05885240915462251,0.00446011672107753,0.07980009084711877,0.008762382393042098,0.3437807713221028,0.016182702588964093,0.15544980535753358,0.0032428642664404875
0.2755862,0.058525776823113926,0.004416237821949988,0.07933483395413672,0.00876054045080555,0.3424719489129513,0.01616470965895614,0.15450795578779955,0.003247958835326214
0.2760517,0.05819810480788132,0.004372852883849287,0.07886413115717449,0.008759166609281893,0.3411348695544436,0.016146263888949533,0.15355737214608917,0.0032529930755725435
0.2765172,0.057869455036255506,0.004329963302912985,0.07838810282877841,0.008758262197381957,0.3397698376656506,0.016127374746223725,0.15259828102382572,0.003257967781047209
0.2769828,0.05753988906873898,0.0042875703697473466,0.07790686998656632,0.008757828301702793,0.33837716376075777,0.016108051785142533,0.15163090949920244,0.0032628837616288002
0.2774483,0.05720946808289025,0.004245675269958807,0.0774205542480706,0.008757865765909376,0.3369571643242333,0.01608830464122186,0.15065548507530482,0.003267741842139254
0.2779138,0.05687825285748983,0.004204279084702775,0.07692927778580246,0.008758375190232062,0.3355101616847661,0.016068143025203433,0.14967223561872156,0.0032725428612868537
0.2783793,0.05654630375699289,0.00416338279124929,0.07643316328255327,0.008759356931080157,0.3340364838880282,0.01604757671713772,0.14868138929864966,0.0032772876706201343
0.2788448,0.056213680716273466,0.004122987263565087,0.07593233388694848,0.008760811100771856,0.3325364645683184,0.016026615560479268,0.14768317452649846,0.003281977133493083
0.2793103,0.055880443225665107,0.0040830932729117265,0.07542691316926926,0.008762737567380776,0.33101044281914493,0.016005269456197607,0.14667781989599657,0.003286612124042001
0.2797759,0.05554665031630235,0.004043701488459503,0.07491702507755699,0.008765135954699275,0.32945876306280286,0.01598354835690702,0.1456655541238048,0.0032911935261743753
0.2802414,0.0552123605457671,0.004004812477916926,0.07440279389401504,0.0087680056423187,0.32788177491900616,0.015961462261018383,0.1446466059906375,0.003295722232570092
0.2807069,0.05487763198404385,0.003966426708175608,0.07388434419172238,0.008771345765826596,0.32627983307263125,0.01593902120691622,0.1436212042828938,0.00330019914369531
0.2811724,0.054542522199787544,0.00392854454597047,0.07336180079167312,0.00877515521712089,0.3246532971406319,0.015916235267164243,0.14258957773479963,0.0033046251668293006
0.2816379,0.05420708824690771,0.003891166258555183,0.07283528872015596,0.008779432644840997,0.3230025315381835,0.015893114542742448,0.1415519549710611,0.0033090012151045425
0.2821034,0.05387138665147265,0.0038542920143928338,0.07230493316648716,0.008784176454915702,0.3213279053441154,0.015869669157318942,0.1405085644500291,0.003313328206560349
0.282569,0.05353547339893719,0.0038179218838617973,0.07177085944111042,0.008789384811227633,0.3196297921656905,0.01584590925155942,0.13945963440737455,0.0033176070632102857
0.2830345,0.0531994039216977,0.0037820558399768215,0.07123319293407682,0.008795055636394013,0.31790857000278894,0.015821844977477285,0.13840539280027414,0.0033218387101236206
0.2835,0.05286323308697778,0.003746693759125331,0.07069205907391744,0.008801186612663369,0.3161646211115563,0.015797486492827174,0.1373460672521064,0.003326024074521053
0.2839655,0.05252701518504811,0.0037118354218189462,0.07014758328692143,0.008807775182927741,0.314398331867571,0.015772843955544694,0.13628188499765861,0.003330164084884942
0.284431,0.052190803917783475,0.003677480513460205,0.06959989095683138,0.00881481855184992,0.31261009262858924,0.015747927518235002,0.13521307282884548,0.0033342596700842685
0.2848966,0.05185465238756026,0.0036436286251244478,0.06904910738496829,0.00882231368710515,0.31080029759692207,0.015722747322712834,0.13413985704094114,0.0033383117585145654
0.2853621,0.05151861308649718,0.0036102792543568343,0.0684953577507977,0.008830257320736655,0.30896934468149906,0.01569731349459646,0.13306246337932637,0.003342321277253056
0.2858276,0.051182737886041975,0.003577431805984423,0.06793876707294806,0.008838645950624287,0.3071176353596717,0.01567163613795795,0.13198111698675347,0.00334628915122924
0.2862931,0.05084707802690654,0.0035450855929432435,0.06737946017069277,0.008847475842065551,0.30524557453880785,0.015645725330032157,0.13089604235113214,0.0033502163024111756
0.2867586,0.050511684109352514,0.0035132398371202607,0.06681756162590642,0.008856743029468175,0.3033535704177279,0.015619591115986613,0.1298074632538401,0.003354103649007696
0.2872241,0.0501766060838291,0.0034818936702101268,0.06625319574550595,0.008866443318153353,0.301442034348031,0.015593243503754628,0.12871560271856278,0.0033579521046867796
0.2876897,0.04984189324196467,0.0034510461345865617,0.06568648652438659,0.008876572286268758,0.29951138069536026,0.015566692458933804,0.1276206829606671,0.003361762577810274
0.2881552,0.049507594207913126,0.003420696184188195,0.0651175576088627,0.008887125286810288,0.2975620267006538,0.015539947899752125,0.1265229253371148,0.0033655359706851596
0.2886207,0.04917375693005616,0.003390842685418659,0.06454653226062293,0.008898097449751542,0.29559439234143015,0.015513019692103761,0.12542255029692198,0.003369273178831519
0.2890862,0.04884042867306202,0.0033614844180607055,0.06397353332120874,0.008909483684279918,0.29360890019315566,0.015485917644656687,0.12431977733217153,0.00337297509026733
0.2895517,0.04850765601030146,0.003332620076204086,0.06339868317702545,0.008921278681138225,0.2916059752907422,0.015458651504034228,0.12321482492958605,0.0033766425848102094
0.2900172,0.0481754848166211,0.0033042482691869077,0.06282210372489426,0.008933476915070616,0.28958604499022494,0.01543123095007245,0.12210791052266985,0.0033802765333961807
0.2904828,0.04784396026147438,0.00327636752255015,0.06224391633815378,0.008946072647371631,0.28754953883066753,0.015403665591155363,0.12099925044442898,0.0033838777974155377
0.2909483,0.047513126802409975,0.0032489762790050007,0.06166424183331886,0.008959059928537101,0.2854968883963435,0.01537596495962974,0.1198890598806791,0.0033874472280658544
0.2914138,0.04718302817891784,0.0032220728994126523,0.061083200437304586,0.008972432601015582,0.28342852717923966,0.015348138507301299,0.11877755282395125,0.003390985665722207
0.2918793,0.04685370740663267,0.003195655663776159,0.06050091175522266,0.00898618430205898,0.28134489044192773,0.015320195601013985,0.11766494202800565,0.0033944939393246816
0.2923448,0.04652520677189443,0.003169722772243956,0.059917494738756974,0.009000308466671004,0.27924641508084724,0.015292145518313996,0.11655143896296358,0.0033979728657832623
0.2928103,0.04619756782666562,0.003144272346124595,0.05933306765512485,0.009014798330652015,0.27713353949004105,0.015263997443200256,0.11543725377106713,0.003401423249400194
0.2932759,0.04587083138380454,0.0031193024289122486,0.05874774805662985,0.009029646933738842,0.2750067034253825,0.015235760461962981,0.11432259522307614,0.0034048458813099097
0.2937414,0.045545037512693516,0.0030948109873225075,0.05816165275081152,0.00904484712283811,0.27286634786933256,0.015207443559112074,0.11320767067531107,0.0034082415389366082
0.2942069,0.045220225535221224,0.0030707959123380075,0.05757489777119709,0.00906039155535162,0.2707129148962621,0.01517905561339699,0.1120926860273499,0.003411610985469533
0.2946724,0.044896434022117834,0.003047255020263408,0.056987598348659615,0.00907627270259233,0.268546847538375,0.015150605393919742,0.11097784568038635,0.0034149549693560004
0.2951379,0.04457370078964177,0.003024186053789266,0.05639986888338675,0.009092482853289516,0.26636858965226445,0.015122101556342636,0.10986335249625634,0.003418274223812201
0.2956034,0.044252062896616304,0.003001586683064358,0.055811822917463935,0.00910901411718171,0.2641785857861374,0.015093552639192218,0.10874940775713857,0.003421569466351777
0.296069,0.04393155664181431,0.002979454506776017,0.05522357310807545,0.009125858428696034,0.26197728104773815,0.015064967060260842,0.10763621112593459,0.003424841398332154
0.2965345,0.04361221756168907,0.0029577870532380562,0.05463523120132668,0.009143007550712548,0.2597651209730036,0.015036353113107194,0.10652396060733269,0.0034280907045186044
0.297,0.04329408042844869,0.002936581781485863,0.05404690800669039,0.009160453078412269,0.2575425513954821,0.015007718963656992,0.10541285250955942,0.0034313180526659645
0.2974655,0.042977179248471366,0.0029158360823782247,0.05345871337207948,0.009178186443207415,0.2553100183165473,0.014979072646905052,0.10430308140682255,0.0034345240931179357
0.297931,0.04266154726105874,0.0028955472797054464,0.05287075615954855,0.009196198916752496,0.2530679677764385,0.014950422063719809,0.10319484010244831,0.00343770945842387
0.2983966,0.042347216937523975,0.002875712631303331,0.052283144221625895,0.00921448161503475,0.2508168457261596,0.01492177497775128,0.10208831959271611,0.003440874762972926
0.2988621,0.04203421998061115,0.0028563293301725706,0.051695984378277576,0.009233025502542458,0.24855709790027034,0.014893139012443348,0.10098370903139345,0.0034440206026454486
0.2993276,0.04172258732424202,0.0028373945056030993,0.05110938239450455,0.009251821396509555,0.246289169690601,0.014864521648151245,0.09988119569497426,0.00344714755448143
0.2997931,0.04141234913358605,0.0028189052243029794,0.05052344295857362,0.009270859971235024,0.24401350602092464,0.014835930219364978,0.09878096494862404,0.003450256176365883
0.3002586,0.04110353480544933,0.0028008584915314074,0.04993826966088266,0.009290131762475439,0.2417305512226209,0.014807371912039402,0.09768320021283537,0.003453347006730965
0.3007241,0.0407961729689777,0.002783251252235441,0.04935396497346027,0.009309627171909151,0.2394407489113653,0.014778853761031557,0.09658808293079868,0.0034564205642746786
0.3011897,0.04049029148666948,0.002766080392190076,0.04877063023009975,0.009329336471670625,0.23714454186487882,0.014750382647645794,0.09549579253649344,0.0034594773476959726
0.3016552,0.040185917455692756,0.0027493427391413355,0.048188365607127116,0.009349249808953469,0.23484237190177354,0.014721965297287183,0.09440650642350586,0.0034625178354460735
0.3021207,0.0398830772095026,0.0027330350639520507,0.04760727010480275,0.00936935721068079,0.23253467976152922,0.01469360827722357,0.09332039991457917,0.003465542485495875
0.3025862,0.03958179631975341,0.002717154081750066,0.04702744152935586,0.009389648588241567,0.2302219049856375,0.014665317994456653,0.09223764623190377,0.0034685517351192388
0.3030517,0.0392820995985015,0.0027016964530786215,0.046448976475650904,0.009410113742291715,0.22790448579994896,0.014637100693702313,0.09115841646815363,0.0034715460006920443
0.3035172,0.03898401110069315,0.002686658785048703,0.04587197031048479,0.009430742367618594,0.22558285899825936,0.014608962455480552,0.09008287955827632,0.0034745256775068536
0.3039828,0.0386875541269331,0.0026720376324931945,0.045296517156513345,0.009451524058067578,0.22325745982716996,0.014580909194315185,0.08901120225204265,0.003477491139603059
0.3044483,0.03839275122652845,0.0026578294991227137,0.044722709876805496,0.009472448311529326,0.22092872187225784,0.014552946657043353,0.08794354908736263,0.0034804427396123885
0.3049138,0.03809962420080267,0.0026440308386830647,0.04415064006002288,0.009493504534986302,0.21859707694559077,0.014525080421234886,0.08688008236437308,0.003483380808619646
0.3053793,0.03780819410667457,0.0026306380561142992,0.043580398006222765,0.009514682049616988,0.21626295497462103,0.014497315893721436,0.08582096212030274,0.0034863056560385636
0.3058448,0.037518481260496735,0.002617647508711413,0.04301207271328138,0.009535970095956256,0.2139267838924914,0.014469658309235163,0.08476634610511966,0.00348921756950264
0.3063103,0.03723050524214814,0.002605055507286728,0.042445751863934775,0.009557357839110204,0.21158898952978603,0.014442112729156745,0.08371638975796593,0.003492116814770837
0.3067759,0.03694428489937528,0.0025928583173340145,0.041881521813434026,0.009578834374023725,0.20924999550775783,0.014414684040372355,0.08267124618438447,0.0034950036356480216
0.3072414,0.036659838352376156,0.0025810521601944184,0.041319467577811,0.009600388730799063,0.20691022313306387,0.014387376954239237,0.08163106613434218,0.003497878253920058
0.3077069,0.03637718299862122,0.002569633214224228,0.04075967282275098,0.00962200988006345,0.20457009129403791,0.01436019600565943,0.08059599798105357,0.003500740869303472
0.3081724,0.03609633551790551,0.002558597615964526,0.04020221985306809,0.009643686738383901,0.2022300163585287,0.014333145552261038,0.07956618770060883,0.003503591659409613
0.3086379,0.035817311877626025,0.002547941461312744,0.03964718960277927,0.009665408173727224,0.19989041207333214,0.014306229773686467,0.07854177885240958,0.003506430779723248
0.3091034,0.03554012733827861,0.002537660806696127,0.039094661625772326,0.0096871630109632,0.1975516894652436,0.014279452670986924,0.07752291256041566,0.003509258363595512
0.309569,0.03526479645916857,0.0025277516702471,0.03854471408706338,0.009708940037408909,0.19521425674375528,0.014252818066122361,0.07650972749520546,0.003512074522251123
0.3100345,0.03499133310432931,0.0025182100329804993,0.03799742375463878,0.009730728008412157,0.19287851920542393,0.014226329601566109,0.07550235985685169,0.003514879344809744
0.3105,0.0347197504486432,0.0025090318399726415,0.037452865991876444,0.009752515652971932,0.1905448791399305,0.014199990740013347,0.07450094335861421,0.0035176728983213816
0.3109655,0.03445006098415883,0.002500213001542154,0.036911114750541166,0.009774291679393804,0.18821373573785485,0.014173804764192664,0.07350560921145069,0.0035204552278156748
0.311431,0.03418227652659845,0.002491749394432504,0.036372242564348324,0.009796044780978187,0.18588548500018545,0.014147774776779977,0.07251648610934562,0.0035232263563649262
0.3118966,0.033916408222049305,0.0024836368629961403,0.03583632054309008,0.009817763641739235,0.18356051964958345,0.014121903700414166,0.07153370021545728,0.003525986285160705
0.3123621,0.03365246655383221,0.0024758712203801305,0.03530341836731799,0.009839436942152226,0.1812392290434186,0.014096194277813801,0.07055737514908209,0.0035287349936038224
0.3128276,0.0333904613495406,0.002468448249713184,0.03477360428357578,0.009861053364927132,0.1789219990885939,0.014070649071994375,0.06958763197343529,0.0035314724394074825
0.3132931,0.0331304017882431,0.002461363705293917,0.03424694510017558,0.009882601600806068,0.1766092121581727,0.014045270466585375,0.06862458918424649,0.003534198558713372
0.3137586,0.03287229640784267,0.002454613313780214,0.03372350618351117,0.009904070354382264,0.17430124700982166,0.014020060666246495,0.06766836269916797,0.0035369132662204624
0.3142241,0.03261615311258546,0.002448192775379529,0.03320335145490136,0.009925448349938113,0.17199847870608112,0.013995021697182272,0.06671906584799348,0.0035396164553262795
0.3146897,0.032361979180712645,0.0024420977650399414,0.032686543387956485,0.00994672433729981,0.16970127853647235,0.01397015540775428,0.06577680936368435,0.003542307998280404
0.3151552,0.03210978127224889,0.0024363239336417817,0.03217314300646122,0.009967887097706088,0.1674100139414502,0.013945463469189966,0.06484170137419942,0.0035449877463499444
0.3156207,0.03185956543692084,0.002430866909189604,0.03166320988276651,0.00998892544968852,0.16512504843820747,0.013920947376387112,0.0639138473951247,0.003547655529996723
0.3160862,0.03161133712219982,0.002425722298004308,0.03115680213668373,0.010009828254960851,0.16284674154833675,0.013896608448812848,0.0629933503230984,0.0035503111590658902
0.3165517,0.03136510118146284,0.0024208856859151717,0.03065397643487399,0.010030584424314834,0.16057544872735324,0.013872447831495953,0.06208031043002643,0.0035529544229856913
0.3170172,0.031120861882266215,0.002416352639451585,0.030154787990725608,0.010051182923520013,0.1583115212960809,0.013848466496111225,0.06117482535808362,0.0035555850909780662
0.3174828,0.03087862291472666,0.0024121187070342623,0.02965929056471282,0.01007161277922493,0.15605530637390344,0.01382466524215453,0.06027699011549496,0.0035582029122797716
0.3179483,0.030638387400004505,0.0024081794201657376,0.0291675364652289,0.010091863084857109,0.15380714681387964,0.013801044698207098,0.059386897073091596,0.003560807616373686
0.3184138,0.030400157898884127,0.0024045302946199623,0.028679576549886867,0.010111923006519205,0.15156738113972199,0.013777605323287482,0.058504635961635604,0.0035633989132299562
0.3188793,0.030163936420446517,0.002401166831630845,0.0281954602272809,0.010131781788878589,0.14933634348463662,0.013754347408289538,0.05763029386990776,0.003565976493556631
0.3193448,0.029929724430828898,0.002398084519079598,0.027715235459201713,0.010151428761047585,0.14711436353202093,0.013731271077504706,0.0567639552435523,0.0035685400290594344
0.3198103,0.02969752286206613,0.002395278832680759,0.027238948763298958,0.010170853342451564,0.14490176645801517,0.013708376290226754,0.0559057018846723,0.0035710891727103156
0.3202759,0.029467332121008355,0.002392745237166779,0.02676664521618377,0.010190045048681973,0.14269887287590347,0.013685662842437116,0.05505561295216955,0.0035736235590244315
0.3207414,0.02923915209830918,0.002390479187471066,0.02629836845696452,0.010208993497331377,0.14050599878235906,0.013663130368568942,0.05421376496282187,0.003576142804345202
0.3212069,0.029012982177478604,0.002388476129909385,0.025834160691208762,0.010227688413807496,0.13832345550552855,0.01364077834334793,0.053380231793090975,0.0035786465071371014
