Time,Rectus Femoris right,Rectus Femoris left,Hamstrings right,Hamstrings left,TibilaisÂ Anterior right,TibilaisÂ Anterior left,Gastrocnemius right,Gastrocnemius left
0.0,0.0112184435241792,0.007235804317213867,-0.028808866200131983,0.01872493258854935,-0.038659896718084535,0.0008462533153405509,0.019554980429942418,-0.017750853127055165
0.0005192,0.012021488249001844,0.008879201238764083,-0.021728370450536046,0.029714579724006034,-0.031448824710460434,0.009128054234771458,0.017482125114997485,-0.029894538423543924
0.0010385,0.01468707263485224,0.005738004591022361,-0.019825051714163655,0.03729773695938793,-0.02540952035117538,0.017147762192552547,0.014466194560918112,-0.04276994010916891
0.0015577,0.015245282220734162,0.0031642500925149696,-0.02407286058271227,0.04026517817694816,-0.022949818814067966,0.016308278975451618,0.013086042426271597,-0.04601342098039459
0.0020769,0.015387113321305563,-0.0018772142609279608,-0.025796631443443224,0.04198355429562881,-0.016311219582931313,-0.003355165634969475,0.0058976995815488535,-0.048068462886886446
0.0025962,0.014859346314099993,-0.005660136859000073,-0.023170248102292686,0.04023262419869995,-0.010543043522296331,-0.01236962419869995,-0.005144987900650025,-0.04226090859904256
0.0031154,0.014944428637854673,-0.008277631269148787,-0.020680771827128037,0.04044282027898963,0.0007861783806195875,-0.006925951548138411,-0.01794214055797925,-0.033781851548138404
0.0036346,0.01658121972252495,-0.00887208060670873,-0.017719877573165083,0.039320553408572136,0.009368071722572743,0.0001563057378536125,-0.027004232606756523,-0.02358614019510689
0.0041538,0.016906736375657292,-0.009764909126971874,-0.01588638174605625,0.03536665206779482,0.004643581613826039,-0.0032847115565478938,-0.026033054497370835,-0.017972770189508356
0.0046731,0.015145032181176922,-0.0095674,-0.014525491323870788,0.02858507015587386,-0.000812561479744646,-0.015532835637646155,-0.019082940857306135,-0.021911676280361527
0.0051923,0.014183916552044441,-0.009016040732458337,-0.016345134740611254,0.019042912263465203,0.007148869870469448,-0.019403192025114032,-0.01510756459037077,-0.030647769870469445
0.0057115,0.01265091908110178,-0.010426496137890021,-0.017669450240801295,0.0011551038621099784,0.018219239376187267,-0.00832924033939245,-0.0076617082164877545,-0.035980130678096925
0.0062308,0.014623539113238384,-0.011162105763043965,-0.01991094071610774,-0.012700637175362644,0.015889837175362645,0.0010916329753944312,0.009456201563075752,-0.03147211728913189
0.00675,0.016106957782003717,-0.012073824686662536,-0.027287729874665014,-0.014902764937332507,0.002741167054020455,-0.0004813594670226195,0.016232380501339943,-0.023420587656668733
0.0072692,0.017717198811178326,-0.0129244,-0.03731910356646502,-0.007812288111783269,-0.009195204755286693,-0.0082246,0.00259029338511619,-0.021317794208620847
0.0077885,0.018851788762740754,-0.012620223943071813,-0.04342453943595579,-0.000739225322651524,-0.008896,-0.02000255848071865,-0.013926634476585209,-0.027775084507116025
0.0083077,0.0170564564086646,-0.014878348489850516,-0.04635111842219392,0.006075277880941194,-0.000657508595379996,-0.02842389630313512,-0.023786287677971422,-0.037404853883666246
0.0088269,0.017993519871104466,-0.015548361900499174,-0.0423367261410532,0.01186126688149256,0.0016445841116584973,-0.030089331122046592,-0.02350981060646445,-0.045302488395305124
0.0093462,0.018923693524492684,-0.013330548145276979,-0.03317471581840486,0.009502589916375578,-0.004456038853043913,-0.021024649654968794,-0.018793774097970724,-0.044945619426521956
0.0098654,0.018658576289375242,-0.010679454768554513,-0.02972819176187815,0.004995596919379117,-0.006046742263748546,-0.017180410258539964,-0.01773330515750097,-0.045740971131874274
0.0103846,0.018478000594306418,-0.006575310505586754,-0.029680107507393305,-0.008954339021311567,-0.0028388174186736426,-0.014639347448246864,-0.018543722522179916,-0.0424513087226675
0.0109038,0.01943649034279985,-0.003764806295724229,-0.030342694769209987,-0.030359838318170917,0.0005600186266183525,-0.010325332710228634,-0.015894446793838918,-0.03085019034279985
0.0114231,0.0195324828947226,-0.004866138716387918,-0.02622696048135453,-0.05008245040112878,-0.0006511969448258905,-0.010309769682394688,-0.006767682971650648,-0.026121830240677265
0.0119423,0.01824552869233741,-0.004808184843520492,-0.02200699949806213,-0.06398382225255687,-0.008128622869302736,-0.014999040377957712,-0.00032625615118308463,-0.03364172286930273
0.0124615,0.016833374440949,-0.0044230796788267464,-0.019952977810306312,-0.0718150332957869,-0.014034155117797036,-0.017566663094694363,-0.0013533052378777455,-0.03954725511779704
0.0129808,0.0159864007079653,-0.00704452502218025,-0.018377001415930592,-0.08168646829650993,-0.021245592920347025,-0.015752452477878542,-0.012863187256624643,-0.0417130985840694
0.0135,0.017383950394041867,-0.011100733220588825,-0.021172100788083736,-0.0835405681979619,-0.024241365022626922,-0.012445849133107891,-0.027978218253770244,-0.03604149842383253
0.0140192,0.020219812738245063,-0.01335008726175494,-0.03071671490739044,-0.07172430433022538,-0.023421001900583552,-0.009943944714105929,-0.04859073388182135,-0.028431608399954303
0.0145385,0.021461261942038026,-0.012108638057961975,-0.035806619662029956,-0.06266176212344837,-0.02217962665861387,-0.00845420566955437,-0.05579113926382054,-0.021976146502054164
0.0150577,0.020044560374519186,-0.011157486791506395,-0.04354988619398014,-0.06068843902795455,-0.017105238984561823,-0.0021230578610042634,-0.05798167328424966,-0.00582665500533348
0.0155769,0.01745872163688897,-0.010295540545629657,-0.04757221642111439,-0.06815855423859576,-0.008773091941086684,-0.0015484270304197713,-0.05869991902900168,0.006096891935816139
0.0160962,0.015976931888182576,-0.009655900132207441,-0.04375678774402042,-0.07637367983896724,-0.0013755699627215948,-0.00908829828130327,-0.06384761725246905,0.01679109775247351
0.0166154,0.015282719401257194,-0.00853083209559982,-0.03153827442634847,-0.07591782838239927,-0.00425513580880036,-0.018492867904400183,-0.06593322661828216,0.027367819401257192
0.0171346,0.016094878552481675,-0.006135810723759162,-0.01546101447518326,-0.06581562907086469,-0.008821410723759162,-0.02098112031678494,-0.06230951909208418,0.026688204137178824
0.0176538,0.017184113600353674,-0.005591193199823161,-0.004568663996463231,-0.05982491742426869,-0.008276793199823163,-0.022206469187290932,-0.05400414241041016,0.016885169823030816
0.0181731,0.0172885,-0.004700149155402553,-0.0008171149430804633,-0.06107537656875741,-0.007175637288850638,-0.02773536608953915,-0.027221680635244983,-0.008177947424020008
0.0186923,0.017467255394010492,-0.005178287394597065,-0.006788139901013787,-0.0641729636579141,-0.006278507201283769,-0.031881511878450154,-8.991798930475559e-05,-0.022792685960908853
0.0192115,0.017700186609092325,-0.003903778385458234,-0.00394696180114347,-0.05639633527954262,-0.013430989131145163,-0.03474277055908522,0.03504469761499375,-0.026956154111817045
0.0197308,0.01864557981293324,-0.004953287385928901,-0.00017494670760578488,-0.040487309169582084,-0.027561808510777264,-0.030975933434729864,0.05086324538999614,-0.0315521252281422
0.02025,0.019267924880119993,-0.006777474640359977,-0.00015041761955357377,-0.024837002877120182,-0.04138253492257984,-0.023412601438560093,0.047709950719280046,-0.03840806124125992
0.0207692,0.019880973596004662,-0.007460073596004661,-0.0036374415760279622,-0.019954570957487185,-0.03779314802996505,-0.015477829381459226,0.05415144635405359,-0.04267650370827155
0.0212885,0.0199492836605387,-0.007366353695482309,-0.005292476268073347,-0.022029324130123106,-0.017536589492470514,-0.0029325167391584884,0.0799706342379554,-0.041146728805720775
0.0218077,0.020592888594935386,-0.007526894297467693,-0.0035805945534872975,-0.0363518661961754,-0.005840910993695371,0.00565171394997618,0.08855924032909539,-0.04655369404144809
0.0223269,0.020921381975204382,-0.010409701369565004,-0.00048640986304349955,-0.05442648438260801,0.014558945317798309,0.008007317969157702,0.08094791117697059,-0.055945070410869505
0.0228462,0.019833462043688525,-0.0135179117611384,-0.00017558882388616,-0.06437275763564287,0.038181251704825774,-0.008155283478093613,0.06649477915061948,-0.05687753352834152
0.0233654,0.018152564578584454,-0.013896469127969017,-0.0013704765118760741,-0.06702726345892404,0.04087788389578313,-0.03652243933629061,0.04854350079622647,-0.05419487784827883
0.0238846,0.018746738263526783,-0.013532831969236948,-0.005245408184578314,-0.05732004563714991,0.031618423784658636,-0.06276521695070215,0.027799772974431057,-0.052683595907710844
0.0244038,0.020395900128414055,-0.0125887,-0.011335064644409218,-0.03641123220057231,0.02412709855090482,-0.06455357169255727,0.01650710875407134,-0.04923025371669511
0.0249231,0.01969096810141674,-0.0125887,-0.0150009295860429,-0.018927960325568458,0.01651346305722242,-0.059618795502136473,0.014110239061704633,-0.0438725351101719
0.0254423,0.0199741,-0.012220333299702114,-0.01904866553437965,-0.004920683387984066,0.005174716637239349,-0.05058637550098302,0.019782183135749917,-0.044595200989354336
0.0259615,0.0199741,-0.011083913036500229,-0.02188963034537711,-0.002237154332125515,-0.007656569535125163,-0.034177190172251896,0.025819447754126538,-0.06103673808687317
0.0264808,0.019103553211043862,-0.01015546695489513,-0.025847566090209738,-0.007090132612762172,-0.041432933233213905,-0.004580676187210389,0.0307164,-0.08125869935148596
0.027,0.01866665187884976,-0.008990281038568934,-0.02817793792286213,-0.010003097403577665,-0.07158198865886961,0.008818875077684439,0.0307164,-0.08388036766321989
0.0275192,0.020403596786626423,-0.008896,-0.0286887445059148,-0.009272066482255608,-0.09013362930392996,0.009580855494085203,0.017504471249303214,-0.07829209889353364
0.0280385,0.02067891075653593,-0.006386652274423236,-0.026302181376931633,-0.0016498183974121327,-0.0717734147511906,-0.003764255643548868,-0.003186316461473249,-0.06791922141019253
0.0285577,0.018565576183445752,-0.0061446761834457525,-0.025031407938851415,0.010993959790883174,-0.04107198147601337,-0.013811006336317213,-0.0208387983974658,-0.06058264603057429
0.0290769,0.0186313,-0.009339902935544833,-0.024344673242538573,0.020990263527935277,-0.01687791668835404,-0.014194262771305212,-0.02981555685259366,-0.056795102879449874
0.0295962,0.020350627201045964,-0.009924262036663216,-0.029060029505681408,0.03300536421082155,0.025781266117943943,-0.022082426542578693,-0.03027480325819664,-0.051330371646636314
0.0301154,0.0185665710269219,-0.010295437851443339,-0.03564679576147879,0.03920607139212396,0.07067462433323408,-0.049903793495737904,-0.036049238288886905,-0.042449717756730475
0.0306346,0.01796740314370971,-0.011068621629131381,-0.041723220134757745,0.04839960553374623,0.07962898390461486,-0.06777631623737483,-0.04902786189864687,-0.04180200314370971
0.0311538,0.015900435071234776,-0.01270939449234699,-0.04496850869432152,0.05698948029037246,0.06262675073022889,-0.049242253346881155,-0.05398149130739757,-0.041070333045918055
0.0316731,0.015533541227859859,-0.01381762915171377,-0.04488126200355874,0.05961410505412999,0.04577794281493026,-0.02079486588462253,-0.04461901501721528,-0.033703193682337505
0.0321923,0.016243123103869495,-0.012972228771858649,-0.042809913710387816,0.059959224852146595,0.03336373698251308,0.00090493599390537,-0.027415556360890055,-0.028646043639109945
0.0327115,0.014353617288424433,-0.014017917288424431,-0.03736392101897103,0.0540291642400321,0.01626475391625198,-0.001706717784873312,-0.015995532897280954,-0.02544158644212216
0.0332308,0.015492866959406427,-0.013152885590591855,-0.03514903515148221,0.038269304715388384,-0.00783637130526568,-0.023397761365798762,-0.006740220372544939,-0.021935759254910123
0.03375,0.014153234993762066,-0.012324846658349422,-0.04091854671229991,0.022481699838148538,-0.021538634993762067,-0.022470701988428057,0.002742532503118967,-0.02329507667082529
0.0342692,0.01614962912856675,-0.011624346361326181,-0.04169971356039155,0.012056809888023672,-0.024117397905652028,0.002749672898393098,0.011241253141521959,-0.03353953280093463
0.0347885,0.018006942928589644,-0.010950524226217236,-0.04108277577378277,0.009580841408739079,-0.029783776571786106,0.024110266488389584,0.024909238258178087,-0.042103432789763195
0.0353077,0.019405193498304305,-0.011679350886233186,-0.04022415868807582,0.008778256087781933,-0.04308919391269855,0.03443114302646536,0.03445792866500185,-0.044145938711630285
0.0358269,0.01897989459223314,-0.01222720313103298,-0.04352493444136279,0.01300213131032981,-0.054332411862888216,0.02296857333624598,0.03287247893706823,-0.04099355075777141
0.0363462,0.018946532637391204,-0.012111721833014762,-0.05138232995304299,0.01937637243304431,-0.056254065871304236,-0.017489100298260913,0.01713701967820479,-0.025635866766086972
0.0368654,0.02069633687989634,-0.00879432624020732,-0.04810171253260168,0.0328217531984451,-0.03913520897514135,-0.053403703312688476,0.0070702496409847685,-0.004680040894208407
0.0373846,0.021131432487517796,-0.007479012995007119,-0.04243252345256763,0.04264949798535157,-0.017984027708643623,-0.06113889522112583,0.0007297890196413116,0.010644970049928811
0.0379038,0.019751603148378635,-0.006927081259351455,-0.037189171963838814,0.046512937928844166,-0.010670973314254598,-0.055205670165875964,-0.002581719188195616,0.016164287406485456
0.0384231,0.01847348290712263,-0.006131538509747277,-0.031763631628490524,0.041814264767458066,-0.012964230581703333,-0.06098859430237421,-0.008618998096427903,0.015273998953212808
0.0389423,0.0182956,-0.00557659262493731,-0.02670312966378152,0.03014551858131121,-0.01491845926964919,-0.08174213693096702,-0.01730835919583432,0.01374615557019208
0.0394615,0.017394772370031543,-0.005549630402697823,-0.022094566038642204,0.018253091051987382,-0.019562118940787306,-0.09340261685126316,-0.0270237,0.008328388020426554
0.0399808,0.01874226557315769,-0.005684419862813927,-0.023441978962161374,0.017714093770736922,-0.027108000598686743,-0.08801272431836557,-0.0270237,-0.0031252640663422
0.0405,0.020660398929069616,-0.004837802141860766,-0.028962929039634433,0.02738127429767081,-0.030568363339338798,-0.07342554727538306,-0.020190608567443064,-0.02563525502092391
0.0410192,0.02108218257133666,-0.004216403734184253,-0.03512224439144156,0.03584801326829913,-0.010460290487602927,-0.059906877602048145,-0.018169532358246684,-0.040037982975798816
0.0415385,0.021756624766144133,-0.004619197135886155,-0.03905787981291531,0.04106339355009361,0.007055756975461547,-0.05419793127389394,-0.021728807832934346,-0.04644725239640211
0.0420577,0.024723759563399943,-0.004146240436600055,-0.04297092333239828,0.05130250093109797,0.01302736579159645,-0.04414916206720455,-0.028403973393101297,-0.04630533202540327
0.0425769,0.025229575886241164,-0.0034477172574941093,-0.047628096455035344,0.05930051371252945,0.024817916790164932,-0.020979987834467348,-0.028503951232648515,-0.03870114160491753
0.0430962,0.02438786007872438,-0.0028865733858162513,-0.050994959685102495,0.06210623307091874,0.04052994519714496,-0.0038651833264683804,-0.02583847605309084,-0.03084512740142752
0.0436154,0.023171520080751684,-0.0021653548801648303,-0.05346067440082415,0.06301008047934067,0.050175855045089854,0.019019582546194024,-0.02323113423932078,-0.02612623960141101
0.0441346,0.02332063166426157,-0.001867042850461209,-0.05196911425230605,0.06420332859815517,0.037945150689925225,0.050043855910002946,-0.021441350923782906,-0.025082103066106406
0.0446538,0.024893283548874594,-0.003690776683141926,-0.04520410680968024,0.06684013402734111,0.013316330238643162,0.0795310685241617,-0.020279468468109282,-0.022355254792696372
0.0451731,0.025653219317471884,-0.004401546211647923,-0.043555949693779294,0.07276577450592354,-0.01073530275565009,0.06429032481214424,-0.024322501400099582,-0.018186882029764713
0.0456923,0.026977223923089568,-0.003892903174841269,-0.044047098307791924,0.07274235794059948,-0.027543451587420633,0.020014465985986395,-0.02021963084266864,-0.020373668241098396
0.0462115,0.026859004140340682,-0.003937262556345843,-0.04391402110713499,0.06346173519367004,-0.03338416066598928,-0.013747710215762345,-0.00014154252917311985,-0.022686851755032763
0.0467308,0.025132474165161726,-0.0037679204128100345,-0.04273940593804078,0.039110309432386206,-0.032935075868930117,-0.03107066197835708,0.02325784826213978,-0.014848839277582439
0.04725,0.0246493337205595,-0.002914569342670276,-0.038192837205595,0.006496366987430281,-0.031772432558881,-0.029957952625482554,0.03314510770994378,-0.0027174200666015536
0.0477692,0.02430490815470408,-0.004091002143551081,-0.03401836095053045,-0.017358665237632614,-0.031100427920812367,-0.020774475946789547,0.030723587111369355,0.006806388424518415
0.0482885,0.025015540743412962,-0.0033461593287370155,-0.03260978513174075,-0.03169587611461412,-0.036150587265808554,0.0036671980102321623,0.020420213837300333,0.005977392638020357
0.0488077,0.025884714929523416,-0.0032226781973344375,-0.03111328201284679,-0.03359974840501861,-0.0296421514626484,0.026963744788570245,0.011038438407515661,-0.010701603748781355
0.0493269,0.024450989449437615,-0.004314393058464876,-0.030954248429698707,-0.03330562531672598,-0.009812028925753233,0.033793406281205175,0.006043295730642788,-0.025628626679692935
0.0498462,0.02450280936449714,-0.0047439329519030505,-0.02658651923060884,-0.04819266475973406,0.006923394639973813,0.01352309949838544,0.007396445176799104,-0.032566447033968896
0.0503654,0.022675387072726462,-0.009301701298544957,-0.024533308526276745,-0.0757704901751783,-0.0027831612381891977,-0.017397431278371987,0.008154598701455044,-0.02860853901751783
0.0508846,0.02201487959947481,-0.009958677501441514,-0.022827234845294416,-0.10373017950259474,-0.005819569496828666,-0.032060540994810545,0.007160589848177449,-0.018114857198532775
0.0514038,0.02324351701865609,-0.008877981561581254,-0.02520635136779203,-0.11517784721244531,0.021791448632207968,-0.02706080766367823,0.0027079142830720286,-0.001708428670085312
0.0519231,0.022408647141394556,-0.006679627966579519,-0.02820676048746732,-0.10838172499881422,0.018233834214219095,-0.018878798943885704,-0.004088671502991787,0.008993973726751776
0.0524423,0.019112145221840175,-0.006952978357169849,-0.027177254818147464,-0.09228595766243582,-0.018197186551326783,-0.021493435111497188,-0.00854011923260222,0.006309584635140732
0.0529615,0.01692532497253295,-0.008413993265229689,-0.02558932566798362,-0.08076594122983757,-0.04727527700196376,-0.029196489196432553,-0.010604885131609622,-0.0018160764223426036
0.0534808,0.018187592592558834,-0.00916601851860291,-0.024739489524844175,-0.08784681171908892,-0.06283109936444979,-0.03919354380864107,-0.007709745688124373,-0.010589824074183784
0.054,0.019152595559374538,-0.010181535886751183,-0.0250095,-0.09918669750386691,-0.07440551348169752,-0.043008142983330874,-0.004846652576043663,-0.017666094847912674
0.0545192,0.018165790210367336,-0.01164650489481633,-0.02377524253524067,-0.1018424380557427,-0.08619395594665302,-0.04571426713185716,4.313607460416268e-05,-0.02157750337671002
0.0550385,0.017122472643839676,-0.012119689390050132,-0.02189498227077978,-0.09124634637183852,-0.08044463261056056,-0.04754613983098031,0.0015657830514907336,-0.014918006338559399
0.0555577,0.017283306060642246,-0.012418203803919477,-0.022313513668481205,-0.06733537420784604,-0.07362966892259334,-0.0577521818192674,-0.00046454622841520367,-0.0030351878775213745
0.0560769,0.01935814040597985,-0.012142119188040297,-0.02434734006766331,-0.04487881938017125,-0.088681321940518,-0.06782800135326618,-0.004781381826909333,0.004162300045945362
0.0565962,0.021299440845641306,-0.010106841619790767,-0.025100705200828594,-0.03766126225095655,-0.0992804437240215,-0.0714834001853106,-0.008833915602485786,0.002545897492241005
0.0571154,0.021156473914697122,-0.008545452170605757,-0.024647062319116186,-0.03603705760369523,-0.08508474420585126,-0.07382244638232374,-0.012873882616137047,-0.007826500729401987
0.0576346,0.018960344989850265,-0.007666414886561669,-0.025176873072046576,-0.03921921756722132,-0.0381598093607321,-0.07687542692795342,-0.014234387628824565,-0.02889529698955667
0.0581538,0.020114654190421858,-0.007874480393052122,-0.0236667,-0.04273410610436723,0.016209290002183713,-0.061661477199503635,-0.005354224728684811,-0.04523021473086852
0.0586731,0.020432740216833008,-0.008519674100029845,-0.023093658033343283,-0.042040395083358204,0.03204209376659703,-0.04467248218348972,0.002468520983328359,-0.04865593705001492
0.0591923,0.021081745352830954,-0.010085068550142825,-0.0236667,-0.043424956059776164,0.02726214847500106,-0.04591103658023237,0.0016919838657237208,-0.049236864609277335
0.0597115,0.021652550306274176,-0.011805386001452993,-0.02269690116654558,-0.05820634695145149,0.03213380233309117,-0.040470316331638174,-0.0016597947798204326,-0.05641592464227133
0.0602308,0.022222066431476,-0.0122059238149065,-0.021134412119904793,-0.10062050724309604,0.037562325210501686,-0.02690354108453956,-0.006647117686736728,-0.06614636434585762
0.06075,0.023224188020803796,-0.012359811979196203,-0.020959829967460625,-0.1478992941917305,0.03487910070969712,-0.025717508639283654,-0.0062104,-0.06864419402987203
0.0612692,0.02452619385589345,-0.0109102,-0.021773787204318863,-0.202304487059565,0.02761141888529761,-0.06999653299550244,-0.0009373117262549817,-0.0681126012686701
0.0617885,0.024672104734470714,-0.0109102,-0.022649426386245584,-0.217191831391256,0.019729970606104534,-0.11246903325960077,0.005630590824816439,-0.06665305770673961
0.0623077,0.022831472521646388,-0.011677790715834748,-0.024194872898628008,-0.20293323475289674,0.006435053071799129,-0.12555173776874967,0.012001473150895578,-0.0638727002494281
0.0628269,0.02147599876240607,-0.0109102,-0.026117839978777774,-0.16420265760347294,-0.013718292382167417,-0.08899659993282692,0.015695992449340505,-0.05842716753342792
0.0633462,0.020135682026404318,-0.008974129236290332,-0.02784692390094403,-0.11409862465864315,-0.03495916085071618,-0.05678064983290321,0.017360316610967732,-0.04481737279472481
0.0638654,0.0199741,-0.009465883859532589,-0.025729883426318732,-0.07880489888417519,-0.04884540446329923,-0.045380659291260915,0.008567483984231138,-0.03963463959291428
0.0643846,0.020951409159372273,-0.01088240934764602,-0.025299513644921532,-0.053760436637489084,-0.042267259065235395,-0.03780977255752409,-0.006784522916251131,-0.03505270934764602
0.0649038,0.021562518228890545,-0.012778563747881284,-0.025452659975809405,-0.03443980285023126,-0.03823996282604066,0.003077581892062429,-0.01869834777399673,-0.04170239144930622
0.0654231,0.0213169,-0.011926062516836538,-0.02516111035887997,-0.012634722410280005,-0.04869117852059301,0.07239179319538612,-0.017025908666359914,-0.046125415157496436
0.0659423,0.022632351126948197,-0.012782474373748411,-0.026062017193545495,0.008741205854312642,-0.06946324597016129,0.16241314359434617,-0.010311466066597292,-0.04631996483835993
0.0664615,0.022612306989945888,-0.011226909468533714,-0.028508379030162328,0.032019712966400916,-0.09372846505027055,0.2385610930100541,-0.00305653291695921,-0.030656652083869636
0.0669808,0.02233217893160235,-0.009150827548739832,-0.029290810683976504,0.04819461207165976,-0.09454958259599347,0.23696191099317332,0.0015482609284850914,-0.01572095533716752
0.0675,0.022043489918832114,-0.0074796061340538615,-0.03117400109346992,0.06551351645205931,-0.06234951503696465,0.15244606944814948,0.007374030991894065,-0.00015860350707047803
0.0680192,0.02156472003706703,-0.005099600185335149,-0.030637313830402697,0.07887421401573784,-0.022380153348531308,0.06040377486827954,0.006678840722807085,0.001362973292930764
0.0685385,0.022296670483485055,-0.002918451783739524,-0.031331770915655366,0.08654076389701985,0.020836886681607606,0.028593056099236597,0.0033827723825520088,-0.0052354551497031205
0.0690577,0.023209180751086703,-0.0028534,-0.031918422411154404,0.0913559807510867,0.06303006705298311,0.02162551175917581,0.007401593972113993,-0.010130510355382389
0.0695769,0.018247936676462927,-0.005815930902099101,-0.024135150745610387,0.08926580399758155,0.09726839723619583,0.0022814771318700163,0.020581489434923134,-0.01325895352347361
0.0700962,0.02270328772847796,-0.00685309871488931,-0.023563240470213517,0.08975561227152204,0.08457076975433103,-0.022390544564168512,0.03252934305990403,-0.017143634986742408
0.0706154,0.020090995520608,-0.005811444225248313,-0.021671732057790747,0.09116797960831217,0.04337136878735104,-0.045569865578677475,0.023197707688065564,-0.016724745915531882
0.0711346,0.021235253559188188,-0.0027729779711780935,-0.02059701262399585,0.0781291056023378,0.011894149922017497,-0.042648324090707325,0.004960817487050167,-0.013149825569274277
0.0716538,0.0206455,-0.0025592308700917565,-0.01966608724672784,0.06228939666262987,0.012792897187384866,-0.023979932764732974,-0.011349725113325406,-0.005106394636452568
0.0721731,0.020672120812863425,-0.0035248,-0.020363041625726847,0.05504642487718054,0.024919274924126492,0.005404499216137306,-0.013337674924126495,-0.0027735375614097286
0.0726923,0.0209812,-0.0035224749848101083,-0.02096259433613238,0.056928808495801425,0.019690365011605954,0.023331,-0.008336683008397149,-0.0018649056638676176
0.0732115,0.020888628366403258,-0.0032489951648533694,-0.01954582836640326,0.05888424278880108,-0.0011515014351771943,0.023732143745585882,-0.0037315317663726946,-0.0020473923775410447
0.0737308,0.021289385490744446,-0.0028946758619633507,-0.018405658037022214,0.06261332588893335,-0.013293151963974546,0.023947370981488893,-0.0048263323341966894,-0.004113656472233339
0.07425,0.020924636824030004,-0.002182,-0.018948145608010003,0.06396577533617004,-0.017692259456320063,0.03213093851214002,-0.004294433380435476,-0.001224110680770932
0.0747692,0.020000261746342868,-0.002212523336265384,-0.018657461746342866,0.05858812058211429,-0.007370067775599933,0.027581732432514244,0.0023389293655224504,0.008909041059502057
0.0752885,0.0199741,-0.003237029953512774,-0.02042482903290766,0.04144480309252882,0.00589387198140511,0.011428417329692698,0.00986475603718978,0.015341592260328463
0.0758077,0.019670502671900618,-0.004918199554683231,-0.02461639755075777,0.016761519559977355,0.006052758110050794,-0.005709295546832308,0.00800370489848446,0.006387498441391307
0.0763269,0.019706455597975486,-0.0068818,-0.028653588858588937,-0.0017928291925008966,-0.001749080613284006,-0.02754412233736204,0.00121378891312885,-0.010314337383265915
0.0768462,0.018585229426933844,-0.00879567164172005,-0.029215941151274363,-0.020837873773885785,-0.008746624093948477,-0.05029327803821726,-0.002781736886942893,-0.015018541786257698
0.0773654,0.0172885,-0.01086798346401786,-0.028471068908190036,-0.036972114967767825,-0.01120368346401786,-0.07113497875937491,0.0036153299355356537,-0.007591351960267893
0.0778846,0.017306697934506902,-0.010538100516699298,-0.02802473522659333,-0.04053260361689508,-0.010679669939095545,-0.08173449173541944,0.011312630578907842,-0.003328633159796142
0.0784038,0.017747245908569485,-0.009656917071459126,-0.027877915067610805,-0.03436431950021389,-0.005098841452574468,-0.08966505524546596,0.01292808981329065,-0.006706546781774299
0.0789231,0.01673931215889948,-0.010469742262977557,-0.030118810858403927,-0.022308120933697537,0.004792213786021496,-0.08656063979184385,0.00692623933535999,-0.016524248962224385
0.0794423,0.01450907500496062,-0.010976137732622942,-0.03265865093049177,-0.008764124534754114,0.007751013197868829,-0.07375774906950823,-0.002402087599695547,-0.02698516253323185
0.0799615,0.014008400805059718,-0.009990990374529059,-0.035620064438206415,0.0011871287363384778,-0.0017926109554416841,-0.07456106443820641,-0.009105975533722445,-0.02921979184457415
0.0804808,0.012979676671349548,-0.009175438335674774,-0.03654421807298011,0.0016006350551415944,-0.017069057714050904,-0.07884883724485614,-0.01746665914377875,-0.032694962209734536
0.081,0.01114941118357081,-0.008260305591785404,-0.03578165288712771,-0.007855645763604417,-0.029880825260391267,-0.07000255405392557,-0.020364534065373016,-0.037575670177144506
0.0815192,0.009316672335615363,-0.006943599735830749,-0.032549399339576866,-0.025518008168588728,-0.043190702641692516,-0.0696574,-0.01407259867915374,-0.034243349273534555
0.0820385,0.00983814894825853,-0.004505347008835688,-0.02758329514579739,-0.04348483629903613,-0.050016322585053556,-0.08564746182490687,-0.0014043704945893218,-0.02822814215463308
0.0825577,0.00862879693555102,-0.0028453717915184616,-0.02656116052533411,-0.05379931695730389,-0.06104345277638387,-0.08775888918660077,0.00901015277638387,-0.03466827485596744
0.0830769,0.010115825352553103,-0.0015734886888590944,-0.030021524075525302,-0.061809264129520036,-0.08555895800894801,-0.04783014427693612,0.009804368178047975,-0.04699152051081112
0.0835962,0.010492122217647113,-0.0009658664988873395,-0.03240490000588228,-0.05827865541065177,-0.10162498891176443,-0.017638477918760047,0.005420433329411813,-0.043275866682352754
0.0841154,0.012324227165289626,-0.0018819579553237629,-0.030049336501770482,-0.050034222128875636,-0.09246446417355188,-0.027453286869944048,0.006990808998819679,-0.03699436400472128
0.0846346,0.015381463671183824,-0.004283270482836857,-0.024891931973290794,-0.035389409082204046,-0.05847223632881617,-0.0522621950877447,0.013281008711050764,-0.03195203632881618
0.0851538,0.017047557684289186,-0.004988075145250166,-0.022229234340921295,-0.02737596734353395,-0.0160806107495129,-0.06452829622316214,0.015451487579218309,-0.03278625852651681
0.0856731,0.01844335068477477,-0.007061641415493923,-0.02095078424731984,-0.025391931552142772,0.012360552054324314,-0.07568263908752568,0.015724073972837843,-0.036750803103447485
0.0861923,0.015999752481200284,-0.009391557124763644,-0.021939580939849965,-0.024056452481200283,0.021531118741312825,-0.09407202808412601,0.019102490338349612,-0.02974965253688675
0.0867115,0.013046843059443619,-0.015767601004445644,-0.02194200755196194,-0.01513896136999865,0.030541833086930703,-0.09649280532470518,0.02146513420055908,-0.013242472685405932
0.0872308,0.013413052051134886,-0.016685090731684067,-0.022628934952946954,0.0018009440596573672,0.032333984017044966,-0.061279235855117825,0.007811996220941267,-0.002931272928381552
0.08775,0.013058341746242492,-0.015992950234305553,-0.024638785141467716,0.017225644575596846,0.020978897220852156,-0.006706725707338589,-0.0058724972208521594,0.004105604009725976
0.0882692,0.014007524770235086,-0.01710164181950365,-0.02510090441256308,0.0290379,0.004055464842987024,0.06435910909751826,-0.015190168567274238,0.006248416360992697
0.0887885,0.01697583888139961,-0.01606301962105951,-0.026949112048425126,0.03270936777893653,0.007518647762104633,0.10995902263297318,-0.0128642007564918,0.01400536215088161
0.0893077,0.019922663865953837,-0.01668281237582238,-0.030124988617598592,0.032369181932976915,0.011260176241776214,0.0922463188506363,-0.016117119060444055,0.020108359168174102
0.0898269,0.022098066376988936,-0.015078984899272695,-0.02972412023023384,0.0290379,-0.008369341592833165,0.05424582449636347,-0.02154709031657153,0.010293730201454611
0.0903462,0.022491211653684107,-0.013061312219136006,-0.029776659351594667,0.025574387215412095,-0.021702017739387274,0.029099785594398766,-0.02396214980903343,-0.007474479584037958
0.0908654,0.0226596,-0.009114383452817046,-0.030039685869019256,0.031324030428231106,-0.005799392418056332,0.031707557607057776,-0.023208369321836304,-0.015125504332539237
0.0913846,0.024469150164717377,-0.006769006536828409,-0.028658520236279742,0.04045108364139147,0.020317582719237205,0.0240024,-0.011486446879765674,-0.01969703971714275
0.0919038,0.02706535593402114,-0.0026940131438117736,-0.028018732445186934,0.05757833377740653,0.020798853078781692,-0.004054914476031371,-0.003029713143811774,-0.0250095
0.0924231,0.02865344838663975,-0.0009123274200403775,-0.0281377568527059,0.0731627927338614,0.008241283880565284,-0.02256423466706015,0.003421742740945308,-0.03170301652578351
0.0929423,0.02818887007073301,-0.0020834051060995163,-0.029733012864945233,0.08633550380194757,-0.012403559659141096,-0.034068856255979295,0.009365666468178324,-0.031883889588408085
0.0934615,0.027509483058366587,-0.0016315962500420473,-0.02989690382295824,0.09228935982861604,-0.029521696177041763,-0.07702403961770417,0.0107354015037999,-0.02852055682101624
0.0939808,0.027058561185355327,-0.0018881309302649213,-0.029044873898512045,0.09220603128516963,-0.03206722645639267,-0.1380295732219881,0.009022545348675394,-0.03403051651185445
0.0945,0.02787470516472434,-0.0028721293793992457,-0.02923155219927378,0.08570544717210264,-0.024529411724249058,-0.17819335345652093,0.004109577317678674,-0.04083890439854756
0.0950192,0.02873378539396026,-0.004133029212079478,-0.03111527078792052,0.0809132730301987,-0.02631873557212721,-0.183738287070506,-0.0022273990570278613,-0.044487898700693966
0.0955385,0.02929591145190764,-0.0028534,-0.03223088798575312,0.07812855263754172,-0.028804829212829494,-0.14688152965084184,-0.00599363495950447,-0.044449358599291305
0.0960577,0.028802535478119222,-0.0012993771221732357,-0.03327337285098448,0.06202086647177586,-0.024511605219294012,-0.07449826352155543,-0.01038214280543309,-0.042005722877826765
0.0965769,0.03066661335655137,-0.0016485927993185312,-0.03348232094603418,0.045602443706568706,-0.02513468629517811,0.004440211922938457,-0.00893226786809923,-0.037927539332582236
0.0970962,0.030444496339534156,-0.002186179575582305,-0.03290286031428385,0.010073601265194236,-0.013391872254650617,0.08093970848405094,-0.005224759355314609,-0.03399706493371893
0.0976154,0.02964657647664604,-0.003251823523353962,-0.031681684317764025,-0.023085955430561744,0.014301975351755028,0.134670783192873,-0.0028952156822359748,-0.040187999787734456
0.0981346,0.02748326891879699,-0.005372764864962408,-0.03040188941825081,-0.06111308985562355,0.029654027484321156,0.15116053266095755,-0.004704594594887223,-0.05376219054105264
0.0986538,0.0262587506838297,-0.0063259630147002735,-0.030625644666079428,-0.08362733119028869,0.019566843298420032,0.14414946164704087,-0.007872380823520438,-0.05860138464575259
0.0991731,0.023736493315090947,-0.006871829526415579,-0.03103714577465071,-0.10896250593883218,-0.005432706030469847,0.10772092804851463,-0.007898870473584422,-0.06285376573774021
0.0996923,0.021599666842749356,-0.0068818,-0.0310521,-0.11373975428084554,-0.02614330970863581,0.06347023535485208,-0.00080171554259032,-0.06678235126318913
0.1002115,0.019656144034818995,-0.008443590908585222,-0.031289990641039045,-0.10053841910391025,-0.047103378710677025,0.02087673878239357,0.011143628116363593,-0.0676665721906633
0.1007308,0.0188196854643569,-0.00846610726782155,-0.0294798436069293,-0.08661975575182201,-0.050486447375747444,-0.0008991746497467373,0.014037743606929304,-0.06307078965239418
0.10125,0.01833404050095983,-0.0075199360279347765,-0.02766692400767864,-0.08295724354233223,-0.04137426057218666,-0.016966790908716438,0.013413862003839322,-0.059439129017276944
0.1017692,0.018865058802873418,-0.007178425645071334,-0.026467147986332675,-0.07383937867791204,-0.06518977105111869,-0.031151999458061446,0.010487861318455036,-0.051912964326616295
0.1022885,0.020126285540486486,-0.0072667512145808705,-0.023276416700211848,-0.06389688915536487,-0.12252772018497288,-0.028717014271050105,0.008109610656171728,-0.04231908843238919
0.1028077,0.024164781437360585,-0.008404520221132398,-0.026957880331698596,-0.06638281041564935,-0.17727177074529574,-0.023197121269459074,0.00927998088452959,-0.03101042077396339
0.1033269,0.023288503809954633,-0.008957653195397444,-0.02492877714027221,-0.06269279238009073,-0.1893997295384575,-0.02417665428054442,0.011492338099546317,-0.016600208273154046
0.1038462,0.025272043831440653,-0.011477091187772362,-0.02473650528733658,-0.05677421762445528,-0.14527983630206834,-0.01696197596719028,0.0157157806130992,0.002144018104045472
0.1043654,0.025047446607267838,-0.012223813607675688,-0.025806422669106512,-0.04665179792405882,-0.05710230544860355,-0.007424771583399762,0.01658789150529063,0.010977327782072829
0.1048846,0.023354569566050924,-0.010098867424881117,-0.02573429345665344,-0.046608221615959164,0.03557353785447872,-0.003388486436563843,0.013978635811388682,0.005355065697787762
0.1054038,0.02128164538417425,-0.008196594113364477,-0.02668765679971686,-0.05534892100492255,0.08541923499139788,-0.004945357960841725,0.009303776781873163,-0.007905746158257496
0.1059231,0.02034220393262911,-0.0056038078652582216,-0.028307094398954298,-0.07313493636285379,0.07376054981330207,-0.013618261984585262,0.004867218709809405,-0.02477273374110104
0.1064423,0.019452142188511132,-0.004623195852269875,-0.030722296681815902,-0.08959313428776329,0.049999847145726674,-0.034824302488638076,-0.0006750661069491149,-0.03541986610694911
0.1069615,0.019004124498208576,-0.0013597772035655736,-0.02888782249104287,-0.1000242818286801,0.052200354712522705,-0.05836930019856299,-0.006306375807182983,-0.044186174105408836
0.1074808,0.01836248994341314,-0.00045275241959502437,-0.026520775141467147,-0.10114746033952114,0.04661818893848959,-0.07881050364660466,-0.009801514801945993,-0.05763668937754455
0.108,0.018967,-0.0015008378832667706,-0.025081095965165435,-0.09758874063368676,0.03145889428719609,-0.06587367786251673,-0.011819669138410772,-0.06391530272596094
0.1085192,0.019446944246304197,-0.005704529186437277,-0.024404439456688243,-0.08373818843104182,0.002040642947596981,-0.02421535451655516,-0.014617452526828894,-0.05474999583983653
0.1090385,0.017445303784947706,-0.0095674,-0.025103984356973294,-0.06594300965590008,-0.005280276090311185,0.007600241135484313,-0.020372823599983755,-0.026126362649463396
0.1095577,0.013140324051969394,-0.011071182278290086,-0.026311618055807926,-0.05008821359171869,-0.0016157677553716695,0.022338608192658937,-0.021882171483941372,0.006975065821877911
0.1100769,0.012790781361719185,-0.0109102,-0.02466766508937535,-0.05013411390640686,0.017079805021088957,0.03060591158021885,-0.022149953049973397,0.022450917060490908
0.1105962,0.013239240369246579,-0.01123547018462329,-0.023692776091884638,-0.0589587651694521,0.03686719307654335,0.02521288295328872,-0.014181815569041056,0.02922758258472605
0.1111154,0.016847697218210254,-0.01250634431793464,-0.02505891602609371,-0.07346774424099438,0.03640133804864015,0.003965602781789744,-0.0027695194366581972,0.020476075118723555
0.1116346,0.020319201333143556,-0.01351422533328589,-0.027631867727664863,-0.09194208943238888,0.023774453778426182,-0.010920621876959831,0.0004993096053363594,0.006172794667425775
0.1121538,0.028904883755704835,-0.013931291167712186,-0.030926134187892067,-0.10762638841873398,0.006903155465820377,-0.033079882706028366,-0.0024268770227699574,-0.005056078722071693
0.1126731,0.03428893009692393,-0.01639898570256914,-0.03238224964201013,-0.10188766258949747,-0.013710223113071674,-0.04982591190178125,-0.004284756625862379,-0.013328336928657482
0.1131923,0.034025423045587616,-0.01892658349490861,-0.031961601107177245,-0.0716716,-0.01580601300933257,-0.05068791318355966,-0.00448899667846828,-0.02452409235232653
0.1137115,0.025753243166273566,-0.016238358529519187,-0.030249021583136783,-0.03728571366745287,0.009126201263009759,-0.044216651011279036,-0.0036234788496462104,-0.03496182949882071
0.1142308,0.014860794329798248,-0.016528149098357446,-0.030222307153164835,-0.010458884922853066,0.023732317010605256,-0.038606443428155696,-0.005726848131628284,-0.038238506636930916
0.11475,0.010860083556378804,-0.017298699412727814,-0.030319503523633114,0.008951217669111219,0.028935905872721854,-0.01978031115817153,-0.006322201710870907,-0.03321331238366155
0.1152692,0.017520069396974314,-0.013520383405669573,-0.030542647326656507,0.02300606728242447,0.02999839741436483,0.02196460310283675,-0.005295927758789726,-0.025403016723630822
0.1157885,0.026751936017828697,-0.007939125183608453,-0.03285738352767949,0.044403662151692516,0.01663531295715255,0.07501719824241601,-0.00580857093587526,-0.022620776573975526
0.1163077,0.030633481700190035,-0.006251859149904982,-0.03176495914990499,0.04818940277419235,-0.00925071087263343,0.0870964140047154,-0.004175470425047508,-0.02462831404933488
0.1168269,0.029431268760405534,-0.006852965619797233,-0.032366065619797234,0.05329880776827648,-0.024128051237313975,0.05764237604060576,-0.0038749171901013837,-0.02883605933858063
0.1173462,0.030123434609081838,-0.00789717132064961,-0.03203437907118706,0.06430483551948483,-0.029545585660324808,0.01315000630745781,-0.0046316295897533884,-0.03567556513992146
0.1178654,0.03094091193494703,-0.0065735981686287255,-0.03158438437829603,0.0760994669902446,-0.029469382563919785,-0.013842361465097019,-0.0013565082651851215,-0.043115670677001526
0.1183846,0.03036497132196386,-0.0041962,-0.0297093,0.09294632037246515,-0.031880802399704034,-0.010574621547298067,0.0004615558172807859,-0.04559733478902515
0.1189038,0.029947501894143982,-0.0041962,-0.0297093,0.10519330631971813,-0.03605591124535846,-0.001667722676568627,-0.000651723628069268,-0.03961305356699937
0.1194231,0.026690353641221645,-0.0064334191437073,-0.030045,0.1141926191437073,-0.0385843780386514,-0.015561106225981407,-0.0026675507135772497,-0.026655526352815196
0.1199423,0.020337292778105132,-0.008532994866152088,-0.029863591255204654,0.11426949546752602,-0.04348216425936838,-0.04252929383465507,-0.0009753557846198112,-0.016625883566959244
0.1204615,0.016429002145370224,-0.0073620297903594515,-0.030332523403213515,0.11885903403213516,-0.038633278742156704,-0.051043339850705326,0.0011252015767944522,-0.006984297903594516
0.1209808,0.010086858413520724,-0.008213994390986185,-0.030889552804506906,0.1220882480169009,0.00963448460927526,-0.053704661558311106,0.004902983994366365,-0.007414532318721715
0.1215,0.00598089994623776,-0.01059838179261007,-0.029649596704146193,0.11702545456840754,0.031995515219706484,-0.06452647282955973,0.006223069533705915,-0.015420212593955634
0.1220192,0.0071670036685672085,-0.01163046614956964,-0.027978515806238932,0.09945270566516698,-0.008363047539393164,-0.07112933030253951,0.006436483386423289,-0.026252779838532445
0.1225385,0.0027325623875414243,-0.013940629881873143,-0.026694087192343226,0.08431204204155912,-0.03763218176844902,-0.049375496389389185,0.0023716091970459614,-0.033946475195198195
0.1230577,0.0009118761311819575,-0.013145931754650146,-0.025189447298139944,0.08500239549582654,-0.02610960179909332,-0.028623567568771345,0.0023162524788919074,-0.03945254076423096
0.1235769,-0.005865811010584805,-0.01442479019817245,-0.02435852568816155,0.096187815886334,0.012126846215771373,-0.04075183795783277,0.0029804486236768993,-0.047603428440807755
0.1240962,-0.01132227249172392,-0.01409369579295835,-0.024836463424370517,0.09598764434270762,0.03565383948239587,-0.06090761197411979,0.0021872430361674247,-0.04827975015624041
0.1246154,-0.016985931448011037,-0.011708997285047982,-0.02707216267340862,0.09106915927227036,0.029692093212619956,-0.06060952466063099,-4.8367417126412464e-05,-0.03590917104432752
0.1251346,-0.02406171627597042,-0.011149221377304985,-0.029065011744877925,0.09167107138783985,0.01092736291696666,-0.05079399093781501,-0.0018971427756797048,-0.025881069560510023
0.1256538,-0.02693676354857298,-0.012106270465751806,-0.02760588238356205,0.09264444593213503,-0.011314357005899557,-0.045287507589667854,-0.0026280880821897565,-0.018793100520554825
0.1261731,-0.021836710620988017,-0.01383947352218183,-0.025280431817691774,0.0865724093606715,-0.029211302669936802,-0.04125310936067149,-0.00560396687671942,-0.009567324392767348
0.1266923,-0.01088856743197956,-0.015000474221358648,-0.02762084651056924,0.06661759340010334,-0.03819390075792974,-0.0335466118209183,-0.008772244184282064,0.002052886042276955
0.1272115,-0.0016017233886333618,-0.015672750874412826,-0.026622970156595774,0.049075290876273686,-0.007856163587224388,-0.0289578614356341,-0.007307543384911637,-0.0023938401985910272
0.1277308,0.008499199972491598,-0.01592230772828022,-0.02400013394921101,0.03573453401798201,0.0516669999862458,-0.022433713117342494,0.0007441493094920356,-0.01697090992995615
0.12825,0.01649552396496932,-0.014621853531996777,-0.02152104019331072,0.022180514148182395,0.07540221626255689,-0.038629814148182395,0.006657701461935417,-0.034416593691092005
0.1287692,0.02261161397735059,-0.014842620807010312,-0.021040732644690745,0.0002635555913712158,0.03967816030663922,-0.06182842340788661,0.008332349416649492,-0.04965279392429911
0.1292885,0.029469844621874842,-0.012404451846452797,-0.02092376006168477,-0.03196296696379626,-0.040345238042229815,-0.052688251846452795,0.010192782168777649,-0.05575043277570527
0.1298077,0.031177124320569575,-0.011474381117426756,-0.023236560111128696,-0.06178967865707364,-0.11537346886339656,-0.029699895346044333,0.01352432037139485,-0.05600377597770534
0.1303269,0.031081543060005577,-0.009888378469997211,-0.026455350710019525,-0.0774550028400781,-0.15529283825006973,-0.01017412788518374,0.014252478469997212,-0.044709758485239524
0.1308462,0.03113805954260861,-0.009477332237324401,-0.028567098355986604,-0.08488873780130517,-0.16439810644464795,0.0036230193480285074,0.013571228949297603,-0.034765262830635406
0.1313654,0.03711586054351,-0.009614349497928096,-0.02808480301243143,-0.09956525314716054,-0.12864867634035274,0.02604969223630775,0.01686595451864714,-0.03533396894400328
0.1318846,0.04639887716826063,-0.010842143229907151,-0.026761728167600588,-0.12354610086978336,-0.06038768407214758,0.05889241440996905,0.017989344534582175,-0.039585294011801275
0.1324038,0.04320738407758668,-0.010407506570809109,-0.026343025350869416,-0.14367466161874995,-0.031635870824730856,0.08627711971242732,0.011323545585099048,-0.036389616632305125
0.1329231,0.028692632576127114,-0.007820711545128407,-0.026199357325413744,-0.15660855112854474,-0.014678077941654998,0.07851673463538522,0.0021260521604565567,-0.025467593190542162
0.1334423,0.01953220180555471,-0.0038403756649574507,-0.025959223124302027,-0.16503351385817971,0.03623405256176757,0.022798277018484005,-0.00884063193839618,-0.009482336244881522
0.1339615,0.02829705000583711,-0.0020891148678503038,-0.02469227399980433,-0.16249487806422422,0.11019642534877386,-0.016575762838844408,-0.017685391894508642,-0.0006041445866105768
0.1344808,0.04419534651924361,-0.0008193689355066257,-0.024585497158408003,-0.1528365368754565,0.1466687272316694,-0.02640903786668848,-0.025140225383471767,-0.00443239007127847
0.135,0.05088756703442861,7.863008951996289e-05,-0.023879136393458622,-0.13497888497785057,0.00018346779435062798,-0.02346736885241533,-0.028596280238591308,-0.01923766915055802
0.1355192,0.0515297,-0.0013626955858835066,-0.022422507838377254,-0.12117083475748334,0.0,-0.025029488242434117,-0.02844045587878294,-0.041411670171847444
0.1360385,0.04518310158280385,-0.004216069293648732,-0.022355690869837973,-0.11064231524531545,4.967264224534601e-05,-0.024677773858729747,-0.02291582400915804,-0.06983414683456311
0.1365577,0.028185666910466093,-0.004522643968533978,-0.02167110930569896,-0.10148152215528156,0.0,-0.015859910092349515,-0.018425181683291224,-0.0830508587413591
0.1370769,0.008697500646675963,-0.004230349378083555,-0.02104949875616711,-0.0852310068658404,0.0,-0.00023100810967329366,-0.015581644402752,-0.07769163818358756
0.1375962,-0.0021705648709627544,-0.005973881465439213,-0.02078283706912157,-0.05655004494740299,0.0,0.023355780219854377,-0.01128405560368236,-0.05989741978014562
0.1381154,0.0006329427552971222,-0.0066979657852898325,-0.019168996663649608,-0.03742603941894673,0.0,0.03589431627326748,-0.009374116273267487,-0.0463441503302789
0.1386346,0.003020166907404836,-0.008752509624030255,-0.020647653604531063,-0.023491280932493117,-0.0018793743647915646,0.04791930036110725,-0.008869511610120154,-0.028804577614756854
0.1391538,0.0032756466192424014,-0.009133345353836584,-0.02242356135230304,-0.019562339857727203,-0.002217457666836734,0.04158467597461253,-0.0071414398577272055,-0.01915582138382469
0.1396731,0.001647850538767951,-0.008972939275818867,-0.025460965059441745,-0.017816001896598474,0.0,-0.0024160514625381413,-0.0005531135969036061,-0.02320202578362288
0.1401923,0.0013862746116300008,-0.009525125077674,-0.026253658514572665,-0.02496472989675464,-0.00046501994789735837,-0.04424303728773869,0.007418127624486011,-0.037286984213638664
0.1407115,0.00042333704430205446,-0.010774937242870552,-0.025280025514258897,-0.04422973579581058,0.0,-0.05298772500356753,0.009562362657845198,-0.04998154897148221
0.1412308,-0.00011010404054623141,-0.01210873861471302,-0.022612422770573962,-0.05596710840413559,0.0,-0.051520583226485166,0.007294940057657356,-0.05531675445885208
0.14175,-0.002697739495601071,-0.012253,-0.019942910858441677,-0.05545079164813749,0.0,-0.06490414701023652,0.0051150299550197665,-0.0591677819784146
0.1422692,-0.005276962090276648,-0.010174408830515255,-0.017527613245772882,-0.03956867505937967,0.0,-0.08664027119746176,0.0023060846499619605,-0.0566478085538454
0.1427885,-0.008039070764367356,-0.009636810109195338,-0.01679062527298834,-0.03492967581896502,0.0,-0.0937936587001857,-0.0033566284607240695,-0.04816201320880669
0.1433077,-0.01213816265050141,-0.0102388,-0.01828491738185613,-0.03945528261814387,0.0,-0.0847799239272158,-0.00755284955978208,-0.0367571294303519
0.1438269,-0.017253234526575414,-0.010474355157808196,-0.020495282736712295,-0.04355833789452049,0.0,-0.05883541368356147,-0.009467255157808196,-0.011854583333631322
0.1443462,-0.018700767755581972,-0.009991844081472676,-0.019771516122209013,-0.042352060203681687,0.0,-0.05521658061104507,-0.008984744081472675,0.006239510162540727
0.1448654,-0.01877135850096889,-0.010417044709444125,-0.017058237642938377,-0.03158093332090208,0.000940733016709098,-0.0431718994787771,-0.008405346987970021,0.042629322919526494
0.1453846,-0.011383128450611481,-0.009133237178614513,-0.015132420896475965,-0.014276852919514936,0.0,-0.0048443394857832205,-0.002741761014888577,0.08481584179295193
0.1459038,-0.007197811871769851,-0.0077203406952782265,-0.012823264417166936,0.0007908051016196657,0.0,0.016441457690318732,0.0005569999891745045,0.1146239967711939
0.1464231,-0.00412434922212938,-0.006655771853229788,-0.012214185089613264,0.00783645089613264,0.0,0.0048791580858057034,0.004823017609090629,0.11237881010428905
0.1469423,-0.00014476338952101224,-0.006789227526854279,-0.011078589146489739,0.007064788360332489,0.0015356671652081697,-0.0005930636254370628,0.006234614903458464,0.07852735454181235
0.1474615,0.008916791918071723,-0.0054575832168258075,-0.011938573171443864,-0.0013368796848121423,0.0,0.025828397960508464,0.004768106517057924,0.02377261412436502
0.1479808,0.018530768817017918,-0.005790327957455202,-0.009641002730374099,-0.0012871497524236104,0.0002638906119863267,0.047496859429004244,0.004189022001554224,-0.019261408063817195
0.1485,0.024034975093708676,-0.004449137884401227,-0.009432300582651583,0.023960574326172695,-0.013239187163086348,0.03154038585658694,0.0025434222983583984,-0.04751295878381802
0.1490192,0.026376516936549584,-0.00398558868160925,-0.008427148942160661,0.059307282654702406,-0.10612431807973488,-0.0037830397394485885,-0.001407359934862147,-0.061749170358258186
0.1495385,0.021300750598829125,-0.005182162680796135,-0.009797413403980677,0.07817422680796135,-0.156128303141449,-0.030796663940632095,-0.00648518514965024,-0.06755116569788971
0.1500577,0.025593069339757624,-0.004166436266277671,-0.006997570925492007,0.07603026247674619,-0.1268724425511584,-0.04292743808005558,-0.009021923161043414,-0.04964143808005558
0.1505769,0.05418727543879773,-0.002778905680361963,-0.00603385025678181,0.06437433910818946,-0.06313020732593436,-0.05808793493165866,-0.009787501805263206,-0.02050327972021008
0.1510962,0.06790690756692586,-0.0018792634458657319,-0.005868634458657319,0.05177257520374549,-0.019271456364887748,-0.0668338806751944,-0.009044340416054099,0.0021967668218376905
0.1516154,0.07056810775695195,-0.0021341384486096085,-0.009278892411123132,0.049033538784759786,-0.009807085198466077,-0.06884174620556156,-0.010669931404027643,0.011342292243048042
0.1521346,0.07247076035983781,-0.0017014686375506842,-0.011697465089959452,0.05680882544979726,-0.011643659901449086,-0.06987723491004055,-0.012600595269878358,0.00903412045392266
0.1526538,0.07668432755409271,-0.0003661349845449401,-0.01252773003091012,0.06145598761591295,-0.024867418308962188,-0.0686503,-0.01570292788516227,0.0009891442296754635
0.1531731,0.08487487454856882,0.0007691537745021333,-0.013705225826774768,0.06825333892783393,-0.05385059264222032,-0.05178355030978916,-0.020185715222011767,-0.01266175758094801
0.1536923,0.09484712020473875,0.001163748858033815,-0.0137636,0.0804962849791133,-0.06514339411484278,-0.017418809837034657,-0.0216135693422393,-0.028849499649347413
0.1542115,0.10415186865021177,0.0011177067428565137,-0.014115278114665982,0.09080251084292974,-0.023591948029185506,0.009660025196432213,-0.018954280953677627,-0.048178062500101926
0.1547308,0.10209548133668955,-0.0006836987917254448,-0.015192520859817626,0.08897150907171952,0.02548835327355273,0.011066598257715355,-0.015724255784028092,-0.06692438427311007
0.15525,0.08716235956799565,-0.0008286433825084009,-0.016365852939932795,0.08259135073762601,0.055688999784703354,0.01811191301968655,-0.012776607355117613,-0.0793736953800898
0.1557692,0.0664975359140049,-0.0005275873959171803,-0.019364438444996312,0.07708792770615332,0.07905091300391223,0.041293094257132346,-0.007959638644911017,-0.08920016218775154
0.1562885,0.054650882628059644,-0.001138171995313296,-0.021505687981253185,0.07390616802812022,0.08674651995313297,0.043948956731665545,-0.005051240023433518,-0.09214263924255758
0.1568077,0.04780079565575884,-0.0008316016414485433,-0.024380628215619544,0.06918355732233789,0.062026205815444414,0.013779850317188251,-0.004615481944066024,-0.09011220492434564
0.1573269,0.035614598047390145,-0.000815818604055983,-0.026072064279176237,0.05008635404793839,0.020999896186103525,0.0004396221410110997,-0.009723410231237847,-0.07994091925775794
0.1578462,0.024026505925987183,-0.00018173233641708477,-0.025098799029460606,0.02068249678049398,-0.012301211851974367,0.020841906154744457,-0.0074773234751914636,-0.07211713902780664
0.1583654,0.013725238520704081,-0.0012801639001899239,-0.027700791069680826,-0.010200397705283784,-0.0364233,-0.0028050363521656555,-0.007163445282484833,-0.05702324107158577
0.1588846,-0.0007359194733117337,-0.001119262742889773,-0.028812799800161982,-0.027909755040908722,-0.04879246334240383,-0.06249319960032396,-0.004886152661072333,-0.03812278310636267
0.1594038,-0.014499215400792608,-0.0020165527342822947,-0.029461396451799102,-0.037705566453854665,-0.040150321108500656,-0.0893485674966389,0.0004133642409644896,-0.022531547850770675
0.1599231,-0.031496092233123094,-0.0040448188934107876,-0.027917146116561545,-0.05211911481319702,-0.010833290356519297,-0.06670970006654445,-0.001256896773431912,-0.024514022186523314
0.1604423,-0.04319776443493066,-0.003529115996851788,-0.025731434567732407,-0.07214229227504812,-0.004854289154071253,-0.03334753842877565,-0.005372135018121294,-0.04589330083662553
0.1609615,-0.043170292461319815,-0.0070591267502612765,-0.02698410668756532,-0.09426645859653539,-0.011291249042145672,-0.017665475692406084,-0.008737626750261275,-0.06474192345647904
0.1614808,-0.03536510301235402,-0.013943682413566473,-0.027905993612274426,-0.125158056640779,-0.020916657287039748,-0.011002633596123865,-0.008066062098022134,-0.06561289324925691
0.162,-0.027867854733452213,-0.019053721290312266,0.0,-0.15420686666221206,-0.0406908692427833,-0.009920821935521688,-0.002111418604389015,-0.05160850882169501
0.1625192,-0.0165961737554169,-0.020929728483282246,0.0,-0.16044869331760114,-0.06138300461098687,-0.0028705575508176325,0.0033168236385384357,-0.03845656331438896
0.1630385,-0.006796361414079133,-0.02091631692142562,0.0,-0.1445182,-0.08041540496302205,0.013648252221973176,0.008238778994428755,-0.041556991611756335
0.1635577,-0.004480214043988043,-0.021112821370438815,0.0,-0.13059462917114628,-0.11247501859601748,0.03042696172562741,0.008214262808797609,-0.04889578595601196
0.1640769,-0.002997164148009372,-0.020074730621088003,0.0,-0.13563691046180523,-0.13219944967903102,0.02212197066381537,0.007917652829601876,-0.05037883585199063
0.1645962,-0.00028647874959718755,-0.016577007884181587,0.0,-0.14413477906688765,-0.10117409551427677,-0.003410109515078908,0.01426611236990482,-0.04035335477976197
0.1651154,0.005848391645510652,-0.013383963718230252,0.0,-0.13562422486846015,-0.05269896069474944,-0.019314078610501124,0.020282881633981936,-0.020710709638489512
0.1656346,0.017980492400645733,-0.012975418696215128,0.0,-0.11428920104375727,-0.03670034413106271,-0.0199762967222015,0.020608800109854046,-0.012019345925687748
0.1661538,0.015466755342517655,-0.017043473833348494,0.0,-0.10624124929553382,-0.01751548299949921,-0.012998589343519235,0.015028210900673813,-0.020371504609496924
0.1666731,0.0024279741351893413,-0.020196218568497307,-0.0035957840277106917,-0.10270717834298405,0.06719411884905607,-0.007482285407373294,0.012028365622330594,-0.024172615528613325
0.1671923,-0.002416917886221639,-0.021023799512311692,-0.0011827393146936359,-0.10467429289207716,0.1322913259929432,0.0018975470962896604,0.01118601423926778,-0.020703070952494747
0.1677115,0.009785245585305375,-0.017379080173377782,-0.003663162628302795,-0.10496702742403502,0.09322972680811584,0.006240475541857356,0.006015325758683157,-0.019059745767711047
0.1682308,0.020965418417198758,-0.017754739423583864,-0.0013098666714059643,-0.11204717289862506,0.0069836928561637646,0.008221683401817618,0.0005192815828012412,-0.01784651232220893
0.16875,0.02322094399102988,-0.015775743133748518,0.0,-0.10164915138363312,-0.030927466512896577,-0.0003414114784611069,0.002293581141765332,-0.019648104625337
0.1692692,0.016206784558974896,-0.01474153943031518,0.0,-0.06752068697435745,-0.02911519394826795,-0.0009990223337852423,0.0029651210582192695,-0.0284651126457037
0.1697885,0.004766680827571181,-0.0129244,0.00014285042946295787,-0.027634496240441415,-0.023469522878991053,-0.006117115038234342,0.006338318260506551,-0.04812653861350082
0.1703077,-0.0025072233661050944,-0.013289980473731988,0.0,0.004385225157776531,0.0026399494213644216,-0.010447963316123913,0.006273713891465339,-0.08263381184000554
0.1708269,-0.006954442499034314,-0.013559511339036977,0.0,0.02123086409473528,0.02191136614606808,-0.012334679373258843,0.005330315718294761,-0.10581338596702844
0.1713462,-0.014381935933276808,-0.013281159324568912,0.0,0.03959300758738228,0.04483508619497953,-0.022330641517670155,-2.446701833668072e-05,-0.12025519346730493
0.1718654,-0.012887285561064969,-0.012347165783450222,0.0,0.04678404681592797,0.06728895237397954,-0.036433108880883455,-0.005989872824776837,-0.11895817668018151
0.1723846,-0.006823679463549236,-0.010311924693295662,0.0,0.0487708100330746,0.06251596737431808,-0.04716475195453559,-0.009472207195090706,-0.10108969497232974
0.1729038,-0.0031300318447240755,-0.009210420529808375,0.0,0.045312609612195735,0.01812587859972762,-0.042136068845913324,-0.010572372686864371,-0.05190957316002532
0.1734231,0.003892745769270481,-0.012748758332011547,-0.001900723417925893,0.03558846786005189,-0.016991990293918072,-0.021786374709474678,-0.006441447463828328,0.006967933930025946
0.1739423,0.005643549589491158,-0.0136721586307972,-0.00040028608607588586,0.03244356786398565,-0.005515212901024018,-0.007305134342501671,-0.005278422955230158,0.053080602154083056
0.1744615,0.010259829411742152,-0.01377311832529295,-0.0009590548454619473,0.03357514396756631,0.020064384765851505,-0.005724116629673805,-0.0035998608973339527,0.0802377055432246
0.1749808,0.028386775015788956,-0.01244546915626538,0.0,0.03715886479757278,0.010648208694646973,-0.010954728982220142,-0.004837988682053947,0.10121373920043632
0.1755,0.06057026279877199,-0.006642395298996095,0.0,0.035235703308510724,-0.04031323855933608,-0.006461480808585422,-0.0026517928804314418,0.10850484927307404
0.1760192,0.0839580014003095,-0.0038299792095939306,0.0,0.035087723182518536,-0.09389774170273096,0.0024198842143866557,-0.0002834053574003512,0.0916300881714775
0.1765385,0.1008829952177636,-0.0014602447068591937,0.0,0.034644086080255314,-0.12269219338315233,0.00927646174210875,0.0025177,0.06870344400303584
0.1770577,0.10119396745668824,0.001338412809492074,0.0,0.02904658577961181,-0.10372297944271983,0.011764239653505863,0.0025177,0.05299948488829727
0.1775769,0.09062723361839677,0.00398122030493895,0.0,0.01825193056900728,-0.03957977915591138,0.008694291772154871,-0.0005940402287042121,0.01927944944209442
0.1780962,0.07923891566448847,0.00692380939869308,0.0,0.011777778644419208,0.03544921719924869,-0.004732194694261781,-0.002564210358750248,-0.002974789641249752
0.1786154,0.07228183479863501,0.010231154349829375,0.0,0.009880163049488128,0.09595035403987902,-0.01955500417810596,-0.0026018021518768634,-0.011776160914359497
0.1791346,0.07005057629385128,0.009952247036731409,0.0,0.009043441110194228,0.12439881689356204,-0.028758862428029316,-0.005669782595954491,-0.012752378051357146
0.1796538,0.06845380517723235,0.007495910354464691,0.0,0.010701392234151482,0.11195976470308489,-0.03338968705691914,-0.009821184468302963,-0.020296373472843948
0.1801731,0.06238045315122486,0.003530849830040475,0.0,0.014955164182278888,0.047847527356623634,-0.02789983283645578,-0.007068509540421362,-0.028333371635442226
0.1806923,0.04934303647857613,0.006398171080793328,0.0,0.023985882675975307,-0.002120869762522166,-0.022624135258224966,-0.009442058356924554,-0.03338305258224966
0.1812115,0.03542098463021381,0.00827546769919152,-0.00275263043647685,0.02592145238087275,-0.03316085132289288,-0.021103172209308917,-0.005996175913074553,-0.0379123563362665
0.1817308,0.015468043445079191,0.008050830802743852,0.0005174573154216911,0.014685221376923716,-0.08091069508797136,-0.02338008284387317,-0.0022443471291006744,-0.034496697543985676
0.18225,-0.008081303780354576,0.0082246,0.0,0.00036096376740951143,-0.11693328262180848,-0.022495257682907797,0.0010249684080664507,-0.025367006084501712
0.1827692,-0.015598812750009123,0.0082246,0.0,-0.004740123056524551,-0.12498775651786692,-0.02356918753571559,8.531977531110731e-05,-0.01919198940775986
0.1832885,-0.013421912425118787,0.008521877837505399,0.0,-0.007446068733043086,-0.13824112709579683,-0.02589123405006479,-1.4122795408101727e-05,-0.02114998212096226
0.1838077,-0.004703869194379973,0.0065706670277685675,0.0,-0.02885449223472443,-0.1429199043748368,-0.026974565944462865,0.001984719566677719,-0.03004338824021183
0.1843269,0.008967411258744342,0.0023614789486982517,-0.0030024303741965296,-0.05457780717365479,-0.1109082560990348,-0.026003201466186936,0.002690889073430428,-0.03337163344405825
0.1848462,0.01681697446512606,-0.0027367359233811035,0.0,-0.05936174718467622,-0.06883387971521834,-0.02380252553487394,-0.0009875105787848061,-0.03392614068124071
0.1853654,0.02144290776489357,-0.005678794823404288,-0.0007805176271086729,-0.04183895731434246,0.0029561155681233956,-0.023988619881953156,-0.0014364345489743374,-0.03391981811808499
0.1858846,0.023590048839874384,-0.00672143856165839,0.0,-0.022041069847720883,0.1085747050392325,-0.03052608431502483,-0.0022198927244041064,-0.023875525779427826
0.1864038,0.02460642788346906,-0.005673744233061884,0.0,-0.01510934142206476,0.1509812401213465,-0.034575209126017935,-0.0016116581747964132,-0.013533060179515884
0.1869231,0.01849680369094414,-0.0059229802195547845,-0.001208046026943778,-0.01352258486897623,0.0933764752608657,-0.036338143646087714,0.0016754719641747062,-0.009893399281142022
0.1874423,-0.002035246705471296,-0.006458179395286242,-0.0012355565917976088,-0.014282029398026442,0.0179425828294052,-0.03462463983723338,0.0028001137364758394,-0.01019354793533498
0.1879615,-0.02166742137340654,-0.008352772070110575,5.5587325823991283e-05,-0.020131917024785027,-0.023444348488842658,-0.03196655372100623,0.0025028764187320857,-0.01141419955524771
0.1884808,-0.025203489702834113,-0.009152129641904235,0.0,-0.03125856022663703,-0.038758355868557956,-0.027916392506670364,0.0007422110742872993,-0.022746704689493386
0.189,-0.014816718182872092,-0.00881185779917716,0.0012831622963730823,-0.043168870525616,-0.045989359327413395,-0.0264776444979429,-0.0024730350220649434,-0.038331447179504874
0.1895192,0.00974202866830327,-0.008896,0.0,-0.05959923311520453,-0.04835924496728068,-0.02886388579516079,-0.007876571590321586,-0.04312497159032158
0.1900385,0.03845862286364621,-0.009163617147734657,0.0002564631116149449,-0.06845195091312391,-0.022057468060858558,-0.030782125721601987,-0.011291681423287453,-0.041775734267017146
0.1905577,0.0520734308890234,-0.006192368737790504,-0.00202584736647965,-0.06782044637684197,0.035506341769559725,-0.03437831548781857,-0.012619484512181433,-0.041940947323172786
0.1910769,0.05085325220916539,-0.004713373604201083,-0.001648828896180529,-0.061309801882344465,0.07716963396078148,-0.03638606980390745,-0.014013532078437023,-0.04129690191794917
0.1915962,0.04160429518213888,-0.006144745862936039,0.0,-0.05377715087526564,0.08930361464805184,-0.03400034262735696,-0.0142672,-0.048705691752091315
0.1921154,0.03254047373823854,-0.006856544696321099,-0.0007133138733850534,-0.039373732616622005,0.08505821590470303,-0.02992362712941547,-0.0126150097397038,-0.059682622687056895
0.1926346,0.022538613842247625,-0.004810005490204697,-0.002076071749738641,-0.016382275168386338,0.05014941647957073,-0.024907255602462257,-0.009483897362676887,-0.07299654352342809
0.1931538,0.00806621944397873,-0.004103980398361547,0.0,0.0013128151230945673,-0.023958071606249916,-0.02607647122105546,-0.00907408418370795,-0.08659339297947778
0.1936731,-0.0008029943172032255,-0.004105476591707065,0.0,0.016126899410852498,-0.08152454089358298,-0.023099685454455145,-0.010116376933722807,-0.08924593227104102
0.1941923,0.0005241646310897084,-0.004512268227611239,0.0,0.021438610373114675,-0.08951763495246039,-0.02019004364826554,-0.010436144734577723,-0.08947341881019981
0.1947115,0.006041086974398336,-0.00352819567318201,-0.00010017185310921871,0.03899052207212849,-0.11127381399197413,-0.019295623336886558,-0.004994751921815878,-0.08654719523514347
0.1952308,0.0014826333357306123,-0.0016424857153131195,0.0,0.06104715891659117,-0.13920490177065178,-0.02480372380661283,-0.00048652708590491106,-0.0701509904852659
0.19575,-0.005321588137645156,-0.00035324468395329673,0.0,0.08330286955651417,-0.11403673150892676,-0.03319095196430614,-0.00016140732625934977,-0.0404420927561509
0.1962692,-0.013679837371497595,-0.002694431524841092,0.0,0.0884430719219499,-0.04863140605122245,-0.03747891127213322,-0.002155580168471912,-0.02024352567818459
0.1967885,-0.020139909730353747,-0.005610778601147947,-0.0017239517585512759,0.07964073969294327,-0.012012693383887864,-0.034175164206036945,-0.006274445524316806,-0.01936538949438843
0.1973077,-0.02489668583238868,-0.0076683430920249296,0.0,0.05361655592147037,0.021711956579140167,-0.026832330920249295,-0.009949157236809971,-0.030626867810063654
0.1978269,-0.022208574196711833,-0.006975410013057778,-0.0003659279212307497,0.03083755535335526,0.028471316199323388,-0.014812134107496362,-0.008711849371636148,-0.028493186612271935
0.1983462,-0.0021584883075407273,-0.00698857373777038,-0.0008035001349535601,0.019432998368206833,-0.009697698368206836,-0.006704465308897437,-0.010258295239574066,-0.022260646113654716
0.1988654,0.030031647514177924,-0.007691016069608684,-0.0007747909173779592,0.014656216999703193,-0.0319747009300945,-0.010247709162914943,-0.0066694788035936885,-0.02199274332290713
0.1993846,0.05641542400459672,-0.006521057477667308,0.0,0.02664299381901476,-0.025418248343645807,-0.0223239,-0.005719024723940968,-0.03157335709277543
0.1999038,0.07315037617219983,-0.005399521411931291,0.0,0.03910747314629906,-0.0040378136788142,-0.030834126959805384,-0.005058935875670884,-0.04160946670203482
0.2004231,0.07517993680829098,-0.004664366447173886,0.0,0.049747296893113364,-0.007650475906639755,-0.02596485588557321,-0.004325348038142263,-0.046461498112431374
0.2009423,0.06426412778652757,-0.004348684772366285,0.0,0.05936516357927472,-0.05149662318105862,-0.012085733751985432,-0.0021057576138168574,-0.048504748953221814
0.2014615,0.056039743840317735,-0.005515281893177635,0.0,0.06007763164830185,-0.08013051465588879,-0.005747731775650491,-0.0015722721650346543,-0.04722252684790468
0.2019808,0.049316278661722994,-0.004678452737147049,-0.00046247598724833956,0.05291195773872968,-0.08126136649604389,-0.013436679202351462,-0.0037425032151031214,-0.049350561147094574
0.2025,0.04591948270012092,-0.0041962,-0.01032212174829892,0.032572057672292286,-0.05482431443602196,-0.02435809264911434,-0.004722841613098896,-0.05296392291718904
0.2030192,0.040643381640388575,-0.00478263680815587,-0.013010131880684,-0.011345310092342442,-0.0020076504617122072,-0.03404892935360291,-0.0036076466790815323,-0.053898379926023504
0.2035385,0.040152082776240064,-0.0031079137534598534,-0.016218255141579888,-0.047589572620820766,0.05125521053864072,-0.03929925307871484,-0.002961648328720195,-0.051621843947509155
0.2040577,0.04206022395614511,0.00013290557953694377,-0.013824094181247188,-0.06307237930426064,0.06721859862214336,-0.04020191953617376,-0.00756915628939009,-0.04082545066800349
0.2045769,0.04589608275022031,0.002050794166961228,-0.013139064012115688,-0.06389436653568246,0.07735635952378588,-0.04074991102378831,-0.011953088190306473,-0.02822164645286889
0.2050962,0.049481513429847565,0.0025207008283654637,-0.014939132436579438,-0.05110903526196725,0.11280389938065197,-0.04125788140745086,-0.013346565152215483,-0.008507821417936951
0.2056154,0.052614545859467766,0.0017945755212058368,-0.014899903036886496,-0.029655769750598023,0.1058347868391568,-0.04073558320527318,-0.01266608624215967,0.0026219681922045163
0.2061346,0.060981429544460085,0.0020137836583208777,-0.015199245134198725,-0.00496437421527546,0.02368407651482003,-0.03863104843055092,-0.010565811742589986,-0.0007325367316509226
0.2066538,0.06858447276843212,0.006320556320202242,-0.01654908011769134,0.0022541475413006707,-0.09078163404604793,-0.04220841020854392,-0.007691174772868555,-0.010803082068450254
0.2071731,0.07355577717351999,0.006202372605567081,-0.01565014653997679,0.0014784808544561299,-0.1813452634696613,-0.0430891212816842,-0.005498853460023211,-0.016104744699508716
0.2076923,0.06398086947897882,0.0059107074799414055,-0.01644226046504897,0.0012279297540269568,-0.1967948697726157,-0.04198442427444044,-0.004609557096444293,-0.011686295778036319
0.2082115,0.05770742756526844,0.003007025387734492,-0.016204587306132754,0.009893142877597391,-0.13357635953495262,-0.0387301234877031,-0.002786544428535361,0.008137124832729386
0.2087308,0.05197442296377842,-0.0023561038470147704,-0.01638503819690445,0.020643891818490828,-0.059923478202736746,-0.03349723706701213,0.000721775906329263,0.025263532843366587
0.20925,0.04002831721527097,-0.004803469242723363,-0.014989205770226947,0.030697863377086545,-0.008889237506475155,-0.033409201150108904,0.0036576420311833224,0.019867438167098277
0.2097692,0.006495937522917372,-0.006828261714452993,-0.017190346476497153,0.02314916589775444,0.04870470704700569,-0.028161272563445316,0.003699887801401156,-0.008256480197427894
0.2102885,-0.03158371838931712,-0.010969476072017058,-0.020604906884887943,-0.002792246017716715,0.10436551477774829,-0.01905590201594483,-0.0011311675915051222,-0.03374542787780147
0.2108077,-0.04528894249540557,-0.014118352909642152,-0.02231829770252386,-0.027275252001732482,0.10466913272806022,-0.00971941532561122,-0.0047033721833144165,-0.05101122322173331
0.2113269,-0.04350396337011453,-0.016363977186474258,-0.02261361530472488,-0.05117335570338144,0.060438767775360766,0.0021873943289162944,-0.00471793038692207,-0.06130721546265711
0.2118462,-0.03558127123016825,-0.015937552092423906,-0.02270617471376237,-0.060640932326989416,0.01581296764315584,0.015542596656690402,-0.0023812780869267155,-0.05908538719474226
0.2123654,-0.047453080084447076,-0.01983972602815684,-0.019830357098634118,-0.056805150662006164,-0.025688632999694403,0.017451433464773076,0.0032752540562902416,-0.04655225870429145
0.2128846,-0.0554928008381313,-0.02517404155054291,-0.015625679981240544,-0.04801938147111743,-0.09079287995809343,0.009371220297733605,0.005872402979753775,-0.025613299790467173
0.2134038,-0.05262940590798004,-0.027266794092019958,-0.015128958181324464,-0.04740354772665558,-0.0908064,0.0002026094557076839,0.005922289545331116,-0.008394358543654466
0.2139231,-0.045933129465774644,-0.025846909148081486,-0.016533358773376142,-0.04424971474494148,-0.005130026426704125,-0.01480178541323166,0.0017849673851983365,-0.010060849893424303
0.2144423,-0.042467380561305224,-0.019727381440130767,-0.019288858322723465,-0.03431415978964575,0.08899749352803962,-0.024239490123881394,-0.00450124639158583,-0.034477846548357054
0.2149615,-0.03884066948459465,-0.016092059706740606,-0.020320318905181076,-0.03295840231765427,0.10763823415712973,-0.026739692693535152,-0.010237898167629763,-0.040860127370473065
0.2154808,-0.037168321654186716,-0.012873859084514706,-0.01904101998450701,-0.04808534363380588,0.048246330901417646,-0.015079338153536423,-0.010815279748601862,-0.031582019940878725
0.216,-0.032358450785827234,-0.008261839402467556,-0.021762182743519928,-0.07168424570798274,-0.0140143109509649,-0.009226238651397151,-0.012394818395739755,-0.02818401631707258
0.2165192,-0.021532748728508508,-0.007173655089488334,-0.02171079425409178,-0.1013322282702364,-0.030176534731534994,-0.014853563001771394,-0.01115750023846346,-0.030643769463069993
0.2170385,-0.004623118988359859,-0.0068818,-0.0209812,-0.1119245926562765,-0.02937324455925273,-0.02909924124630932,-0.006637528615654846,-0.03192176999605488
0.2175577,0.011405693486557667,-0.006927455670449052,-0.021008592042255414,-0.09827398020680829,-0.012488257525012085,-0.042972939586383416,-0.0007204966168464797,-0.027056916452182306
0.2180769,0.012561627614379189,-0.007531915336939366,-0.022712343515761017,-0.06723207056569774,0.003962071876524131,-0.04950201222209404,0.006130115956727605,-0.02393570056444246
0.2185962,0.0028573308550569336,-0.008789865357794708,-0.02016121150091259,-0.03810062406064169,-0.002376973211026459,-0.047076767754362765,0.012622458981782016,-0.024535828126725084
0.2191154,0.0077994019651880615,-0.007289098427849551,-0.018282087593298267,-0.022796260723283404,-0.010283546351393611,-0.04109168798633588,0.014804517686692551,-0.0226976428140551
0.2196346,0.031149677343216137,-0.0029548968214520503,-0.01867223720680977,-0.017669040217796014,0.0013173821900364963,-0.0298654354523653,0.013486493480124817,-0.020255148578287734
0.2201538,0.06126839800713108,0.00018257196688201333,-0.02046533797479748,-0.03158764155863846,0.01324577416069935,-0.018058342744688802,0.012576884102378841,-0.014955335780980144
0.2206731,0.0739641271531014,-0.0014209453774228348,-0.018219006840127224,-0.06600624506104846,-0.017862016903752973,-0.0020620567364234748,0.016439254728035292,-0.004529301215110341
0.2211923,0.07834208794604455,-0.001406245098873609,-0.02052475801807455,-0.11397908529082652,-0.08724739792547517,0.017767861479056544,0.018156552886083095,0.005923485931001264
0.2217115,0.07426444019590801,-0.007252855006614597,-0.0239493921419122,-0.16005755535081795,-0.15223943212075788,0.022686062520499047,0.0240466314323512,-0.004788178925081343
0.2222308,0.07307724059432208,-0.011681655157553634,-0.02326596563783675,-0.18019328306668214,-0.1880078838387857,0.010945734527339095,0.026505190236120343,-0.027874682571154608
0.22275,0.06951726237841596,-0.01549915048633611,-0.02128913762158403,-0.15749137339087355,-0.20286987154953595,0.0010487803150641454,0.02561020507189609,-0.044689937111985434
0.2232692,0.06800333242241574,-0.021554870310337006,-0.02280306757758425,-0.11631265897848733,-0.18046379839614254,-0.0003137115476310817,0.021219853297200417,-0.04514407100108053
0.2237885,0.07723189457063905,-0.0293352688114861,-0.025148648754042897,-0.06827869703379989,-0.09516989579899324,-0.003106328208427698,0.012061953967580634,-0.04401982078275815
0.2243077,0.09646492300407028,-0.03381796067108155,-0.02788718451322297,-0.03566723428001017,0.07136778367515183,-0.011256711719451267,0.005283560671081548,-0.04479407656109747
0.2248269,0.10467469010487392,-0.036607508994811605,-0.0270237,-0.015904201694016736,0.2550874780335323,-0.027041243748302614,-0.00020061798962321296,-0.045596084484158306
0.2253462,0.0992195804090122,-0.038380379021080636,-0.0270237,-0.005812248756672557,0.28536317434602076,-0.040133507018370734,-0.003746358042161273,-0.04341412185558568
0.2258654,0.07946501236130599,-0.033885359462674375,-0.028902406103975035,-0.003406311426664891,0.18946806369736724,-0.046340935444669634,-0.00965671768399584,-0.030904918227994342
0.2263846,0.0630711015925383,-0.03450819447974366,-0.028215344542716198,0.0022309866243076034,0.04174373152899971,-0.03618547324861521,-0.012876071039380552,-0.022596411295233113
0.2269038,0.04911959866510094,-0.023927645739727287,-0.02558431059681676,0.011184393486874028,-0.05934738940318324,-0.018575859016483898,-0.008007324546093765,-0.016602547074626346
0.2274231,0.04398170605037707,-0.018048487955260782,-0.0245368890055924,0.026825270840684718,-0.07670215379590005,-0.007968212044739218,-0.0008700890055924023,-0.015251569117440448
0.2279423,0.033944122024820195,-0.013524429232201027,-0.025152231800437876,0.04875062035176088,-0.049797620320210206,-0.0023425228884470534,0.007440257623418929,-0.01465048051186598
0.2284615,0.031112391491682108,-0.011980763221964301,-0.020442065349043775,0.07118236658441307,-0.05044647934688992,0.0049494766021257915,0.015670291491682104,-0.012321802127079473
0.2289808,0.033529284176617734,-0.010804458312424289,-0.018741085139149807,0.08742942586805595,-0.06596390514217054,0.010100351889452654,0.01703708971952143,-0.011956241526509948
0.2295,0.027241141939981967,-0.009920268173490572,-0.0006237133338247001,0.11385706969843574,-0.0778514854049091,0.0112459,0.0006122690211940703,-0.01612690007494187
0.2300192,0.015694341185390075,-0.008615160360770893,0.0,0.1321776279457911,-0.08108062682595428,-0.0010357865027075268,0.0,-0.026052618659993827
0.2305385,0.012176960484686281,-0.007259382622007874,0.0,0.13811693739307943,-0.08738870903297585,-0.008538011427229477,0.0,-0.03290959428638526
0.2310577,0.00895402852091082,-0.006558106024202747,0.0,0.1328567441774868,-0.07630565060965422,-0.009883089959662089,0.0,-0.03372969598386484
0.2315769,-0.00043797501954050507,-0.004801443290284913,0.0,0.1233724181232601,-0.10885275665551343,-0.011240627211990978,0.0,-0.031503215192006016
0.2320962,-0.005260192179279563,-0.002712107491259258,0.0,0.13114667017279896,-0.12058921671870604,-0.014326937510085472,0.0,-0.029608784990586893
0.2326154,-0.006047239620307628,-0.00035577718648679643,0.0,0.14901346380343505,-0.051359261759871065,-0.016255607564278747,0.0,-0.0292796114067566
0.2331346,-0.002444701140098388,-0.001641950570049194,0.0,0.16330693571726418,0.01643974378236697,-0.011448190821252879,0.0,-0.022301024005078076
0.2336538,-0.007516543365398138,-0.004094352818830893,0.0,0.1574897860772438,0.04613746101793065,-0.0026562137673782227,0.0,-0.009939756634601863
0.2341731,-0.008270690072041537,-0.005752653467970174,-0.004325684274306877,0.12655868059802242,0.08328389129945982,0.0072631593941342165,0.0010756975324784316,-0.005111693064059652
0.2346923,-0.016746013968083562,-0.0076628641533681525,0.0,0.09375251941800404,0.11361293150841889,0.00549379283067363,0.0,-0.007682113968083564
0.2352115,-0.0346274587471721,-0.010843082036861218,-0.002063872368158688,0.043205880536859524,0.08425962380529267,-0.003154990096900182,1.6774492425808428e-05,-0.01913434417390484
0.2357308,-0.06316957252037025,-0.013529173141890487,0.0,0.017468444995584437,-0.0040885744752431116,-0.013828243563233195,-0.0013467852497491672,-0.024901874475243113
0.23625,-0.0847639,-0.017049715618947577,0.0,-0.0030666175374001476,-0.052357504877966005,-0.022980763884138843,-1.45375593681919e-05,-0.027340016587509078
0.2367692,-0.09448675146150923,-0.0162814,0.0,-0.02755571176687711,-0.025576789016709144,-0.024818048127996824,0.0,-0.030137023466958308
0.2372885,-0.08664594112730793,-0.01575277882453424,0.0,-0.038624170691813106,0.005574350638220079,-0.023104125930921832,-0.0003484058322768082,-0.03285004588276401
0.2378077,-0.06548413974807449,-0.017813342869511382,0.0,-0.04418689447045741,0.019202557330466333,-0.018063862660031214,0.0,-0.032147134278293174
0.2383269,-0.045584039096049966,-0.018908378300541366,0.0,-0.05017086980324819,0.053516119533453844,-0.008771735861613924,0.0,-0.020993714006175435
0.2388462,-0.029302520839010776,-0.020981092277678463,-0.0005339001101517211,-0.062424960429628834,0.06123449519688473,-0.0011851772770802172,-0.0007372881759673406,-0.0022835908546232513
0.2393654,-0.007898626191266085,-0.019811112488738826,-0.0003361599212935205,-0.07555173442416191,-0.013671181117064075,-0.004557647062728428,-0.00012835205822395778,0.008236824063344588
0.2398846,0.014735478127620775,-0.013298486709968697,0.0,-0.09024651900668103,-0.11380984230453604,-0.010070327032482106,0.0,0.009882040879060264
0.2404038,0.02460399057332365,-0.004856767855058679,0.0,-0.10553065022072775,-0.15934984017958162,-0.010569078846785323,0.0,0.010472163654035598
0.2409231,0.04029698724266705,0.0006494647533325156,0.0,-0.11599256598785895,-0.1476489626165499,-0.0078159215363742,0.0,0.00964621646091226
0.2414423,0.06823704321747509,0.0032089551027626464,0.0,-0.12570827901183992,-0.10875726406713303,-0.005228565596842689,0.0,0.004046393292501387
0.2419615,0.08797509137600751,0.009720306171999381,0.0,-0.12844274806942005,-0.05792663864634673,-0.007221580206709398,0.0,-0.014860449385274345
0.2424808,0.0812997370836805,0.01583113323121683,-0.0031035127237072258,-0.11885607871139872,-0.025000993719299133,-0.013182684679662927,-0.003943566925001501,-0.03388832969118982
0.243,0.08986100137200291,0.03004442269480842,-0.02237576859136998,-0.10154967122324932,-0.003808783633120828,-0.015150419950802605,0.014867165847364165,-0.0480128903341343
0.2435192,0.11260165934228607,0.03657974431589142,-0.027082552579078167,-0.08155524170961843,0.002188614921321923,-0.018195310316312663,0.013548958235991922,-0.06154724331467
0.2440385,0.13563755996292795,0.031224184840651537,-0.02762812259801092,-0.06647468471222101,-0.00804041214453003,-0.020519917371270475,0.009743215680221335,-0.06752680503051926
0.2445577,0.15697350266649787,0.01803072494989513,-0.027626094667004233,-0.04551880895090783,0.01535822970698207,-0.021531835528343722,0.0020001702803591342,-0.06115868800708893
0.2450769,0.15723772253027174,0.007856328524779506,-0.026888115944329778,-0.033075011989015496,0.04037051739208901,-0.02105074894494874,-0.002702587348641215,-0.047670247691171216
0.2455962,0.12864762379311245,-0.002044937907307528,-0.02728701748344777,-0.034933893316618884,0.05924035578302778,-0.018320276617172206,-0.006996300980137328,-0.037294605703243784
0.2461154,0.0878058301249572,-0.011645363041766537,-0.029158914052122568,-0.0425118074356462,0.09325944286553876,-0.01896510399339437,-0.008882875999148002,-0.02639918594787743
0.2466346,0.04854288287483755,-0.01593894021883866,-0.028862105735231555,-0.048762505475105265,0.10842371665859801,-0.01716645703018667,-0.006463274415475404,-0.01632974270968704
0.2471538,0.021363386180926633,-0.019621605235176642,-0.02849914481959342,-0.030899644805940187,0.07129147072178343,-0.018442894901669962,-0.0017157120831166443,-0.015928601763263196
0.2476731,0.0018760123306596163,-0.02217046496483548,-0.028581364900848748,-0.005356744749090625,0.007122578083387741,-0.02277092188461889,-0.0011979061493331252,-0.022813044749090627
0.2481923,-0.015068586608636088,-0.02314081131688257,-0.027289542934848813,0.016174623800779213,-0.06458604318116164,-0.027061570767377953,-0.003194927093590676,-0.03295375204814998
0.2487115,-0.04890098384230049,-0.024706655348726306,-0.02686003513031643,0.034536023417686225,-0.11891750876982515,-0.032228630574945225,0.0011434400190307083,-0.04393118071989593
0.2492308,-0.08245157442433151,-0.023103094827885213,-0.027018771554890655,0.04068723939171201,-0.12051053559938645,-0.03472999227895595,0.0047059189510301885,-0.048039691035559655
0.24975,-0.11094176759772031,-0.021785829360899275,-0.027381605995955457,0.04335086371482825,-0.10080033515462761,-0.03409425427303812,0.007308934044489969,-0.05413043779976365
0.2502692,-0.10982491684232423,-0.021025064675127794,-0.025163026362947285,0.04127662636294729,-0.10706502389846646,-0.026532006666094225,0.00880827064974441,-0.06428876697095849
0.2507885,-0.08323154906589714,-0.018673461950258666,-0.021712829563310488,0.03337564458725504,-0.13462470645680227,-0.01876380719232534,0.011368527378966662,-0.06561705372849752
0.2513077,-0.04559538649494332,-0.014127084581455349,-0.02076284516621447,0.02199594671247896,-0.06993829379480883,-0.01481418503567293,0.011444423994068803,-0.058242802099727126
0.2518269,-0.017080997234969343,-0.002419110378408445,-0.01997873917987798,0.010283698685297996,0.0636573075681689,-0.010667162225241788,0.011029993405676008,-0.05782838078392953
0.2523462,0.003259414050289912,0.0038524238156039036,-0.01977900703497564,-0.0007344547645895371,0.10061241723323673,-0.012695592748550812,0.008101879131207993,-0.05437256258671465
0.2528654,0.014075449455970397,0.0019197825705300525,-0.021922744015287047,-0.0109102,0.055967276061148194,-0.014321826732569863,0.004305459974521586,-0.048162781374439474
0.2533846,0.004220926626135905,-0.0028224221769552003,-0.021980002249150303,-0.010456192830298354,0.05179249354726852,-0.015446912139372895,0.004739695599939201,-0.04081009359638842
0.2539038,-0.016379860325784115,-0.005375605570122195,-0.022074449118829127,-0.004941445244338084,0.07334458892646621,-0.011113917118757439,0.0036081972482941986,-0.034649736074694515
0.2544231,-0.018304768656038327,-0.009670531008437025,-0.02440116987546743,-0.007102544564136012,0.055266404174409485,0.0012695048132011476,-0.003072543099594108,-0.023472907219801723
0.2549423,-0.008269069148178172,-0.01239617735892328,-0.026530017279402716,-0.02092196090686576,0.008125856372536957,0.013003453308594658,-0.010100551838208153,-0.007019968505136864
0.2554615,0.005116771498296405,-0.012539280567735107,-0.029688093915038606,-0.03438869678558948,-0.01932826179706145,0.012715936509768376,-0.011092155884029878,0.012389893743108782
0.2559808,0.016009016447137592,-0.008734657964061813,-0.03264125169661516,-0.03589632193270078,-0.021983874018844208,-0.0003118001266587682,-0.009779924151692421,0.02182430417511378
0.2565,0.02799513581536228,-0.0022554421260416535,-0.002805564612179932,-0.024515037547584516,-0.02319602353189006,-0.01637472318330613,-0.007666489448750015,0.017591654679139517
0.2570192,0.04337013436699407,0.002311234289912436,0.0,-0.018071548351467185,-0.0214717480012205,-0.024252257940276002,-0.009515782291132938,0.012046159379803557
0.2575385,0.0614695620052132,0.0031562029581035027,0.0,-0.012087610546038388,-0.0033033816105589838,-0.023374477916769228,-0.010123163972162705,0.004435542384508929
0.2580577,0.07431095876285478,0.004149621461932324,-0.00041454760129745695,-0.008140758631478184,0.014201652745782804,-0.016588481050324212,-0.009268962830454142,0.003585570749949203
0.2585769,0.0871138,0.0064742710481482104,0.0,-0.002248346779747915,0.015560324744622296,-0.0017545254103629266,-0.00500577038240758,-0.002228889518517892
0.2590962,0.08713451549146391,0.004706134375700855,0.0,0.002704139423175122,-0.0006753326262828676,0.012464081370087378,-0.0013655977305871967,-0.01597436840236061
0.2596154,0.08741514143031041,-0.0020288045623531965,0.0,0.0052297728727937875,-0.007550709925153765,0.02214563446316107,0.0005987002470760412,-0.030005581750424143
0.2601346,0.09462745525683487,-0.011176529339810126,0.0,0.002818249791444577,-0.009935623457308978,0.029331518034867984,0.0008937088022770677,-0.04349065112867572
0.2606538,0.09752486852590456,-0.023853211343880017,0.0,-3.0544407336586144e-05,-0.0465002920232949,0.03182499113308449,0.002922032907510401,-0.06822221118793385
0.2611731,0.08547680311367974,-0.030337096834570497,0.0,0.0014901172094034438,-0.07376619368222145,0.021142412377380362,0.003104518733828199,-0.07812295602064648
0.2616923,0.0660432951477789,-0.0354493043541342,0.0,0.0037881480719763384,-0.05984028884963323,0.015127176445980144,0.0037325092705680555,-0.09267360353472201
0.2622115,0.03357900413240117,-0.03636911077345018,0.0,0.00791986527231418,-0.03159964006375462,0.0004106053360687943,0.003169746704803638,-0.09326943883475884
0.2627308,0.02153893694112935,-0.032257838447493366,0.0,0.010269163744289505,-0.02220253365345504,-0.006637202602255456,0.0017014351598190597,-0.07638398728383877
0.26325,0.019972339032355593,-0.026347023379852143,-0.0004745513443572639,0.014625752278122184,-0.013971921653311145,-0.015193450410592346,0.00010638075342571352,-0.04984684758088898
0.2637692,0.0149386,-0.021491015018477673,-0.0007733299528141124,0.018166122685875946,-0.016196650151788203,-0.021893182895080576,-0.0021316308378755535,-0.03078395950516812
0.2642885,0.001015623438460044,-0.019773835556342653,0.00010251561216058163,0.017373870155616138,-0.04678368841631842,-0.024996208360500493,-0.0045080589948026965,-0.015115022018084399
0.2648077,-0.010895652329755675,-0.017656010505248447,0.0,0.012603247670244327,-0.0943169722466966,-0.024237739896951355,-0.003294984453414051,-0.011851559587805408
0.2653269,-0.01548855410756025,-0.012507967399642234,0.0,0.008233228023181358,-0.13169579662218014,-0.02421493031176956,-0.004137200849570814,-0.013302190095969571
0.2658462,-0.015976696823138316,-0.008533983960881831,0.0,0.0063753299542331915,-0.12815672541489348,-0.022752590469414944,-0.00929340151102597,-0.006747876102394293
0.2663654,-0.018609922920621122,-0.008025873015528014,0.0,-0.0006508559185478492,-0.0748512500949069,-0.018035125414495683,-0.017825304253664652,0.004729054620706888
0.2668846,-0.028611389470556817,-0.013141988850561247,-0.0007086629873501114,-0.00887315566937387,0.015322337554825562,-0.018042039448481463,-0.02399794761991297,0.0194673428155882
0.2674038,-0.046508870881629784,-0.018661805520997766,0.0,-0.015395170480827296,0.12043097577904571,-0.016160436999110562,-0.023989259305472476,0.028147082724821793
0.2679231,-0.060281331670821475,-0.016999420756783304,0.0,-0.018348778031450973,0.16236337803145096,-0.013052320436646461,-0.019272828386705982,0.03682880984274513
0.2684423,-0.049693126635623044,-0.00827389497671728,0.0,-0.01635139908667587,0.17656757683965682,-0.01033796363515089,-0.013505096803365542,0.0400110013699862
0.2689615,-0.01832943700895253,0.00527562612324758,0.0,-0.018879791584958245,0.1619427003331967,-0.012675906156107522,-0.007626992821155377,0.03360120163997013
0.2694808,-0.0031859563254502516,0.018903348204558107,-0.0004326303607094422,-0.029040807137539468,0.08613066490890031,-0.016940698375821572,-0.00781326575010795,0.028184858270041555
0.27,-0.00457901245731895,0.03147926385525674,-0.02461722702256373,-0.03203228884423759,0.009768271945511652,-0.01826494058615025,-0.01043020103192462,0.00844991510450862
0.2705192,-0.010876963119534377,0.03866569758600559,-0.022412540482798882,-0.032239779155101955,-0.010563423240234099,-0.018050142878134938,-0.012400342274636333,-0.01890948039941588
0.2710385,-0.0101165753185181,0.031814657691997025,-0.023672622639612485,-0.029968030377400572,-0.01107575368234696,-0.016917274744766325,-0.009634643346431044,-0.037236801020934705
0.2715577,-0.0018641823009856587,0.015885481343189845,-0.023764345896956796,-0.027585326079055145,-0.029393672885603385,-0.016036026988646594,-0.00684500070629577,-0.0408487705634204
0.2720769,0.011294789338851079,-0.0029692947953708325,-0.021817371404955075,-0.026156755373862525,-0.05166405363637354,-0.015658889338851078,-0.004574632148761231,-0.038095415083609724
0.2725962,0.024746865669753114,-0.02036385037337566,-0.023350001585691612,-0.026590471173579266,-0.07637795326448955,-0.01823057164192895,-0.0024581606342766447,-0.03845903619434013
0.2731154,0.04005619505988841,-0.028452726674067095,-0.024851995232809218,-0.022725146824786626,-0.10564273620844865,-0.02715130760530397,-0.0029660590243605635,-0.04226522658760669
0.2736346,0.04717480070665859,-0.02567377243459569,-0.025819159854720834,-0.01907820414035582,-0.09748827542380668,-0.029307292144037364,-0.008501119709441673,-0.044137172434595695
0.2741538,0.055262206254818536,-0.022237591368646406,-0.029509256875160615,-0.020353444763349663,-0.061420510002569886,-0.030371258011011513,-0.01848993750321236,-0.04565588835891984
0.2746731,0.051744769300907954,-0.017356746504539763,-0.03163090557241703,-0.01944007108520896,-0.02501320032649181,-0.03057990699092047,-0.019224123708171576,-0.04335596962739976
0.2751923,0.046061270474550435,-0.00753591463660784,-0.036243964998437676,-0.016214418573224032,-0.0019802615662892465,-0.02602956402254412,-0.0185081424294622,-0.041963829020981794
0.2757115,0.042461727120919696,0.003790029597528056,-0.04110439658660472,-0.009103248204325901,0.007930379705870867,-0.016762203808033817,-0.019686003985986734,-0.036361155603707916
0.2762308,0.04544228928808388,0.006174550362560119,-0.0424457339114982,-0.00493033686551979,0.002267142888919716,-0.00901251132167961,-0.021623471502138232,-0.032784374456159816
0.27675,0.052089418653197016,0.00035838952857083323,-0.04276600539332714,-0.003066967640037178,-0.009522020942858334,-0.008295789213345726,-0.023603240358176385,-0.031230073033364315
0.2772692,0.06302170689609968,-0.01601629929833317,-0.04512681723994916,-0.0014689544832402711,-0.022118220687698965,-0.016586127575143737,-0.02706534551675973,-0.03354399930698807
0.2777885,0.06736715442387971,-0.02776709777177896,-0.04758029016542966,-0.002325373742308715,-0.018798323520471245,-0.026051822406360725,-0.02695335518727855,-0.03852718055427141
0.2783077,0.065432257801879,-0.03669239923371981,-0.04884697813465931,-0.00213859220069964,0.013853395316293964,-0.03051381015377177,-0.024471210153771766,-0.037844205475223006
0.2788269,0.055048624253763105,-0.03675944690702964,-0.04483533793351181,-0.0017365703733084226,0.026714865934178912,-0.027553445573634445,-0.022246476680035862,-0.030916856693559713
0.2793462,0.04578010999104349,-0.028869426558957256,-0.04071395021461048,-0.0024226763443467767,0.00857710563608744,-0.021389099318610195,-0.02095463860139435,-0.026028633817217338
0.2798654,0.04326073858027495,-0.008532231777101525,-0.04145288502657119,-0.00559223476085923,-0.023708104814001624,-0.01631097486714402,-0.018000528952271704,-0.025422094654574443
0.2803846,0.04068048693986595,0.011695943469932977,-0.03957286859000597,-0.0085603,-0.025562227456379965,-0.018146997855234586,-0.010375634699329759,-0.02954893040979893
0.2809038,0.03063737851609494,0.026089038321855974,-0.039780017386807004,-0.01093654049463502,-0.008567026430255255,-0.022034158482234122,-0.003820989258047471,-0.035501665300967315
0.2814231,0.0075330002687515885,0.03583952370714225,-0.04016211164436261,-0.012095602526172427,-0.019308100284041244,-0.023622535485880655,-0.000767081061161357,-0.037564538012053075
0.2819423,-0.02984198554878311,0.04369657824667155,-0.04283363342348286,-0.011085732882585707,-0.047317478517120135,-0.01927765328367127,-0.000967333693931435,-0.03727852148287986
0.2824615,-0.05160826610096609,0.03955636769603363,-0.04246071260461076,-0.008890825607404996,-0.051115939909117496,-0.012608485550212859,-0.0023566015210302253,-0.038085155703863345
0.2829808,-0.05316210799029633,0.03240746395478318,-0.04070137230746006,-0.007345477142425825,-0.045383243883615726,-0.010955285126178865,-0.0029394276925399404,-0.03981282117139568
0.2835,-0.04118450425491105,0.021411349051891265,-0.038471318645464346,-0.004901508317243461,-0.07440851419797467,-0.002828129825254729,-0.003386112649973186,-0.04194582243739945
0.2840192,-0.020200482989937478,0.014050463981637389,-0.03701538980389659,-0.007031608148195331,-0.137594236781705,0.0050931482623741,-0.005834676225648879,-0.039131299286328136
0.2845385,-0.0018915102735915415,0.01909624730899306,-0.03404094604396068,-0.012815877692275216,-0.1688123115335508,0.00021198291081035616,-0.011093763296629066,-0.03338070648356752
0.2850577,0.012563566412817202,0.024175032873977806,-0.03378049351281002,-0.014639045410329883,-0.13208865981111984,-0.006169065309927722,-0.015261003795039732,-0.030515728640910185
0.2855769,0.029483271339301967,0.028197239957983476,-0.03481003506827685,-0.0153055043933738,-0.032020410094537176,-0.014990609388121735,-0.017231725183822294,-0.027418994900210755
0.2860962,0.03558924403100116,0.026892028427609318,-0.035695082159609974,-0.016121245522333277,0.02030332690113876,-0.020209108209667384,-0.01862619701733576,-0.021784271572390684
0.2866154,0.04150208019972858,0.021490296027887087,-0.03431227967794851,-0.018490917802985653,0.062012975705835596,-0.022768920753997057,-0.019216139600542845,-0.012441601520422953
0.2871346,0.05162528101878912,0.013135210517148716,-0.03025831275005032,-0.024671218184409142,0.1452119200768975,-0.029772911175663715,-0.015554837483721804,-0.0038543842090906304
0.2876538,0.06667252681789677,0.003296641373449442,-0.03256783723802532,-0.022669774476050637,0.22080453605373154,-0.0378881256055176,-0.009991746802820974,-0.004680905429371533
0.2881731,0.0802075797948529,-0.0032608452557217494,-0.034343063993078085,-0.02352279762140479,0.24004796432107187,-0.04543292531615564,-0.0075412803518392175,-0.00983700566799486
0.2886923,0.09190518858617652,-0.011804186850758848,-0.034735446940750966,-0.02683669452114952,0.20701965524462732,-0.053785187398643894,-0.0069005005478850485,-0.01675594210154807
0.2892115,0.08125193692965188,-0.018309186516344153,-0.030959255744252748,-0.0290836248529512,0.1026476267367469,-0.05328343739863694,-0.009079448998497082,-0.020582359042859093
0.2897308,0.06667228559362573,-0.01941427663184002,-0.031178876054441165,-0.02741114904591539,-0.009699114406374268,-0.044482855821274314,-0.00999093463954112,-0.03025818900687642
0.29025,0.04509368206727143,-0.014833190080765316,-0.02912873811660761,-0.03343002174421017,-0.05642509127894917,-0.029122526163152487,-0.011993470487609403,-0.03730374122053226
0.2907692,0.026528281615704717,-0.00951853593719115,-0.028105804416759302,-0.03566232785866757,-0.04089493087957817,-0.013602353680632751,-0.013308964062808851,-0.03918706028690323
0.2912885,0.009839916119228784,-0.0044394864476915135,-0.02750297135523085,-0.03435064065692546,-0.009307179200552768,-0.005397929158153211,-0.012646982854003097,-0.03978996743256989
0.2918077,0.00047659325500379237,-0.00043771621663461963,-0.02629414399404216,-0.03291618105672318,0.04853629263512938,0.0028685816854142317,-0.014542173258343075,-0.03550223557578764
0.2923269,-0.0016529073152314042,-0.006608180500364788,-0.02217230170125389,-0.03461189686490083,0.08645616864900826,0.015311716720528924,-0.020394953329505288,-0.026720490205890256
0.2928462,-0.003647422932999054,-0.01669179559901221,-0.019081521545848724,-0.033764333102141615,0.07726410295388739,0.019697115737727245,-0.023048678454151275,-0.020565476193839055
0.2933654,-0.017014943545137336,-0.03234293601609546,-0.017558995697690354,-0.03521090860461929,0.05402274785024337,0.008335145699088555,-0.024256594622112947,-0.016020582790761424
0.2938846,-0.03204143697247785,-0.044858421405118754,-0.0161609931892804,-0.03773169805408011,0.035047794465590955,-0.00983373405359802,-0.022573600259112394,-0.010583381513761075
0.2944038,-0.04442078208678711,-0.04784520301979856,-0.014333521194971272,-0.038200243316659714,-0.0032051685455998626,-0.02002639966194323,-0.01746352951351265,-0.005386195039313953
0.2949231,-0.056499743477228186,-0.05260397844152648,-0.012998944855655916,-0.032762513405824784,-0.06859135112697853,-0.022644862781744633,-0.020657839962761024,-0.0022155475069435358
0.2954423,-0.06669495539373338,-0.050063978480040315,-0.01401052094431163,-0.024935848744941105,-0.127483694211062,-0.024321168621872887,-0.021632980414510047,-0.008679106080379827
0.2959615,-0.06798383049390934,-0.044372394528206724,-0.014553550890993019,-0.016862124604384278,-0.1395723111431097,-0.028434240483585286,-0.0232015238686823,-0.020149445955378563
0.2964808,-0.053678022624333965,-0.03665994379249098,-0.01570630702593863,-0.00913199932499338,-0.12931960240220697,-0.028291527721080633,-0.02841602810375451,-0.02822478864266245
0.297,-0.039253915188572505,-0.03212276160380917,-0.016258698074778914,-0.0034339977088440493,-0.13458313766432112,-0.023475932302366095,-0.030471236518743134,-0.0317464676976339
0.2975192,-0.03384616707814577,-0.030861440831809278,-0.015925919740867347,-0.0008128289396710406,-0.14449077082905445,-0.016379760457039365,-0.028102793324482275,-0.035778800115637256
0.2980385,-0.03314299991685923,-0.034159733361046926,-0.015531164819810764,-0.0005240380556472507,-0.12818131311062606,-0.011981635013907688,-0.022614432138449672,-0.043240764986092306
0.2985577,-0.01675575271802482,-0.04254150503705925,-0.015598538991512827,-0.00204450885470598,-0.09518085783478866,-0.007133867099705703,-0.017742743299075214,-0.05371865946441224
0.2990769,0.013640835455219706,-0.057595838132990226,-0.015110542547985138,-0.005578662306072621,-0.037375133912408126,0.0004768897244050098,-0.018020539236738957,-0.053694349951396804
0.2995962,0.0435991902674735,-0.06714670412684454,-0.012306599511412454,-0.007584467712198209,0.04509131937945624,0.010896801452687831,-0.021643666748097926,-0.04700480412684453
0.3001154,0.06714704521014118,-0.06078411039045536,-0.015138807940743133,-0.008780795062765677,0.07866143065537937,0.009001602910390007,-0.01975401324553644,-0.04038673778538476
0.3006346,0.08229872949269222,-0.0530546668963288,-0.01746056978003925,-0.010861840287347034,0.04649468271821754,-0.00157023166693603,-0.01694998201142923,-0.04362088272089587
0.3011538,0.08479598517518143,-0.04420081505660632,-0.02073518635480811,-0.010540154470624346,0.012520008941248693,-0.010212209764380883,-0.014869908941248693,-0.046253791525389006
0.3016731,0.07880575907846535,-0.029671314325776587,-0.02264693479168804,-0.010285249616884587,0.012010199233769175,-0.012506353448038715,-0.014360099233769175,-0.044469533481547224
0.3021923,0.05883595675819958,-0.000519048699693946,-0.023326934097171004,-0.0110902025546167,0.048835965771277155,-0.010108652340434423,-0.015011808058505636,-0.03554854428192879
0.3027115,0.04443439554449011,0.016423979337314966,-0.023185783555036938,-0.01151382241766029,0.048553580568688325,-0.005590489099013193,-0.017553274881805078,-0.028488914217208117
0.3032308,0.02965110466444285,0.028830449313306077,-0.025839097888154063,-0.012097812438514263,0.008717644091831574,0.0021626015548142827,-0.02153449595773456,-0.018519438805211317
0.30375,0.01914078473769916,0.030873733059434687,-0.027260611088286223,-0.012401183367570665,-0.014720899794576013,0.005025844558568882,-0.02128571964173944,-0.013073985902403669
0.3042692,0.010464197044681578,0.026574727384392892,-0.026736901801114397,-0.011506725612006193,-0.03287845358987583,-0.008664029778984034,-0.021591185701973842,-0.006722595243567181
0.3047885,0.010671663579916984,0.016150198850819468,-0.024559307726822712,-0.009397758535701146,-0.04765608290751508,-0.021619199957834734,-0.01816439885081947,-0.009018486802550381
0.3053077,0.013331035606634348,-0.0017705974242459167,-0.023920717479339795,-0.006894004511585885,-0.056271836246556635,-0.03206671231979916,-0.014404868265029252,-0.013970846274103573
0.3058269,0.016218930021583384,-0.01378284138860807,-0.023225294032581247,-0.006372602295736852,-0.042739874514060534,-0.03192295723544688,-0.012265791792674183,-0.0238157345572273
0.3063462,0.022395874875008378,-0.02077348715285628,-0.021915036231495606,-0.0082246,-0.011962548900428945,-0.030905581192142713,-0.01025215862271397,-0.02865031742363832
0.3068654,0.02663184318910974,-0.025009153804779017,-0.019162751138967763,-0.012756106833806583,0.015987503222965428,-0.03207332935047503,-0.010182643189109738,-0.026016777266477366
0.3073846,0.028799579736801903,-0.02286913450072736,-0.0193027,-0.01611158554313899,0.015837385981802485,-0.034407185543138985,-0.012794305587005339,-0.01946540908918742
0.3079038,0.033129431000934115,-0.013668703241197488,-0.02194420210639835,-0.0139315,-0.019189482860093917,-0.03964212893221633,-0.014902148379401256,-0.015878695862564428
0.3084231,0.044462214669158236,-0.0028827261784299773,-0.025366672128142937,-0.009583903289752956,-0.06819153765493648,-0.045632436058610594,-0.013816285308998264,-0.014116895102999422
0.3089423,0.054488558941054546,0.010880984499696204,-0.025946328558256467,-0.009077845470304872,-0.10239010147229043,-0.05050009032280024,-0.010455095588640578,-0.0160545316184171
0.3094615,0.051196164148150765,0.01828733804792633,-0.02670884599074058,-0.011088426100224435,-0.10638233874675482,-0.05248581399236979,-0.005833008018518846,-0.01670048396296231
0.3099808,0.0461585,0.01098801955886493,-0.02679744186442929,-0.011110145118657573,-0.08554155725449392,-0.04877253535597272,-0.006425093932081831,-0.01746213210174444
0.3105,0.04393243297901088,-0.0011414988665896307,-0.02632585858217075,-0.009402411839049484,-0.05285699190294145,-0.04154146493274226,-0.00845436005734095,-0.022473112630700023
0.3110192,0.050049664782559886,-0.012267380749328543,-0.02581443868643888,-0.007454590388423174,-0.010710509731642613,-0.03934351934321944,-0.010268786984454586,-0.02761087113775172
0.3115385,0.05823350175470614,-0.018084870561573062,-0.027101488441730135,-0.007593049394023068,0.037678113312976005,-0.03582968844173014,-0.0116982826625952,-0.03197004361488814
0.3120577,0.058958512924766934,-0.007002093004470404,-0.02543701117272623,-0.014783283287567022,0.07057504907100667,-0.033675852088598315,-0.012420021185847467,-0.03309049912397965
0.3125769,0.054942140538524545,0.012342608358947038,-0.026412576747985174,-0.015917127336430713,0.08461316468312263,-0.03234928905749576,-0.011918913526061442,-0.03147828934180358
0.3130962,0.04691614532515161,0.025290800111428754,-0.02659115566929332,-0.01229680088301618,0.06733972244182176,-0.02764069042744572,-0.009145851048055847,-0.02824074806892797
0.3136154,0.03347966789306688,0.02813785400856581,-0.024709784088878396,-0.006690490844108735,0.040091404622620876,-0.020022371058447053,-0.0015944220969721192,-0.025968772711027183
0.3141346,0.014630036181974563,0.028407204272961843,-0.024768776636910968,-0.0023551013911575418,0.017610631909012717,-0.00946913957141192,0.0056169103129726635,-0.02369383618197456
0.3146538,-0.0007290049614631247,0.024213880659246095,-0.024969430053525955,-0.00044990215255020203,0.000791115825499302,0.00048346562359258955,0.014112926707316531,-0.023367064026119943
0.3151731,-0.005112658904843049,0.021133051285631137,-0.023941180738052664,-0.001404019261947338,0.0029759294524215247,0.006608441292632929,0.01579343532315823,-0.02241525880610506
0.3156923,-0.002491417684224052,0.017278860350370927,-0.02200563867841653,-0.0025886183619859703,0.014356978621496232,0.004408636046210022,0.00976127379283459,-0.018524768195550365
0.3162115,0.0014448340269766604,0.011327449994621881,-0.022313378886208816,-0.0025229613405328474,0.015615261340532849,-0.0033932680539533206,-0.000681361351289083,-0.01663814536213139
0.3167308,0.010005479523572194,0.007946022858566838,-0.02281316928535829,-0.002696864166251339,-0.013029746071962564,-0.00990013345160963,-0.007725503634751313,-0.0198913746362086
0.31725,0.020158302473329583,0.007743015164274534,-0.021697486484611856,-0.004213033058518935,-0.052668227537489655,-0.010999976312100987,-0.009790879609873767,-0.02076332973819391
0.3177692,0.027377206989028676,0.0069200983310544395,-0.02079599225994582,-0.004830200166894556,-0.07113020091792005,-0.011171998831738108,-0.007665399499316332,-0.020281747339958443
0.3182885,0.029233307929818035,0.0031620425544003224,-0.01815630889825475,-0.0036370336561455715,-0.06887476731229114,-0.017678314891199354,-0.005707350484218357,-0.021694141315926795
0.3188077,0.025978073005402277,-0.004898903900399053,-0.019063316051917512,0.0004962769058013275,-0.03496010314188211,-0.02622708870213419,-0.003174652377025853,-0.021710389057319788
0.3193269,0.019133544188063036,-0.014379676666700522,-0.02209903835473817,0.0032318235309748288,0.026213658728599397,-0.026410709145338006,-0.002741788333350261,-0.018210152938050343
0.3198462,0.01707297608242863,-0.01847739430855042,-0.02425933711003807,0.003744622279135125,0.08587742127907803,-0.024768139334068514,-0.006445794084634174,-0.018048932471430534
0.3203654,0.0299220029821021,-0.020610704478950526,-0.02633490742200744,0.0018810955210494759,0.11166599849786635,-0.025125201535893607,-0.011350286563148427,-0.023574568647346333
0.3208846,0.04680307692609408,-0.02023591189391754,-0.026024405435128056,0.002329776212164918,0.08596342936869415,-0.024698429368694153,-0.01185893010089355,-0.02510211350404735
0.3214038,0.06295418139820212,-0.017508229524681892,-0.02509495118561698,0.003974993008989387,0.024904214104712493,-0.02114752253367128,-0.010313569787414857,-0.021998978216373644
0.3219231,0.05639016671651248,-0.014395673090944769,-0.024174274203195966,0.0029129060585767422,-0.015873369114906537,-0.01696399935314179,-0.0064176269090552305,-0.01833410365260913
0.3224423,0.042363327311882935,-0.012141752033042772,-0.024275975726633904,0.0017808223060206177,-0.0334805029507249,-0.01309875645913012,-0.002343343540869879,-0.021266792087602075
0.3229615,0.03507749609201477,-0.01537428533103557,-0.025018484051282545,0.0016130237030654358,-0.060240597433390275,-0.010583484051282545,-0.0013975194095775184,-0.021796643952374486
0.3234808,0.037390062822388194,-0.02036062338650983,-0.028281793128599277,0.0008593697903899869,-0.0830241819166028,-0.006966509274568885,-0.0037959605158211025,-0.019686804613134174
0.324,0.05309398197263241,-0.02658964752869487,0.0,0.0011955472879334999,-0.09014711160536962,-0.00620101568239071,-0.004188692098614302,-0.0193027
0.3245192,0.07310477284537573,-0.03271639757182081,0.0,0.003071006383281893,-0.07605184748131348,-0.005300187859104045,-0.003496395143641618,-0.019416319425433527
0.3250385,0.08132992196027812,-0.032115731602360524,0.0,0.0040526264592595125,-0.06983916264877607,-0.003812342241261154,-0.0029172104625513275,-0.021860679074897343
0.3255577,0.08259575682217594,-0.02374326725490305,0.0,0.003641116051385997,-0.0593265509038424,-0.008005372059911831,-0.0001159040343343289,-0.02859984845383264
0.3260769,0.08372702147086271,-0.013999102327094566,-0.0014951508840172715,0.005535584145377951,-0.011500267297699342,-0.017987920601826267,0.008119827583109963,-0.035804613062525914
0.3265962,0.07961964817195262,-0.00985471469884415,0.0,0.010284188193064902,0.05500178773957507,-0.0271204706023117,0.01940545761186548,-0.03704631469884415
0.3271154,0.07215916742952297,-0.0068791518049982165,0.0,0.010269438761746172,0.08863603654635324,-0.03021351318960395,0.02404173537340779,-0.03476512859460084
0.3276346,0.055606921870919944,-0.009637646144171765,0.0,0.004832118605194087,0.02966904330289041,-0.029088182034083136,0.02880979262894332,-0.03552119745739608
0.3281538,0.04519338645623266,-0.016418334528311217,0.0,0.002264564212363905,-0.056660459213554074,-0.02921175310967437,0.026920503700995278,-0.04061751602422372
0.3286731,0.021619750566957766,-0.02740878689109083,0.0,-0.004584540395666235,-0.06430602429924541,-0.029689553479628396,0.018637903087299693,-0.04045828086617349
0.3291923,-0.011444996441880899,-0.03506970638243091,0.002050528818228288,-0.014521162021675018,-0.04532371377741156,-0.026127678623398386,0.007892784912537244,-0.034356782134871464
0.3297115,-0.04200012226182171,-0.03917469005707461,0.0,-0.022726193360905533,-0.06740694050528831,-0.02218184636699336,0.000886352930852528,-0.028356825553282564
0.3302308,-0.06328755964390112,-0.03673438837648339,0.0,-0.028336474031373616,-0.08860909888945036,-0.019272674031373616,-0.002151974031373616,-0.024032425968626384
0.33075,-0.07786817819416914,-0.03134378228468166,0.0,-0.025339360056743976,-0.06782722425935525,-0.019397621411401427,-0.0016489322985203554,-0.02466107407597923
0.3312692,-0.0847639,-0.02334443965485827,0.0,-0.016915216680912813,-0.040712185718425414,-0.02203663497185804,-0.0009587602282440553,-0.026081053029007928
0.3317885,-0.08490534395973792,-0.008745387646336193,0.0,-0.0061350938231680965,0.002164221475678519,-0.028971762217093983,-0.005172588894540122,-0.030173020500614236
0.3323077,-0.08422577635423463,0.004326967239821178,0.0,-0.0006905736213213929,0.06641871174249672,-0.03544951908855866,-0.009029276354234622,-0.03749452906270387
0.3328269,-0.08540631361059203,0.008458847637072102,0.0,0.002113158404482455,0.08530721992812523,-0.03574465340264801,-0.010209813610592028,-0.04103614083177609
0.3333462,-0.08672608508304704,0.005076154146833266,0.0,0.0011055484990032153,0.04823995350192046,-0.03373192056478301,-0.013679600949842849,-0.03971094677739606
0.3338654,-0.08318108475196781,-0.0022524961732234053,0.0,-0.0030413897952624148,0.022955027409393078,-0.03321401020473758,-0.018498651586570658,-0.035540411480329784
0.3343846,-0.07646986485153952,-0.0037584025736742315,0.0,-0.005605976773373439,0.016335718233538413,-0.030532218861067353,-0.01756048775915778,-0.03246269290650624
0.3349038,-0.06311608729915671,-0.0010914324668251296,-0.0035303656296096454,-0.007916180530837121,-0.009589893231680403,-0.020643895302412646,-0.012838462835587518,-0.029975942400976778
0.3354231,-0.040213558626572846,0.0014218950101590438,0.0011705194722465854,-0.011333582066965232,-0.049627056552783114,-0.008275439996587749,-0.00927353405956876,-0.027285204397807173
0.3359423,-0.021095907678992148,0.0001568626662953917,0.0,-0.01681251311059123,-0.06519712617700531,0.00395622265512101,-0.0108493295280284,-0.022597053077588462
0.3364615,-0.0027542834729322586,-0.002998371053426411,0.0,-0.02992286525807097,-0.0701609073649238,0.018867775476661693,-0.013519508421370565,-0.01834135789314718
0.3369808,0.005651089553131332,-0.0015491539213440975,0.0,-0.03919785490339778,-0.07653746274608597,0.023215340532894806,-0.01293982156853764,-0.021239792157311803
0.3375,0.01999485941847031,-1.564727127723552e-06,-0.019270579094162285,-0.044688790672113426,-0.07665985041937567,0.015203780143140552,-0.009214070035785138,-0.025441562717513144
0.3380192,0.028732864091328098,-0.0028687085297481236,-0.018997513906197104,-0.046463755064901094,-0.06341631081610641,0.0031889118726726087,-0.006210352968168152,-0.026260758281408683
0.3385385,0.036630667164869915,-0.007570524189591199,-0.018811098484838227,-0.046128537857514494,-0.03425393795289431,-0.016539518976447155,-0.006330274199867209,-0.02753993795289431
0.3390577,0.04592746062214847,-0.013683017185123726,-0.013914056562975254,-0.04136286023034081,-0.007407118133554588,-0.027194506373481038,-0.008968680121580017,-0.02753311447900825
0.3395769,0.05097536496799735,-0.017889604139997795,-0.013072739172000442,-0.03673557281067187,0.007736594903992061,-0.02733468416933604,-0.012474127481334276,-0.027813553609333186
0.3400962,0.05622883088075796,-0.018966330880757963,-0.013107691577975101,-0.029983446417925545,0.03454623867384487,-0.026780649467850606,-0.013962048596329183,-0.0291903084220249
0.3406154,0.0569009,-0.015016394207669077,-0.014244973083523122,-0.0267519032125042,0.04844569656918555,-0.03195362214673483,-0.01360135672911922,-0.028548290995164878
0.3411346,0.049972500150804455,-0.012710000150804458,-0.014813963595235147,-0.02472239867530142,0.032697819677885466,-0.037018281571410884,-0.014246427265872526,-0.02748403640476485
0.3416538,0.042090516928560466,-0.012782160057718423,-0.015146083071439538,-0.02168275986730785,-0.0021353713741684077,-0.034231885115852484,-0.014495628054599875,-0.025774157251663182
0.3421731,0.03900482143975425,-0.009722788555424366,-0.014606909358812632,-0.017699246312281845,-0.035330654374272824,-0.029905406688881638,-0.010620514064317944,-0.022463585859394373
0.3426923,0.03411698766150552,-0.005585400440660517,-0.013781401762642068,-0.013213699559339483,-0.04030160176264207,-0.03175359815659794,-0.00421799383075276,-0.019041999118678966
0.3432115,0.025790450071026212,-0.005309325177565527,-0.01622010503640559,-0.012698250071026212,-0.04127034172585517,-0.034741275106539314,-0.00011126813164616078,-0.019085306690788315
0.3437308,0.013466432516650017,-0.009656740995295838,-0.017611969338751383,-0.015536078869513891,-0.05586905908600698,-0.03660810282621527,0.0019293968789222185,-0.02015583690340418
0.34425,0.0041737951231293905,-0.009528192021649527,-0.0162814,-0.015222021953968577,-0.08358540131803828,-0.032294078054082256,0.002840331044665237,-0.02099986961837932
0.3447692,0.002388794075505899,-0.006404484498730609,-0.0162814,-0.011057019509513766,-0.09667532037976616,-0.024261573339776545,0.001799124743973727,-0.022487281870554512
0.3452885,0.003018027007088611,-0.0028106309555060577,-0.01725752784948715,-0.009311890365893952,-0.05982596964988863,-0.01949940060539469,0.003505587022871193,-0.02510573035011137
0.3458077,0.004997227569330417,-0.000892858346269251,-0.0179246624448488,-0.011995455281650125,0.013839569223061166,-0.02626645176055004,0.00606320684970701,-0.025123741653730748
0.3463269,0.011999759921387403,0.004283294134104277,-0.017550996912490093,-0.01589227145664736,0.058448145747976826,-0.03875405009826575,0.0061352537188994125,-0.02393908998034685
0.3468462,0.027097521760099618,0.0037542607888528985,-0.016727239811590775,-0.021864391174019435,0.05621114313689177,-0.05154415626266456,0.0037962523461798053,-0.02303660294199352
0.3473654,0.043830986730310204,0.003314432036758465,-0.018087487067518237,-0.026110615849775212,0.02726540097243115,-0.03988770583458691,0.0017836339816207673,-0.024962505153032555
0.3478846,0.056062735555242875,0.002896726927885061,-0.018029631314101024,-0.0250448568883886,-0.0038821634639425303,-0.007348754463801825,0.0006588346469653378,-0.02809014455538358
0.3484038,0.05802712891010387,0.004082537863286849,-0.015214690454135251,-0.020439772275259664,-0.022375436594056792,0.02239704120690309,-0.0008121286137629833,-0.029620017798668175
0.3489231,0.054224568518467284,0.0074955397086578215,-0.012721380199410494,-0.01928075217169588,-0.02928472336188642,0.03507923048448024,-0.00022087207976419785,-0.030031735932403287
0.3494423,0.04917307990696555,0.010605723840389015,-0.012892349375440907,-0.01807207241225642,-0.030923897501763623,0.02151252043143571,0.0034759020526916895,-0.029893220538579134
0.3499615,0.0464942,0.010351781821501507,-0.014362650647927926,-0.017656016882642643,-0.030288494816576594,-0.012691935950215342,0.009277802591711702,-0.028271049352072072
0.3504808,0.0464942,0.00844124872652917,-0.015181450545773212,-0.017928950181924405,-0.023738095633814297,-0.027976119407253704,0.01255300218309285,-0.027452249454226786
0.351,0.042379524959646545,0.0017115710548025924,-0.015729436489692234,-0.02210402798290647,-0.019950484229074784,-0.030816925921937483,0.014257654321586438,-0.0270237
0.3515192,0.03436516005771028,-0.006757853096193452,-0.015406772964429017,-0.025204214128852237,-0.02732910624754078,-0.027641907167335417,0.01238998397640461,-0.026935384690380655
0.3520385,0.026594643107896093,-0.0109117479987683,-0.01685399660665356,-0.022110919552716348,-0.0322050617127021,-0.02501106225154504,0.009785038696365296,-0.02553736028545035
0.3525577,0.027555430033285845,-0.012130455834642933,-0.01682296128633108,-0.017457565758051977,-0.014397038713668922,-0.031473548637077964,0.009974054351824826,-0.026498111166435006
0.3530769,0.035329544475346523,-0.009352871016264995,-0.013369153914638495,-0.018271365796747,-0.013320685508132498,-0.039489489560964014,0.00929834225419424,-0.028293797390241
0.3535962,0.04038511868929242,-0.005430868665517599,-0.00997250119931056,-0.02084805059965528,-0.03627317838375565,-0.04575906502003627,0.008915365067585921,-0.029148864444155816
0.3541154,0.038311775354532396,-0.002911996510414151,-0.009013193020828304,-0.019146077328130284,-0.04768038907363253,-0.04219098837500604,0.009905303610094132,-0.028536591864591884
