Time,Rectus Femoris right,Rectus Femoris left,Hamstrings right,Hamstrings left,TibilaisÂ Anterior right,TibilaisÂ Anterior left,Gastrocnemius right,Gastrocnemius left
0.0,0.05769201987083435,-0.005811408965743017,-0.00849495572117137,-0.015228898505709496,-0.0043805616856983235,-0.06497353629539483,-0.000606055721171369,-0.030882872145731845
0.0004655,0.11091673375164858,-0.0021243114022427567,0.012252948715640814,-0.014917621759987969,-0.016176409355773157,-0.04645234296414263,-0.006614329002122445,-0.03750382384004211
0.000931,0.14808797821196262,-0.0004888131419691817,0.021768744069232765,-0.014322879013983703,-0.03223437491541205,-0.026231178182473867,0.0009685967181938006,-0.03958542345105704
0.0013966,0.17336288590629517,0.00040057618772317943,0.016769127291760423,-0.0142672,-0.03874467637716565,-0.00372122618244969,0.028333154404625357,-0.03992752014335075
0.0018621,0.181529256313845,0.0008671562457436647,-0.014838102560902818,-0.013903543754256335,-0.03949960395943651,0.026644640307770265,0.047320947200742404,-0.034927715869872034
0.0023276,0.1772054582172267,0.0009605068770048299,-0.05790567840318652,-0.013586054726092443,-0.056202306171577995,0.05063518259974761,0.022544376558355686,-0.015574358594862508
0.0027931,0.17726790014194083,-0.0009406232937224803,-0.09651356277217575,-0.0132601,-0.08571421216945686,0.06694644606484934,-0.01066932156568908,0.00876314658744496
0.0032586,0.18620724699767868,-0.006324883959321623,-0.11192525332727275,-0.013407293661984945,-0.1016779317479843,0.06582535334411477,0.004512131023330349,0.018215104822377155
0.0037241,0.1976564559471608,-0.010303956503396454,-0.11718596582409721,-0.01238290932070076,-0.09728203106900253,0.052763636703611144,0.04570565976365542,0.018717906213800508
0.0041897,0.20028697683344043,-0.013161230525446025,-0.12228870209262227,-0.013652296842602272,-0.09755520842883304,0.042709288429282566,0.08893588578100257,0.01193167525954726
0.0046552,0.19045145533233585,-0.01230881462494994,-0.11496622641600106,-0.015498370750100118,-0.10953280500066746,0.048789103167463904,0.09391223695878201,0.00432562187458284
0.0051207,0.1717647605676699,-0.008453257054380334,-0.07391877206135414,-0.01614377335563186,-0.12904263811153138,0.06947390236272194,0.05407263766242481,-0.0020043942942195737
0.0055862,0.14632664104139786,-0.006149070129179638,-0.008179114121961116,-0.014959039230037054,-0.14612349359216692,0.0813205234811778,-0.01967131918711818,-0.008002997048616386
0.0060517,0.12883488570080892,-0.005729308684934956,0.012810958939262432,-0.015098931921882651,-0.14332480606817607,0.06005058166755517,-0.06584941322684368,-0.01108155332500633
0.0065172,0.10090429257693864,-0.0057069,-0.009404704883686133,-0.016479171387209352,-0.12014424532792847,0.01697083220782314,-0.11437700021403034,-0.015821653174219033
0.0069828,0.06422859651925615,-0.0055488838985020645,-0.04634447966028949,-0.017564914269318468,-0.09587254981740037,0.002488559138994794,-0.1856677546023964,-0.021968191502687757
0.0074483,0.03147599599795536,-0.004274359567006448,-0.07183090929756505,-0.017401395858866874,-0.08712817862911593,0.028167484901624285,-0.24882921513196826,-0.026048347421784027
0.0079138,0.00911308186207994,-0.0019343994275946219,-0.08760323642152008,-0.016513693961666562,-0.08189082541682396,0.039425610736255924,-0.25008583050594685,-0.028677446012965246
0.0083793,-0.013086720574438705,0.0041283145661327935,-0.08514868793593187,-0.015333855622001916,-0.058942626489736326,0.02601784906884797,-0.15770368607172353,-0.031601178106200965
0.0088448,-0.031028545704709486,0.011660169881197236,-0.0678041618323868,-0.015164355378357636,-0.019711103746124326,-0.006445830133593957,-0.040785342485090505,-0.03499410967364815
0.0093103,-0.04103059814395259,0.01653449420812044,-0.033776612166686475,-0.014843493738959827,0.004828771844561645,-0.023170404750089118,0.05269261668924211,-0.03773447659465076
0.0097759,-0.04043990179953702,0.012916539593952458,0.016111818039330303,-0.012580839593952458,0.005601980335774416,-0.019247319728831563,0.08682551227372921,-0.03183424535955353
0.0102414,-0.0424659,0.008683322059282685,0.05001510385791265,-0.013637611687330667,-0.002922156265306882,0.00689508396997642,0.0790521615395062,-0.022108896601498198
0.0107069,-0.048456153569614066,-0.00030363150427975495,0.05083648529842069,-0.01231278795858707,-0.012725106804709771,0.03378752329882256,0.0601682180621194,-0.013283124783199577
0.0111724,-0.06773938651538386,-0.004203848620292025,0.03671419664262077,-0.011939170526307339,-0.0111982911521414,0.023852118321230086,0.08034289283123248,-0.0129244
0.0116379,-0.08853953973243972,-0.006670578362614331,0.03086349231402439,-0.012222825480373475,-0.014591588530026334,-0.007847499740713698,0.1126004914947956,-0.019951486048589942
0.0121034,-0.09558870283702647,-0.008387094952066609,0.030681758990413324,-0.012253,-0.022163926088957436,-0.027167295801357093,0.09607935530409636,-0.02696764911771747
0.012569,-0.08358386068054006,-0.01146191455436023,0.02382260264161095,-0.014436493837084225,-0.020487126523168163,-0.015768365433394455,0.030299694542114914,-0.02922873145453437
0.0130345,-0.07674832512264457,-0.011353872417332954,0.004301640578769552,-0.015166040001406117,-0.020466291773373724,0.006463081442705536,-0.0066428648318536745,-0.025643875810699438
0.0135,-0.08219050805990673,-0.009395718827974898,-0.04772357095006183,-0.01792382893227428,-0.04182607647830295,0.01575378453820968,-0.010083569023333067,-0.02545740805990673
0.0139655,-0.09470395728459496,-0.006365192273157907,-0.1153699808429709,-0.01984700963234982,-0.07122074388207028,0.014347225007212175,-0.040411311148016014,-0.025661461054769834
0.014431,-0.10557931472826775,-0.0022903754528870897,-0.13785137885556212,-0.015685422394326347,-0.08173614058221966,0.0040087458402609496,-0.12959512886006655,-0.02679954754528871
0.0148966,-0.0987434136873432,-0.0031411684693070105,-0.12170368974967456,-0.014449797659314723,-0.07274513925369537,0.0052770327604970396,-0.19101990415251305,-0.028263200409934682
0.0153621,-0.09839834398789925,-0.011693156469292977,-0.06481827160103719,-0.015235734836115893,-0.04892943597909644,0.004803671665316982,-0.1827336232048268,-0.028328713331498386
0.0158276,-0.06054211986147883,-0.016428399511464076,-0.0019817345071071134,-0.012340590309691915,-0.02479142151580999,0.007374305680450819,-0.084001835696838,-0.031211395485344406
0.0162931,-0.002097250609685344,-0.026240064448148186,0.061355999428441804,-0.013917890819852959,-0.005355621789643265,0.035527156198378686,0.057663989105178365,-0.02497662372665264
0.0167586,0.06541897925360975,-0.033664337264266424,0.10443399083244741,-0.013658768839836632,-0.006902649551391748,0.07576299971963557,0.16860468160877162,-0.02496754135997487
0.0172241,0.09944072347982433,-0.035199879673319945,0.10409239284635956,-0.01140085427708765,-0.017085023995697432,0.09123884939192974,0.19342030942212296,-0.0250095
0.0176897,0.11273716116425926,-0.021917003639272042,0.06107876495812481,-0.009608784066808174,-0.027175467465812658,0.06533016777499967,0.1509517585627981,-0.02435189651532146
0.0181552,0.11635573336484284,-0.003070318341167582,0.02745633300084071,-0.01096570372875871,-0.02114460362470998,0.02251066621437056,0.10873526254239632,-0.02480426295366271
0.0186207,0.12921652536757866,0.017612877631974794,0.0031695855598810174,-0.012394893088226758,-0.005961064948185473,-0.0446144699210806,0.07755650164278426,-0.029013113813467703
0.0190862,0.14303798606497278,0.027364298523219838,-0.008578961312681828,-0.013616719450993381,-0.010397133386020604,-0.11878852453762237,0.05831833491940754,-0.0360453788514165
0.0195517,0.15570923072159418,0.03134843765600051,-0.019169439346607652,-0.010965307281599284,-0.020886730374401224,-0.2022532436895957,0.05480234534030032,-0.038820434812799384
0.0200172,0.1599736274950214,0.03243025928060777,-0.02334873674680865,-0.0119173,-0.022482988602930208,-0.22069565792126444,0.04992624254669329,-0.04019994631657738
0.0204828,0.17457552208786742,0.029135142819299378,-0.0594983972706629,-0.013327648298153522,-0.016232284819695762,-0.21230685701597352,0.022317782234905797,-0.04058475510553943
0.0209483,0.176669698420334,0.02165739446435145,-0.11405608705639135,-0.013798678359440236,-0.00584156413078165,-0.15940058666291304,0.008633310177754917,-0.03779102144283535
0.0214138,0.15648776389320268,0.014264835297808044,-0.1492162027938221,-0.013101411114214034,0.0001331317388698771,-0.0905968230249516,0.020556993642504295,-0.031351657535706984
0.0218793,0.12397219643976969,0.013508236198609962,-0.110783857647953,-0.008306580626081944,0.0005094348847343496,-0.026355223022109523,0.03342846779643353,-0.02565074516515661
0.0223448,0.08491049376805639,0.002106426162279074,-0.038863044259117054,-0.010427925394850254,-0.00599290337178141,-0.007449176184550767,0.035472942466736664,-0.01900008262947374
0.0228103,0.054674734981420246,-0.0029363996153286063,-0.0016577052035392523,-0.010187368769962634,-0.008217391083941542,-0.01945427118379749,0.025412960046239875,-0.014103776195001045
0.0232759,0.03693356334947135,-0.009294810363995565,-0.018833338000741506,-0.010250885655370055,-0.010735636650528648,0.002400924708625512,0.01390732868925989,-0.009653340631163028
0.0237414,0.01909220258899615,-0.02019284015087917,-0.038047411732235144,-0.007661890060101649,-0.020020862018655543,0.04113135626444725,0.008569929819695057,-0.0053119900601016476
0.0242069,0.005348189188163829,-0.027765988471018264,-0.03874867868264146,-0.006259439713077942,-0.03067940110224679,0.034960574737542945,0.012777280860766176,-0.003909539713077942
0.0246724,-0.017300376104917626,-0.03848680163668467,-0.02771367252683943,-0.0058928001363903896,-0.042337876482160725,-0.008549552282369496,0.02460960204585584,-0.004812924504500076
0.0251379,-0.04443543754226284,-0.04674415642386967,-0.021956279922124504,-0.006479258175733736,-0.05736431017826887,-0.03388212561212991,0.03474330912133132,-0.009263630033464455
0.0256034,-0.06934092225293982,-0.050010950533754074,-0.01709635160126222,-0.005789425088959012,-0.07119747454453575,-0.05251393179415131,0.037297087989274565,-0.012887162188643457
0.026069,-0.08789229547432892,-0.04517109092947722,-0.005605999189165965,-0.005238118932698977,-0.07414700669365182,-0.09167241039121896,0.031601266150410985,-0.015112694663494883
0.0265345,-0.09231921211132092,-0.03658675927678089,0.002219551469616994,-0.0073610692360232995,-0.062678335846891,-0.1231903177748045,0.009211819827789028,-0.017196847508089846
0.027,-0.09253094412538973,-0.015812047310064622,-0.00047355292760061993,-0.006002366954810028,-0.05904026444087489,-0.1009051144197469,-0.024414530920354425,-0.016536638703262992
0.0274655,-0.07136835361908483,0.0054198760716453,0.0002652392398645579,-0.0051166624303221366,-0.04473987203497522,-0.030261555233752874,-0.052233632001694875,-0.021566023942272937
0.027931,-0.0563683719208263,0.018991989698624825,0.006703285586673812,-0.00488348286570107,-0.038970028079173706,0.021417654059376626,-0.044652262283278656,-0.01475846095562359
0.0283966,-0.04377194784876472,0.020127499056561342,0.006354918573442692,-0.005481196226245362,-0.04411100787156336,0.03283910498882558,-0.037961310649457534,-0.014422376980996288
0.0288621,-0.04399546000224836,0.012397205717176459,0.00993624476393899,-0.004524807619154684,-0.06360544740617056,0.041770862644479934,-0.05827321348448027,-0.013253007619154685
0.0293276,-0.036875598919100895,0.00327831400344388,0.002884768843367601,-0.004209895177283883,-0.07842003601376372,0.05584607582788194,-0.0998694886815963,-0.01291527078829587
0.0297931,-0.02738513586391998,-0.004537331698187513,-0.03214350708471541,-0.005801636126610206,-0.06674169952298524,0.040460736253371335,-0.14889356791236114,-0.014558657274857108
0.0302586,-0.020139107908578324,-0.01787862130708093,-0.03468913557822068,-0.004507475046512578,-0.025925149534874223,-1.623126221267108e-05,-0.16610628399679303,-0.017558304820322765
0.0307241,0.011034570803672572,-0.027082268353135132,0.001132125039011449,-0.006350778529449064,0.027925739637175165,-0.023612965529575883,-0.1451402397987648,-0.02109591140158265
0.0311897,0.04837452298988472,-0.03091194830827775,0.03851774637340305,-0.006775710505870465,0.03955960940862584,-0.029575408879051853,-0.11691658246341419,-0.03077511942819141
0.0316552,0.08381860329182449,-0.035534713307792114,0.06468521914868261,-0.008298318225627719,0.03413407800064289,-0.01698455485717957,-0.08582533747404958,-0.04125606938963506
0.0321207,0.08739731706300388,-0.02991309514044687,0.06349405279145277,-0.011553693085439536,0.01537213647503034,0.0007731692606544934,-0.02419824087906024,-0.03868220911657541
0.0325862,0.08027817480929708,-0.024513551105567334,0.03693950938968787,-0.009222518395762727,0.017103177227283863,-0.0011363653527610292,0.06522120540490643,-0.01904553847679178
0.0330517,0.0632723879913805,-0.018658517255172688,0.024750920686206827,-0.008598860343103414,0.026418077598276104,-0.013028737941379516,0.12228384849551746,-0.004408287630342995
0.0335172,0.054408372727969216,-0.01663245662353582,0.025257435844116043,-0.008852117922058022,0.024645274545593843,-0.011509192467651865,0.1327940003013147,-0.005801242035412371
0.0339828,0.05119449416862195,-0.016339879293860816,0.02292238619590721,-0.008998196927684008,0.008006339709665205,-0.022308984367824455,0.10667237652057932,-0.013245171321146077
0.0344483,0.049620851595278764,-0.011968398036579989,0.012833205954203123,-0.008709675306784377,-0.02354563089284625,-0.030252556567771878,0.027866491612203757,-0.017526707160658735
0.0349138,0.05009878750086618,-0.008063387081606319,0.012911125836787364,-0.008775495609141754,-0.038302846794409505,-0.021890249673307105,-0.037149557342267686,-0.016982707434834658
0.0353793,0.05225213244584586,-0.00706596091986844,0.014107240231394822,-0.01031089513878563,-0.026362881346469885,-0.007075459408669279,-0.025537792580097786,-0.018346051988767063
0.0358448,0.04503609305692952,-0.005609187743950608,-0.0010622960108473876,-0.013540652486895951,-0.004286441385079353,0.015101338091974476,0.0098079937023818,-0.01550471838407409
0.0363103,0.037167463140408405,-0.004262849139186862,-0.032657836859591595,-0.01638657474383664,0.0018270391557988794,0.0429637395446754,0.0197365419020786,-0.017838015908552298
0.0367759,0.033389436196116645,-0.0037833105718732113,-0.051927872569452194,-0.019650963803883356,-0.005334712378177588,0.0903830998227811,0.020153296626546847,-0.023364393376967076
0.0372414,0.04416279049827488,-0.009428108999456734,-0.04324427131901516,-0.02020282071410326,-0.007430064856779998,0.15932206060746626,0.04667136164148055,-0.02745161714358696
0.0377069,0.057842719768121394,-0.016694930954924345,-0.029962947377462027,-0.019057442807816592,-0.010691666205178517,0.21329283510223432,0.05802770080172627,-0.02980475087106559
0.0381724,0.06386881994085632,-0.021096166976621793,-0.044281361654630494,-0.019165653139317923,-0.012745510057969858,0.17591666456486166,0.00933348342754836,-0.03160028744272831
0.0386379,0.05092864304064108,-0.026996637829641137,-0.04977717159033023,-0.016645972462075647,-0.010964333480650337,0.08042505187864207,-0.051858167973065465,-0.033580665647604244
0.0391034,0.028637956574131273,-0.02850714672353951,-0.03779764385117957,-0.013298879510590183,-0.00022893167832952355,0.0027225901494082345,-0.054563148319966906,-0.032884550767016
0.039569,0.007283864960735144,-0.0417125310986336,-0.039276738413732804,-0.011936815016827796,0.018073091732108092,-0.011007787791476834,-0.028393822219741696,-0.03004309446190173
0.0400345,-0.004707257825725631,-0.05135518507155062,-0.06747396984717609,-0.013539108983299946,0.03055605782572563,0.0013644305799006453,-0.007859715816224832,-0.03170224297966304
0.0405,-0.007907335378058098,-0.055307310668615335,-0.08740891340277687,-0.015720672528595034,0.028023401744678184,0.006204868021954648,0.031048400872339094,-0.034449683300454316
0.0409655,-0.011931073285476348,-0.04183047555826116,-0.08867785442767775,-0.0182956,0.005362160528177415,0.010070435885143237,0.0688959699398325,-0.03583926311622632
0.041431,-0.013568045924328915,-0.026566409820969514,-0.07359108358726292,-0.017489387011198,-0.016362901608257884,0.015676082027688314,0.05514089839174212,-0.03647017205432586
0.0418966,-0.008605282951987479,-0.012857804151983924,-0.03405061344049342,-0.018564704151983923,-0.01097723431858412,0.030168165466812048,0.018944016718151532,-0.03633397595950835
0.0423621,0.0038321837058771487,0.0010422673682897112,0.0022491667771098577,-0.016340454664710565,0.012030149102364074,0.042780966009399075,0.019592292444118427,-0.03282681887883779
0.0428276,0.0039084387820750785,0.012952464533843812,0.017311558078984362,-0.014410853741188005,0.029839148342040555,0.05235309894992709,0.05196700309946694,-0.029645740876581814
0.0432931,-0.01338120499349391,0.02403981918747391,-0.013481593033144293,-0.0103076740136751,0.02832322788821783,0.035874965834892344,0.07076787582045617,-0.02675396806994672
0.0437586,-0.04279190946185383,0.034277360967450786,-0.06810054874225586,-0.013669804909126601,0.009498677418258192,-0.004238946559796482,0.06380346429837021,-0.030345442545362943
0.0442241,-0.0625030979230601,0.04991439792306009,-0.12743586680286884,-0.011742782158661208,-0.008654273048704617,-0.053898148991562186,0.044643014977217975,-0.03166204232210382
0.0446897,-0.06672560980200985,0.05392542317309049,-0.12706033233499126,-0.00933669356154172,-0.01057151244232669,-0.0838056107307638,0.05547240586116856,-0.03523430429230552
0.0451552,-0.060477693258692046,0.045033127279702594,-0.0845346269986582,-0.007539921405458047,0.0006822753644101745,-0.08653901407813108,0.0940376882515109,-0.036556125512149394
0.0456207,-0.055512340697511015,0.02896883835259508,-0.045104060083882826,-0.007393925127309459,0.010028734355802177,-0.08391029801632936,0.12587427354942876,-0.03801652332426146
0.0460862,-0.05816018235615144,0.008193497373674237,-0.04386436313511353,-0.007906913025439388,0.00016617594120463654,-0.09349854748334838,0.10939271600166327,-0.03976228697456061
0.0465517,-0.057407061055332026,-0.008096759904195809,-0.06107816419780963,-0.00818635910494524,-0.014966463489389046,-0.09796673469414452,0.04060494426228269,-0.04089774262069121
0.0470172,-0.05753813463158751,-0.00953631247158604,-0.058545234631587506,-0.009117414753262948,-0.025011344482149665,-0.09364456179794341,-0.03985837538112137,-0.03963183829065671
0.0474828,-0.04911235254116781,-0.023752454502758872,-0.04884985890979421,-0.008505395223530198,-0.020630075136855466,-0.0961592984078434,-0.087200490269073,-0.0426551872627472
0.0479483,-0.03694932686375355,-0.036232973136246446,-0.048646153636908045,-0.008182012966478525,-0.003075670310404452,-0.11030450457202563,-0.07467113052979299,-0.04766166194076187
0.0484138,-0.017917367675692394,-0.04603878599255252,-0.05604149370480486,-0.0062238375301300955,0.0145570337413648,-0.13875543104197216,-0.03920062385036716,-0.0542813638869271
0.0488793,0.002852391781474472,-0.05290626148575621,-0.041132904681360986,-0.004017141215086838,0.016789348231417728,-0.16030625056638764,-0.019875277864809075,-0.05652654360805493
0.0493448,0.03324168530867969,-0.058600129476139295,0.012349213808846023,-0.0028787587580483783,0.01761405710106417,-0.17832325836717702,0.0019497006810112333,-0.055273114494679136
0.0498103,0.06076738955394785,-0.05686662330924442,0.05544126267813656,-0.0017895840109114973,0.009615902629872417,-0.16144676350230097,0.005736062066704428,-0.05122913953965364
0.0502759,0.08699471868108713,-0.04768495358150451,0.06329800468927921,-0.0021908052696968227,-0.006549703427071068,-0.12254855139129835,-0.02946883332934236,-0.04931184233497714
0.0507414,0.09908183039670734,-0.03335042395741072,0.03972609557671114,-0.002182,-0.0288516428396804,-0.08782464270133879,-0.06909178046587813,-0.0491798
0.0512069,0.10180473941865766,-0.013741856265229745,-0.002887058283723683,-0.002182,-0.04630489919969219,-0.07004947441789794,-0.08278301534926123,-0.04701600802313214
0.0516724,0.1006765009685142,0.005866895511084123,-0.0321822892157418,-0.003993998547228694,-0.043877392866745434,-0.06264409504590239,-0.05956320908935834,-0.04229999359313109
0.0521379,0.0980998505743298,0.026713836407731804,-0.04072108730905639,-0.005974348930051797,-0.02743311927894033,-0.038942845135624925,-0.027938477600811154,-0.035102732950236054
0.0526034,0.10788923338606053,0.03771876391260144,-0.051128465823031405,-0.007945699920909195,-0.010999767009393492,0.006170352170410319,-0.01201446629757624,-0.03535940007909081
0.053069,0.10644728069348112,0.03581523166317287,-0.059501181531595164,-0.008914373166057246,-0.007212516989030446,0.04510967065691595,-0.016972832496086103,-0.03429886100365652
0.0535345,0.10086652472617874,0.029321609350655725,-0.05488169292212349,-0.009162402397264168,-0.00854082006670431,0.059908488262649065,-0.026856274189105172,-0.03220431177962676
0.054,0.09265384518510147,0.016855610269087523,-0.029544737528893986,-0.009238325340074363,-0.01285152125918201,0.050385660202230884,-0.026046415017129402,-0.0323949
0.0544655,0.09433618078766383,2.032039327135482e-05,0.011790883528865079,-0.007529315685020031,-0.019204399612924417,0.03556086470360449,-0.010547794505633786,-0.03722111647113492
0.054931,0.10398702191644511,-0.01704112045479092,0.07072666039132675,-0.0056700984706541035,-0.024152055849816015,0.029432481277630075,0.0006089963532476527,-0.04407218134532178
0.0553966,0.10662157861614499,-0.021912789401260013,0.11651758556384165,-0.00315301595507879,-0.03682120383741836,0.03278857123633943,0.009471160055334217,-0.05091952449413331
0.0558621,0.10157945777448177,-0.018040226491082095,0.1249803707059918,-0.0022600064193868626,-0.04740331293151003,0.0408347486449051,0.020263817211101275,-0.0531550779389133
0.0563276,0.08224687858316423,-0.013964570838360873,0.08962596412175727,-0.0028880727055613444,-0.0557646067166036,0.028284535994542857,0.022320789272993986,-0.053833900238825214
0.0567931,0.051810893394760874,-0.017956168653551423,0.038430619582868114,-0.0016405118251503134,-0.05453732801975915,-0.008604597462193381,-0.033583829343517245,-0.05402085208179536
0.0572586,0.018390603538466138,-0.039062609940529076,0.006877249518501471,-0.001750806059169475,-0.049274327432250575,-0.030284635908139578,-0.1408747181775084,-0.05488499788787347
0.0577241,-0.009759280890095107,-0.051419218463251634,-0.0009913374782486893,-0.0022966407209202666,-0.03905794856847988,-0.03548440498451938,-0.1990303084170066,-0.05596652447405561
0.0581897,-0.025513600494198898,-0.05319917216556335,-0.013067172535885622,-0.0042232835033099375,-0.02927262369535279,-0.028048855668873295,-0.15449892165563356,-0.054834205808480835
0.0586552,-0.02423084157164853,-0.046185315106326515,-0.030998469787346966,-0.006690024612568464,-0.015569777340510224,-0.03763872824494904,-0.03985352837452479,-0.053524301838128244
0.0591207,-0.013265905683101696,-0.04057296837877943,-0.046916562142952804,-0.008363452153283702,0.005579130521732235,-0.08416482348119363,0.016141874178325962,-0.049791846095788586
0.0595862,-0.012117147439062512,-0.034298483450500725,-0.04945183818542282,-0.009352847277784205,0.020806952686765093,-0.15499277628046873,-0.025154043594403708,-0.05353537992839853
0.0600517,-0.012049791792696305,-0.02737701144719015,-0.03609626383278503,-0.011471190172753078,0.020051383590129528,-0.20410744295553981,-0.10787053332925728,-0.054149054103651846
0.0605172,-0.008398824486698786,-0.01742795297291814,-0.01844780194631571,-0.008382985896998898,0.008778950639496139,-0.24329390432558012,-0.15665511676248267,-0.05341569411521045
0.0609828,-0.005024470994686558,-0.003368904091116222,-0.021294935319849533,-0.0024955981293595534,0.002115406668051536,-0.28016053310378985,-0.12710624760129444,-0.05045557508801085
0.0614483,0.002993653451797495,0.009404914614456906,-0.04486943324505948,0.002690914614456904,0.014602113624572451,-0.311263163282592,-0.06770973468103121,-0.044366619620487026
0.0619138,0.016723699400614498,0.010401951228505568,-0.056703239017195546,0.003964029262896659,0.03386942189186325,-0.2978541930832889,-0.028423185112870016,-0.03698488689674999
0.0623793,0.028841002393113047,0.008296827692252177,-0.05504529777878555,0.0015721721389928296,0.038316307010584146,-0.24829577931518837,0.0007478273515985861,-0.02810302769225218
0.0628448,0.035837268752920835,0.011678140227179053,-0.05582763516876869,0.010219596078310482,0.03325535983645222,-0.11684740765165963,0.038750848263103085,-0.018376948135014948
0.0633103,0.04188988906077073,0.021266104010487726,-0.044391646541997024,0.009409681403873242,0.008425308426812987,0.06787774416630739,0.08013430913868057,-0.01327909397790061
0.0637759,0.045018409814917684,0.013450284648057769,-0.03033636847100609,0.0139315,-0.02013021747265356,0.20962023494530713,0.11415549290982668,-0.012633031528993909
0.0642414,0.04327303388256445,-0.011861479386992838,-0.0293736,0.011552532158217178,-0.03609600467420763,0.2432310856703723,0.10380386812240094,-0.01476195716481385
0.0647069,0.040255242976838586,-0.04064334077206799,-0.043123284836517034,0.011275264340387699,-0.04528904216851816,0.2446259214884193,0.07163160964686707,-0.015783249860354984
0.0651724,0.046536275956846035,-0.0555504562924684,-0.051020725158856826,0.005605790281896249,-0.0474953046909816,0.22586606623874228,0.05147449268137226,-0.02123407984433004
0.0656379,0.05746359383086746,-0.05388915601572383,-0.04361276261350362,0.006125578532108781,-0.05181164565261638,0.163847688958374,0.0790450703878186,-0.02570719445071394
0.0661034,0.0649598269275847,-0.033969145989421135,-0.029397973796751336,0.0030219818251556443,-0.03881929536990099,0.04807255258939298,0.12015845205444911,-0.0337174235292794
0.066569,0.06287471715134679,-0.019566244144619663,-0.0382629812441796,0.0009886529782684996,-0.020988750636319112,-0.03491179987691841,0.11405943001166412,-0.04641272974730312
0.0670345,0.04707439146869818,-0.022576884228923514,-0.06646651854522445,0.0004955942428461402,-0.004148765457076841,-0.08033684744430486,0.07810277419723659,-0.05535679787161561
0.0675,0.031435934437211224,-0.031844169147310586,-0.07254808800462473,0.00020599158914654414,-0.0024111495348792646,-0.0903280958627953,0.06159550920465086,-0.06028004298450875
0.0679655,0.006334875864048803,-0.04371234160941933,-0.05771152018418946,0.0005263080391105735,-0.011311394599824179,-0.05369237585341538,0.05487195567985935,-0.06019515171746419
0.068431,-0.028911637986862606,-0.04630492150436776,-0.050553526055553716,0.001631579005844476,-0.01962865189034102,0.006478288817253879,0.04614856413303689,-0.05799965971199677
0.0688966,-0.05990079970271504,-0.042122118442603926,-0.03415615736980016,-0.0038265356552389454,-0.02341575902157131,0.02504156269298991,0.03598077346388668,-0.05169292947920066
0.0693621,-0.08778972329341626,-0.04830103061210567,-0.00842237222666835,-0.0007503362297929336,-0.023913527405188147,0.030657151603458766,0.02544900302284578,-0.049609355287226355
0.0698276,-0.10627062190408808,-0.051053987745582986,-0.008961995092759443,-0.0008112003296201101,-0.02462712924852766,0.05207464624537518,0.014570885124415773,-0.04474602467364409
0.0702931,-0.10664614224034928,-0.04961857040058212,-0.02712966133364017,-0.001784457759650729,-0.024988885919883578,0.10894720819140795,0.006999609762561321,-0.036287859942401426
0.0707586,-0.09009232551509304,-0.045392484446906196,-0.03307851777496435,-0.002877097752007579,-0.02442049777812946,0.15032276674477824,0.0027175855578414686,-0.02868387333755348
0.0712241,-0.0653045922021419,-0.04219645915740978,-0.03539286293081608,-0.003895655854821358,-0.024131204633647988,0.13429133182633973,-0.002529531575294245,-0.024187721281536793
0.0716897,-0.03195069049151139,-0.04434001897916147,-0.06068505480069178,-0.0049497231774225,-0.026184321885420525,0.08665491523386624,-0.010606406968054894,-0.020971946491310192
0.0721552,-0.010610302946665722,-0.05132261822972911,-0.1116663124986142,-0.007517428875739325,-0.025352375871260806,0.03945900687744623,-0.010838780786156101,-0.020574080786156104
0.0726207,0.004011508828028075,-0.05280000912641054,-0.17500323346545074,-0.009293290840932878,-0.020502475297264164,-8.052958958880245e-05,-0.0069901255280968595,-0.02505919126994168
0.0730862,0.011121907083518305,-0.04759429539766189,-0.18995859829592135,-0.011212517291716467,-0.015350603333219503,-0.02298286888338847,-0.005881854147789943,-0.032275676041844524
0.0735517,0.019500600437495706,-0.03759575783306816,-0.1711874381727914,-0.013557216122498798,-0.014613923965000344,-0.028283820262497424,-0.010992565092215835,-0.04097978845499554
0.0740172,0.03195532435878984,-0.029532840872409885,-0.17525025779596512,-0.01672783046239945,-0.017406161846488674,-0.02515831015413315,-0.018056767694221005,-0.04503374987206136
0.0744828,0.05582299197435369,-0.018859108357283612,-0.1524392194987944,-0.02424579431793182,-0.01752859191316806,-0.04159133490017193,-0.022563958963751317,-0.04406718884512968
0.0749483,0.07512865174799827,-0.011666876237649712,-0.048073493728237805,-0.026156167193657,-0.02025161924035393,-0.06543921253998924,-0.031004059470827634,-0.04465216254175681
0.0754138,0.08170840058656963,0.010659987139478905,0.08192194407886412,-0.026908950048880803,-0.02408744982077039,-0.07779475053768883,-0.0355691999348256,-0.04208763078666332
0.0758793,0.07085300390252523,0.03203305060376241,0.12818961321734118,-0.026605403878327168,-0.026508915253297034,-0.06961446632868656,-0.033716856372857026,-0.04040262813803238
0.0763448,0.04557383411227224,0.07178170888234697,0.12480604031323894,-0.025352508378023005,-0.026614916219769955,-0.036684947618709836,-0.034248315683493895,-0.036893913387424634
0.0768103,0.019256243668883778,0.09267828052674418,0.09919910518357798,-0.02525923124725993,-0.023556128304563717,-0.003339186246033649,-0.02717378624603365,-0.03635959500283591
0.0772759,-0.006231055756521909,0.08965229779189084,0.050636958566017694,-0.025608226193544966,-0.017786883354814768,-0.002880099699306687,-0.0197560785806349,-0.034935152387089934
0.0777414,-0.021542166533995374,0.07844239921712749,0.028763908264208056,-0.025061397899850287,-0.013959085298952,-0.027077129526329916,-0.018115593699550857,-0.033841495799700576
0.0782069,-0.03550903761369619,0.06236204994749867,0.011671549947498668,-0.02412617424927432,-0.011387441768268176,-0.04527337580322702,-0.02002099341835992,-0.034915467667634245
0.0786724,-0.043382824053642355,0.042393412704739945,-0.019214334199479592,-0.02234827168117886,-0.011739651327528456,-0.0506441930797643,-0.021302276991292685,-0.03673462831882114
0.0791379,-0.041368512403893644,0.02499365814599109,-0.03978126314911484,-0.021722707386158478,-0.015206817257554878,-0.07338876759472099,-0.02161754108515805,-0.03585707674452585
0.0796034,-0.04001931028478715,-0.002894943317854409,-0.04683535569438424,-0.021005614468272513,-0.019152508466018615,-0.11418613466582478,-0.019199883898969965,-0.03308400846601861
0.080069,-0.04194308297036679,-0.035476725138896534,-0.020133651888419295,-0.02384285242368183,-0.016820721876996868,-0.13490397796813164,-0.00718998516174139,-0.02712001086106269
0.0805345,-0.03772014140752112,-0.05910199397264527,-0.0025188172392746314,-0.02236496725002288,-0.014624072840988125,-0.12836141077836138,1.305963393684708e-07,-0.019636779751294457
0.081,-0.03625861743427237,-0.07021408512404266,-0.015399326586397985,-0.023527048483876094,-0.013633335038876681,-0.11776036829697197,-0.0006432459255610711,-0.020590205116630043
0.0814655,-0.015409781216785365,-0.05921423581012283,-0.0589402352285047,-0.023311523239148046,-0.012381186835955044,-0.0820588201273021,-0.007365163596806995,-0.019962237360319785
0.081931,0.0005027535080324725,-0.04179564294831492,-0.10912545914243778,-0.023211400531546987,-0.011773723494039627,0.0019903765413956313,-0.008656543905103113,-0.0159458214387222
0.0823966,0.0038916996578255997,-0.03874435139355948,-0.1365774376084633,-0.02484282552569254,-0.012996839511011089,0.13102725750164756,-0.0036914744743074606,-0.011137244329924188
0.0828621,0.008876424725030307,-0.03638094590773459,-0.14304507696870325,-0.026153485316382445,-0.013786421015411193,0.18901956043649323,0.0002297429592633466,-0.008720006331793638
0.0833276,0.01624912097765619,-0.03053363508668647,-0.13109630015292145,-0.02691617803217133,-0.013913574333831363,0.1526646924470445,-0.001295566740737043,-0.009609852366002694
0.0837931,0.027960262215364934,-0.014381117709500072,-0.08284789777842415,-0.025343079394114395,-0.01210375938550065,0.05912637189950152,-0.006223874585306728,-0.014843241676000577
0.0842586,0.038386325071096926,-0.004659201848983524,-0.025925512393354617,-0.02382893200959647,-0.010118578291215258,0.008127931267774231,-0.009255838449833142,-0.021289850385753206
0.0847241,0.045879304673911325,-0.008872134156440985,0.05200855922979392,-0.02541434441385617,-0.010439338830352309,-0.00452400193985377,-0.00886739958591957,-0.02656551440185732
0.0851897,0.04536645809128267,-0.02403088330710805,0.11249159787765134,-0.03117499033787581,-0.013347770895089896,0.0051501114275414,-0.01189781040952587,-0.03291268707765524
0.0856552,0.04812447366152848,-0.03219823309046443,0.11774745364409096,-0.03332966049229272,-0.015966044430634464,0.013361836519075944,-0.013410424940364696,-0.03917747076910598
0.0861207,0.05731743838470544,-0.028195624365882212,0.11936924442213093,-0.03312922850470581,-0.01719555907882341,-0.009243570219555679,-0.009051869425882396,-0.041078081375293826
0.0865862,0.06998581776385052,-0.016727898414067237,0.14430634373958545,-0.03223031133137955,-0.01876818906510364,-0.08984588105622177,-0.005265221869792719,-0.03948610450242539
0.0870517,0.07224268770446436,-0.005253074345078133,0.13906175659720046,-0.0344914846782324,-0.019283945284005816,-0.13427736545799354,-0.002775084405780503,-0.034936519901535845
0.0875172,0.07465005509580067,0.0023973029118860975,0.0664126195355339,-0.03606156954021357,-0.019599703577669162,-0.11400324940576473,-0.0016749998662637538,-0.03160323258151255
0.0879828,0.06845642710476758,0.0032347010242558347,-0.04258193843807486,-0.03919317922336657,-0.013234027104767579,-0.07189770824850547,0.00779314813768168,-0.026868319154967266
0.0884483,0.0594909949007553,-0.004245731797954488,-0.12244056772758061,-0.03809665103291791,-0.002473327322507619,-0.06280235854177367,0.006389174698218807,-0.023700784896708207
0.0889138,0.053014779832501385,-0.014505385572131607,-0.1324663488641348,-0.03350939764813631,0.0009870549620328564,-0.08223171777556827,-0.009321130809265991,-0.026813833997865286
0.0893793,0.04565923118680259,-0.019392888231902067,-0.057678806819395204,-0.03257498131627562,0.002755261638624903,-0.1076691073011735,-0.026384916843401652,-0.026679845789149587
0.0898448,0.0447886515255182,-0.02449635503293815,0.04532114670761871,-0.029689959555350674,-0.0008961117105522722,-0.08093021750473485,-0.029836572403082625,-0.030660476713485832
0.0903103,0.04630236094090108,-0.021624924736267193,0.09344823629194669,-0.03131665783084663,-0.0077785053355706076,-0.028814852667785305,-0.028623991812080692,-0.03185450390939626
0.0907759,0.04552113628132746,-0.01715569984347355,0.03671578653448016,-0.03045625196243365,-0.01197883202504423,0.060040965427953494,-0.013828896424911646,-0.030082775981216826
0.0912414,0.04255641318606961,-0.018967,-0.03541132851152496,-0.02654814083756435,-0.01303336754602506,0.12322799369781182,-0.012241902872757114,-0.0277172872439455
0.0917069,0.03872792079554817,-0.016386888783526198,-0.08620948480418833,-0.023211698587727977,-0.014045250353068006,0.11718138960222592,-0.008443845667594131,-0.02273221172988697
0.0921724,0.0340734,-0.014118567082965989,-0.15675326163452152,-0.02213719985392417,-0.011159138471770488,0.03122379949526434,-0.003786552332249172,-0.01949649095009549
0.0926379,0.029882277154275126,-0.012366905992007411,-0.24668440599200742,-0.019727895141513803,-0.006692722457989604,-0.06840197939888466,0.0023843932622066456,-0.0162771612438371
0.0931034,0.030045,-0.005416186128525041,-0.27867371137108193,-0.0190438944459587,-0.005433983337876098,-0.12237598110048231,0.004540804331101352,-0.013975065452812248
0.093569,0.03058100811632535,0.011388042651599692,-0.239406748521867,-0.01871745663819235,-0.0038546459524034953,-0.1414577954894977,0.00542485035510398,-0.012160090760645637
0.0940345,0.026803877206401636,0.014822980728620512,-0.1794599527743119,-0.0174166528949318,-0.005873206620138049,-0.12699274402920654,0.003993421012429575,-0.012730632592156779
0.0945,0.02438326002234737,0.010767761136987554,0.0,-0.014014553269011819,-0.0071849760771858185,-0.11609211794211065,0.0019040961218805602,-0.015241776077185817
0.0949655,0.019204729873513054,-0.003861173786165731,0.0026649492346202835,-0.00956571749873939,-0.01379121962765874,-0.11277002474954732,-0.0007423385886079336,-0.019663242714917248
0.095431,0.02166126834374902,-0.0027362957217904062,0.0007650814086891902,-0.00517034324271871,-0.015247404885039718,-0.1009832219978781,-0.002804823172935465,-0.020801159410811097
0.0958966,0.024837971540763924,0.014559633104348687,-0.0001946945861509535,-0.0017686751390986219,-0.014998239205151675,-0.042024322113085606,-0.0010450993130460577,-0.021175125024466362
0.0963621,0.03243051955647436,0.02588127477185729,0.001308143872046219,0.001154533869965675,-0.01967400611935509,0.04245117156926062,-0.0036784100020805436,-0.020966471569260625
0.0968276,0.03026994859514184,0.014032911550370964,0.0,0.002333114325236401,-0.022991854214574475,0.0957749573009456,-0.005572471349527198,-0.022172874677702247
0.0972931,0.0295003163787705,-0.003925097077658543,0.0,0.0010503939646174985,-0.025300750863688503,0.09064407585847,-0.008137912070765002,-0.023455518617686022
0.0977586,0.029065105651803803,-0.02955251503613295,0.001548245680200705,-0.001040256784371724,-0.022349242869770893,0.04135476410300161,-0.010274795119434646,-0.02358830751806647
0.0982241,0.030300282122229356,-0.04957325467343708,0.0,-0.0032100762612503344,-0.023032455990724284,-0.033374913415406174,-0.004329953597968875,-0.022528951563702868
0.0986897,0.030651931360963468,-0.0693217,0.0,-0.0049741916536719544,-0.017287215882916606,-0.10294837021044362,-0.0018265226097656819,-0.022250187861341735
0.0991552,0.028726495919738772,-0.08028526209266006,0.0,-0.007521962388907292,-0.012806827779272492,-0.115533563126573,-0.0018428291543230323,-0.021659540657441016
0.0996207,0.024997655025907395,-0.0693217,0.0,-0.011223654971365508,-0.012525720021816756,-0.08003376002754262,-0.006290424979546792,-0.02120865496604716
0.1000862,0.017968408918314728,-0.03604086328620919,0.0013810151374575572,-0.013383335159005104,-0.0152743,-0.04405508297602874,-0.013549063286209187,-0.02330123826857652
0.1005517,0.011404305144358242,0.0027930918577562932,0.0,-0.016674016398949228,-0.012260917897891962,-0.011337893889767258,-0.01583481639894923,-0.02299225080315231
0.1010172,0.004445585564861219,0.03271066163149239,0.0,-0.02047923899601852,-0.0030828471963536093,0.03068287924705887,-0.008430580292850421,-0.022842452050083773
0.1014828,-0.002567743246987707,0.043321174231223565,0.0,-0.0260577426628526,0.0023248315683709643,0.08109274227490425,0.0002213754509705149,-0.023006015090194103
0.1019483,-0.0067841723776557485,0.04379823885897005,0.0,-0.029793519180847786,0.0005453404095761079,0.10669085654799439,0.00345506598403982,-0.0229953
0.1024138,-0.015039293688482745,0.042528643885011735,0.0,-0.03288253811904173,-0.004743895297604333,0.11407910643648636,0.000566255990019162,-0.02341227301984029
0.1028793,-0.01942129600637625,0.04294968399893729,0.0,-0.033540254668083615,-0.007533541338292642,0.11830421200743896,-0.0018760173752732216,-0.023617338667020902
0.1033448,-0.019771652559745646,0.03468285392216009,0.0,-0.035871396353523564,-0.012216040883808914,0.12503825329625307,-0.0072794597781588085,-0.023910416058920594
0.1038103,-0.018533837081942197,0.012610318565141183,0.0,-0.03995357021320231,-0.00718866571719486,0.1018772528112221,-0.014209411791151955,-0.023370706180323702
0.1042759,-0.01799802026051698,-0.024765362996764004,-0.0016595690881308065,-0.04392296760036214,0.00794982486411512,0.02704281002186612,-0.018615891378677092,-0.02430007270388708
0.1047414,-0.020053261103414797,-0.045236436296247164,0.0003115060587753582,-0.04654403972431967,0.013916856847607836,-0.028085052158268307,-0.021758132807445013,-0.02525431034494715
0.1052069,-0.019859462185328938,-0.04162015379743925,0.0,-0.04575179080375328,0.012185178168097117,-0.02363438276622048,-0.0147997689718504,-0.027640249420643043
0.1056724,-0.01370723455420791,-0.018254929358266815,0.0,-0.050529379857228,0.0003540287038951549,-0.00010939096297018168,-0.009367620083283667,-0.031473419964307
0.1061379,-0.0029600036161664986,0.002724271405944681,0.0,-0.05174522056361105,-0.005559226362691515,-0.014227911298296363,-0.007785614297027659,-0.03076465257545074
0.1066034,0.004122492630796936,0.021687912185401424,-0.0020586194265302,-0.057282415911367436,-0.0033181726545859465,-0.07420238830608364,-0.00701569427071007,-0.03299742421819531
0.107069,0.00484797451843128,0.027216140876140774,0.0,-0.05291155898949742,0.005010667150219208,-0.15254545108313375,-0.011132381766647038,-0.030968322657153307
0.1075345,0.001886599500061286,0.024326001430870846,0.0,-0.056692006382977,0.007560902819193713,-0.17996590301065962,-0.01294839996808902,-0.025529496925518435
0.108,0.003487736523662635,0.015065019838609202,0.1297945305436003,-0.053442223646263345,0.006731555903564105,-0.11569143183059996,-0.0017648733743744556,-0.02251602551281944
0.1084655,0.01196648570966563,0.00026931513858152484,0.04695601092034374,-0.06054440843647558,-0.0007278679402191288,0.006311915138581525,0.020239330900076825,-0.0143228960932191
0.108931,0.023913723031479317,-0.015243896558989991,-0.0169508613050299,-0.06245068279392899,-0.005654293962860964,0.06776860926743929,0.029995570571448214,-0.015205234621830812
0.1093966,0.03723279889630674,-0.017875230553333923,-0.040335325285517726,-0.067610188937586,-0.010201862498244977,-0.030046305794597813,0.029470030653593972,-0.018385483569509753
0.1098621,0.03963424366995121,-0.013468643218964153,-0.04266114443283779,-0.06193494020150357,-0.0073734114464045816,-0.20159251415196566,0.022090756469136323,-0.02552779562957824
0.1103276,0.03996463246642741,-0.009265984744697114,-0.030220287590105734,-0.06176886136660033,-0.0027136930742069926,-0.2919434823630694,0.014711560645754459,-0.028275941053002237
0.1107931,0.03621758705514353,-0.014381332891866666,-0.016732846366483135,-0.058536152573996865,0.0020995607946261976,-0.2618944407416226,0.010991839788096,-0.030622312706457565
0.1112586,0.03376717521113016,-0.027805214189933713,-0.01482657168268966,-0.06297171059893612,0.005333703716111754,-0.16963766768507102,0.007262921385543509,-0.029506424882705468
0.1117241,0.027705836798852787,-0.04796387747128244,-0.033504783025933425,-0.058183864169477725,0.0024407966378517526,-0.06622358892868768,0.0036778788042532867,-0.024894516625963304
0.1121897,0.02206391363018274,-0.06379226782882676,-0.07963550217053839,-0.05793124957270175,-0.007294208010385563,0.0028632507493852113,0.0032623055549816813,-0.016986183242645416
0.1126552,0.01770078573990796,-0.06751427943716705,-0.11371657459931031,-0.060386830164424,-0.01197628171898604,0.04193605631829634,0.004380211469757481,-0.010260394832983438
0.1131207,0.01559195376036984,-0.046483210416085816,-0.09697922882047197,-0.05813150352658951,-0.01707466581954615,0.10396381441023599,-0.002140914385182662,-0.0005307847682187671
0.1135862,0.0119526741644069,-0.032903073491700734,-0.047399649178676534,-0.057076411225570875,-0.017032862314168902,0.2047745247184558,-0.005169417616160485,0.000485022532220239
0.1140517,0.01175472573933955,-0.010940046246218917,-0.02950154911279254,-0.057213695729031906,-0.020977411335627878,0.27858885887551565,-0.011722084504129626,-0.001458663997250258
0.1145172,0.010741248361150767,0.002700065166873611,-0.06579164920804952,-0.05622617346856783,-0.023385225864388348,0.23706310630558364,-0.014324652395820522,-0.008138081700303636
0.1149828,0.01051859521745507,0.02100114994403128,-0.09309644399383447,-0.04548823026131746,-0.026745880394355225,0.12410045600616552,-0.015862407956841337,-0.017743912012331046
0.1154483,0.011377837123313727,0.03601935790882829,-0.06333844797311232,-0.04302716853146486,-0.03000381793336783,0.02210977229769422,-0.01891131822091384,-0.023725340662381064
0.1159138,0.016838520507476272,0.0451514,-0.025911434991815002,-0.037764118270489144,-0.0384273975122775,-0.027099057269452696,-0.021679832007529556,-0.02896105500272833
0.1163793,0.019945920648840796,0.04445855787979218,0.004198652213910486,-0.03488324454188555,-0.04288613805347762,-0.06228190046143546,-0.02590388259536317,-0.03522384896970652
0.1168448,0.01878666570887876,0.030624315038672308,0.008849824489498753,-0.032140937798454526,-0.043262716480050485,-0.07625659023688508,-0.023341606716935578,-0.04010227054723231
0.1173103,0.018690959665949254,0.00861047982833967,-0.01740972437027557,-0.03158429411278507,-0.03962120755746865,-0.07900085045657283,-0.0214636747625406,-0.045942119331898505
0.1177759,0.019565979280194,-0.010348191595219089,-0.04380601907237597,-0.029542581679547333,-0.03728782191948267,-0.08556354100594711,-0.018692735874893555,-0.047692158560388
0.1182414,0.020546513290369998,-0.0234199781735725,-0.06490959162603707,-0.02392492025778002,-0.03467306455901334,-0.09594454889345123,-0.016495866289755405,-0.046474875150002065
0.1187069,0.019795725633553113,-0.028283947538696307,-0.06345900200487574,-0.018042872860233913,-0.028596584326805254,-0.095076886331681,-0.017991329341513748,-0.043745408433696106
0.1191724,0.018543258233162132,-0.03215828329326485,-0.010515345823316214,-0.012514752873859544,-0.02603139294945667,-0.07274230878695356,-0.02190095654192139,-0.03887228329326486
0.1196379,0.01991868204349765,-0.044507713565615024,0.0849409140277716,-0.008791292119470656,-0.029465864892861016,-0.04174822458896899,-0.029887907025419713,-0.033180284215873476
0.1201034,0.020525901596963127,-0.06465420367106654,0.13948498489604103,-0.007785930129561711,-0.03886875970362685,-0.005192517441042652,-0.0373671340636085,-0.03023479780917451
0.120569,0.02047346112024623,-0.08240193050536189,0.12201124785880936,-0.005456197739371878,-0.047118214122366886,0.034350786339826564,-0.04260472044205779,-0.02626949773937188
0.1210345,0.02032437040529718,-0.06987457873925533,0.07309509961545929,-0.002473494937917936,-0.03936318683858664,0.044342796299573634,-0.041560818886672554,-0.023286794937917937
0.1215,0.020638922109316823,-0.026913571755335944,0.011925429143258066,0.001351975458371929,0.0025661962969640174,0.03305909079697915,-0.03237143251046302,-0.023671085260455454
0.1219655,0.02136946821011713,0.021719100550824877,-0.034246851794583644,0.003317077171903616,0.07511467237361318,0.033021031981325784,-0.015764407836632847,-0.02521701622409057
0.122431,0.022619276225775968,0.04202937554739307,-0.09282516008382108,0.0072175,0.1535600913189227,0.03197258182512021,0.005151046986549993,-0.027500554233649704
0.1228966,0.0220723073130059,0.04066174956782423,-0.14752995482940223,0.0072175,0.1714758694326883,0.03990481250661947,0.02265657804597366,-0.02941523060504608
0.1233621,0.021004345536495606,0.023068504478089058,-0.21332904830089525,0.006561530357663738,0.15044874701795624,0.07392138671328545,0.034528774992707664,-0.03052931090380224
0.1238276,0.017364879478251306,-0.0095708073652735,-0.24994745152373324,0.010277199932504144,0.0766047058249496,0.10114270294622274,0.02565423374571974,-0.037105682120742695
0.1242931,0.016197531584086978,-0.036654446377619825,-0.26020393338202547,0.01046063938036603,0.01697899994888232,0.09687171164235649,0.018672484856725236,-0.04060632963548942
0.1247586,0.018826610004588327,-0.05672021768748569,-0.2338025049683642,0.00911256439467754,-0.04839948185181214,0.058110394801284736,0.014967397285466824,-0.03961819751581791
0.1252241,0.02072025758815517,-0.0627083922204196,-0.16684625062505112,0.0081321933917339,-0.10490569381135355,0.01512043110431531,0.009622368448052528,-0.03530561166236746
0.1256897,0.026255055954802178,-0.05732587197732167,-0.07229904991040312,0.008747282175966962,-0.1581699836171778,3.30641708249672e-05,0.009642099639697291,-0.033745672067876153
0.1261552,0.022049874325119852,-0.04080576326044807,-0.0255465365418523,0.0115816,-0.1714096139874263,-0.028773230267696587,0.00974684446944623,-0.035118985386227396
0.1266207,0.019611219354088456,-0.0243381,0.0072175,0.009913275092704493,-0.15523538939226425,-0.06479857990062898,0.011457399503144965,-0.03227752996364752
0.1270862,0.020372722827816457,-0.011205120190252656,0.07189589502745754,0.01525791227756126,-0.0815484608733431,-0.08220971469889901,0.0156791643758111,-0.020742376437146312
0.1275517,0.023320294624009523,0.004603317371907716,0.10953404384164546,0.01079590744367912,-0.0001929458199113102,-0.058083043338684935,0.016588511579056407,-0.007749661537668111
0.1280172,0.022705842019475203,0.017939451143091083,0.07886487863161325,0.0112459,0.022443972411540537,-0.005916271902985443,0.015551752116851215,-0.0003750845952241226
0.1284828,0.0219883,0.021826085112324038,0.021941877947021456,0.01383891152637553,-0.01910620547521452,0.07557289993337762,0.0132601,-0.0010303043610729449
0.1289483,0.021421316677901515,0.011419083567895923,0.022730999575814228,0.018257234398106413,-0.0536523053307916,0.10236361869924691,0.010948565601893587,-0.008554380012652272
0.1294138,0.025205085586646248,0.00810783669659334,0.04558586812190753,0.012719403169076602,-0.07586346552330085,0.03563209507884177,0.012032120399909038,-0.017387631775435113
0.1298793,0.025384626581552577,0.005949957572887932,0.06894775213857134,0.014369337488726885,-0.11535420145903726,-0.0859143577728261,-0.00021687626922385064,-0.026354093702546648
0.1303448,0.026484274256746418,0.02094235610807584,0.09610346251198824,0.01607303096015756,-0.16137432313233968,-0.19489953807236052,-0.016552245312167434,-0.03610433178872772
0.1308103,0.025934444989839312,0.03202473503725586,0.10647381699482814,0.01742542501693448,-0.1801163680762967,-0.2578494586328899,-0.032503968517735446,-0.04362361343983683
0.1312759,0.025250739976923176,0.03326917139156118,0.11663281872773798,0.018532768041538285,-0.1712212121430763,-0.26491241465710685,-0.03759994991160774,-0.04396835612923021
0.1317414,0.02137377791395496,0.03277196687583747,0.13654372942581705,0.019297529140520315,-0.1381767525051446,-0.2638980328388658,-0.040464626378538426,-0.04085720583281495
0.1322069,0.018655217477125032,0.021481751227658715,0.09736798142234068,0.017093252568936273,-0.08915406556902836,-0.20265877446170402,-0.030528097936492606,-0.03448525928882966
0.1326724,0.019023798076883286,-0.005490577487968952,0.04740220359174545,0.009196036329134752,0.01914170702629861,-0.09051161739935192,-0.026958015878418243,-0.027420085633018208
0.1331379,0.014168026677009525,-0.03785241068164751,0.042531455944148554,0.016681623159543725,0.1794444950023353,0.04493686831448207,-0.020214356968203857,-0.020463538817168538
0.1336034,0.016924987756868605,-0.057118852480024976,0.05548321308027261,0.014525883475025373,0.3435822693772195,0.15298067685713962,-0.018396114691757674,-0.018513707345878833
0.134069,0.021487557158011025,-0.06398198799496199,0.03205907761496862,0.013870275022505887,0.4277469744853326,0.19069546728230982,-0.013803497598992399,-0.022841636630051565
0.1345345,0.01769957521573128,-0.055966250414814254,-0.031631940781776044,0.01001344519182415,0.34712450212705187,0.10124992628758137,-0.012810375856118812,-0.029044272431643564
0.135,0.019398677347000716,-0.05416781118036243,-0.13281907109309873,0.01824693490103485,0.16681813359179956,-0.04687865338476615,-0.01287752918096944,-0.034625298957683
0.1354655,0.017994578116472666,-0.05014054131429714,-0.2598193857904673,-0.0046682233134132285,-0.015366661349269417,-0.15305388016319887,-0.01729262934867888,-0.038266498570114105
0.135931,0.01546883275583708,-0.05484817857659916,-0.38755363788091507,-0.07567246077054433,-0.1331335657779345,-0.1633713031607532,-0.01304337789878924,-0.038416798644380155
0.1363966,0.015940300160978974,-0.048248290240561036,-0.47618033534431375,-0.12847138022000698,-0.17508976472276677,-0.12880064673463398,-0.0033006855932091453,-0.03213119070529623
0.1368621,0.018456241620170247,-0.03467863227317638,-0.4859822021890044,-0.1325280012461426,-0.16741103973444668,-0.07411442442700132,0.004028613676398003,-0.0238999397344467
0.1373276,0.023577674736379256,-0.015537661968299055,-0.3729360112791873,-0.1065064162040688,-0.10789086120238603,0.004007957493857779,0.005626170976650151,-0.014908001717994297
0.1377931,0.029407603134581885,0.0058660423728744415,-0.1506535092091633,-0.0907124157849474,-0.04578013923829256,0.07375412502063611,0.0012935922195642735,-0.011462270277491075
0.1382586,0.03204972096163227,0.022604963357556213,0.0684200076511936,-0.07794060727984513,-0.027905615390288425,0.09218712587110457,0.0011507381483232093,-0.015788812131957104
0.1387241,0.030086824854742296,0.04219591036420373,0.20398322624546597,-0.07267834076018788,-0.09156524127119911,0.10223579255702323,-0.0045346060280697445,-0.02335237166718326
0.1391897,0.027563141494056188,0.05208799290974653,0.2183961952926155,-0.06300585587637862,-0.1522378534722325,0.11691404921335971,-0.006243389977458095,-0.03157159989909225
0.1396552,0.022821837325919303,0.052850868356544095,0.16287097818037738,-0.05320779047356656,-0.1386266119777579,0.09525620429908552,-0.006535284178272046,-0.03918502027852912
0.1401207,0.017764157052427808,0.041528065488875374,0.09972651834669134,-0.04162161395841026,-0.0832464980255275,0.03396042649024819,-0.009929781506863293,-0.04431649127066172
0.1405862,0.015983516176994755,0.033663161482636705,0.08757733916256463,-0.03486882008813131,-0.07046329981575167,0.005644515624249774,-0.013184375816483804,-0.045404815163296766
0.1410517,0.013835509125554936,0.021757291499065044,0.08268330485071299,-0.02544084021332064,-0.09557259514928702,-0.014602366738308876,-0.019983781688011206,-0.04293571916366537
0.1415172,0.018691919458210415,0.014512091045515334,0.03601656031735473,-0.01905485657631077,-0.09340707639047101,-0.0184782696746075,-0.0219675546861329,-0.038835421370907834
0.1419828,0.01757468015735954,0.011466070089121773,-0.023149148767593435,-0.011410949753518687,-0.015406339802814948,-0.02636351081909496,-0.020728321380295355,-0.03506429152818414
0.1424483,0.02312775643482152,-0.000570733148978196,-0.05384124048192042,-0.005449846026848545,0.09216555466326204,-0.04891891715770215,-0.013825990205387714,-0.032297979145679105
0.1429138,0.025244211966878094,-0.027473085044845757,-0.05288629622841498,0.00032036810646115306,0.13284655868438536,-0.06265884362490652,-0.003402788490369249,-0.03320242955738575
0.1433793,0.021397405532838674,-0.06372055013304186,-0.04789379669998401,0.0055828487066019745,0.11379421716518112,-0.06718673870284474,0.008033791063436073,-0.03299585541034322
0.1438448,0.01959625994375,-0.08059015505264311,-0.05610450028125,0.009746182839303444,0.10201627174527357,-0.07117898283930345,0.018191634883893103,-0.033926620028125
0.1443103,0.0186313,-0.06572854721660555,-0.0815444904902772,0.015161232934109588,0.09652649376835114,-0.07670169312140294,0.029994273551234314,-0.03230454006640169
0.1447759,0.0186313,-0.03389451920485987,-0.09220526209616703,0.01886284563498627,0.06883823316767027,-0.06544874463974493,0.03473239426496312,-0.028010574062861
0.1452414,0.017851538185892458,-5.1229165684454295e-05,-0.0776183398936894,0.021575684498917058,-0.007220799112529154,-0.014863328143924102,0.030406386335398487,-0.022436378146726613
0.1457069,0.016872305112848894,0.01763650597665954,-0.056032055624041024,0.02654643178772705,-0.11557471392807261,0.06380750377269903,0.022648054645781467,-0.02126102383631398
0.1461724,0.016471398817055276,0.013939277846064507,-0.026928851601967063,0.030133786452169846,-0.17497498578940612,0.16380799290822126,0.00681796537326132,-0.02092200903188677
0.1466379,0.0169528,0.0015116335211122578,0.00968618615045981,0.030142094177968124,-0.12193653524632095,0.1708089906444817,-0.0008877515505446648,-0.021255956643101707
0.1471034,0.017754811623764778,-0.009169668490185901,0.04924248347543093,0.033205209449824025,-0.04349899073448357,0.0946075923230699,-0.003999409449824026,-0.018284678341056765
0.147569,0.017283525040416553,-0.02994482632492171,0.1057640465494895,0.028489476293641725,-0.01537794724454691,0.0052571485786051895,-0.005464055380519945,-0.021778002730676527
0.1480345,0.01546290111796977,-0.05376142620061485,0.15432321930138443,0.03299894667656077,0.0024736506134023714,-0.012528339524978385,-0.0010913761744932241,-0.020636704859051128
0.1485,0.018375090593118478,-0.06293973983409576,0.13027049703877444,0.030824882096491,0.07660025374067839,-0.0028505666212814557,-1.1267656982275574e-05,-0.02239163350416533
0.1489655,0.013915994064908196,-0.061947852315060746,0.02970352989441295,0.039250607468740845,0.16353495252931421,-0.006367160884243235,0.0024983553971079245,-0.024015521977715615
0.149431,0.018477886944924492,-0.043581205860447746,-0.07850430459550893,0.03427639570097551,0.1691093635031335,-0.028985402154392156,0.011014614092771076,-0.025425310011230013
0.1498966,0.018802819495902543,-0.001535184066148062,-0.10891952201638982,0.030695631897877496,0.07611917203147664,-0.05487441307623475,0.021767708839924342,-0.02692812729426356
0.1503621,0.019320039615798843,0.03244160812508983,-0.09365383641412256,0.03165172161133302,-0.001100699964124163,-0.07252264517954764,0.03999509183903433,-0.02507885846319538
0.1508276,0.019430615883561292,0.05277672147602583,-0.057043636505893024,0.03141178986796541,-0.028445902592843294,-0.09050283735958711,0.051457678523974176,-0.024466015883561294
0.1512931,0.02061917379720951,0.0581252320874428,-0.011581473335645522,0.030074617958411966,-0.0073490881389858395,-0.0970399058846523,0.0461091679125572,-0.02565457379720951
0.1517586,0.021817904650286466,0.05506407198070782,0.04323220320320188,0.023355134660842714,0.07474624733155712,-0.09371328965442884,0.03134872678851338,-0.026035397724222965
0.1522241,0.02228853408552983,0.051588036965070305,0.0861718464760643,0.025250881529393154,0.19578824389365862,-0.06163298795913832,0.02518918629681846,-0.024411681529393155
0.1526897,0.021844490281634963,0.04389060156333289,0.09120475448017001,0.024066647130445734,0.2283545134818711,-0.019888901779083333,0.02533717150097647,-0.023227447130445732
0.1531552,0.02118900990497205,0.025150889183331554,0.09027709569222027,0.02013750899161284,0.1663655981766072,0.01750816589117997,0.0217821632814419,-0.02310506991401892
0.1536207,0.02044444323608389,-0.0006480345204897334,0.09004927832138876,0.01595541279152865,0.055196979400669186,0.022567747826483672,0.012455946181843133,-0.026340619297667133
0.1540862,0.017684534402319773,-0.02784862881581944,0.0827180713986934,0.018609824940055194,-0.032094946244125365,0.03216758843582292,0.006693447778197895,-0.02753745354136178
0.1545517,0.016644360159264033,-0.045402199107080904,0.07318575686460856,0.017940426468916245,-0.07833340765920546,0.02883461212265207,0.0032903563290868788,-0.029350233154826103
0.1550172,0.016570870076315997,-0.04399353201313579,0.05483210686387543,0.01858994713195486,-0.08656768507968762,-0.012846342472978656,0.003726687284586849,-0.0314474346150484
0.1554828,0.01861191127455538,-0.035034517158549036,0.030131739515135255,0.017917516966024498,-0.07744386579128479,-0.052442078043406656,0.006855211659604452,-0.03311476892580615
0.1559483,0.021014832646041447,-0.032176601030937835,0.0019462969998353,0.01799765841924482,-0.06717305816816688,-0.06959077241599891,0.012618206872838076,-0.03336424158075518
0.1564138,0.0213169,-0.03450715094647669,-0.015596949843545316,0.01583113966835818,-0.07382456048940869,-0.08314209889706863,0.011950123659168397,-0.03323820417960558
0.1568793,0.019617824471003933,-0.034569908003533434,-0.001460511895894652,0.012575839528234734,-0.08681924952570669,-0.09069838000505609,0.004227787886543785,-0.03374027117498179
0.1573448,0.018306830230373567,-0.023033400567759082,0.023521913916350688,0.011743784884813216,-0.08935129936892298,-0.08341708636752886,-0.004694738340416762,-0.03389146304836237
0.1578103,0.019029393471728027,-0.004915071478079848,0.03418325875444776,0.011299315066178676,-0.0811690715782501,-0.062105549650887604,-0.014683156478186845,-0.03296231088045329
0.1582759,0.01989285486832616,0.004044435260383782,0.024604408055748414,0.009425221019570773,-0.054961748413986065,-0.04169294358540769,-0.02110306164708392,-0.03136748871708154
0.1587414,0.018599955500251876,-0.0036188334992443695,0.007704752231111879,0.006966746336279219,-0.019575711000503752,-0.03971635762821143,-0.022909104959956867,-0.03096590262569266
0.1592069,0.018230031961472798,-0.022513391005186074,-0.00840752788441205,0.005484581616202339,-0.012812936655964667,-0.07228267847370082,-0.024785263344035333,-0.031244210940974074
0.1596724,0.021371808252108472,-0.03580547823814183,-0.004081024653184188,0.005831297646553418,-0.03400077414861277,-0.12306366415398752,-0.02524687646553418,-0.03391130941378633
0.1601379,0.023611387296853876,-0.0331734868385168,0.019284513236654498,0.005348041693654386,-0.044442874060199374,-0.132794475318799,-0.021614621647089754,-0.03477587306835393
0.1606034,0.02645649269745223,-0.019947984852761086,0.061635616271690084,0.005232238412818471,-0.037606848391074296,-0.11472773456160718,-0.011587335828326925,-0.03385345365127389
0.161069,0.026212480464616487,-0.0033827505102844175,0.0868478117564877,0.007850039410956636,-0.03182669547090495,-0.08992678169649887,0.007955068813785554,-0.03153733796776072
0.1615345,0.027064475596924674,0.005404395432548501,0.060652242770630596,0.0052033,-0.035312863658431205,-0.073537770087493,0.022045183494055032,-0.029872402387698695
0.162,0.02621678586618907,0.007911463602149182,-0.002724256535243716,0.003269046194770855,-0.04114688016429089,-0.04401360829602455,0.024355520793051776,-0.028886192933094534
0.1624655,0.025140095335785942,0.0018259140411273425,-0.05244699299559805,0.004776274569295632,-0.03419889063924844,0.010243896489718164,0.020710793564483302,-0.027281845612147707
0.162931,0.025701727761232224,-0.007612866461692396,-0.07907091931529159,0.005119449657600098,-0.01679190776114083,0.09727847044773527,0.014553693625913787,-0.02685816925371361
0.1633966,0.02286796557744059,-0.014732692435933434,-0.09446626571435324,0.0011675510056407615,-0.012022661795407308,0.15664289382242533,0.0031878835161944052,-0.02221574798530975
0.1638621,0.024798559721899205,-0.013339797826290991,-0.09201329880679307,0.0005841203569243475,-0.019994205089231085,0.1241460701390504,-0.011345795891270999,-0.019249957906223723
0.1643276,0.02209219104204606,-0.009455514775571015,-0.08145882006501755,0.0013268352672177086,-0.030005087698626403,0.03443312211258582,-0.027271490180805796,-0.015961636896138814
0.1647931,0.02125208049324095,0.00314222420594384,-0.06204218143978087,-0.00043898155804089915,-0.02744765740378713,-0.02193500715050966,-0.0367178282286236,-0.015262379986686012
0.1652586,0.020016845623377928,0.018412403448592154,-0.05416002440257526,-0.0004607543766220744,-0.01935737732117214,-0.024346949204282514,-0.04079366498702341,-0.017880673740267552
0.1657241,0.0202878216880682,0.02979331744587432,-0.04955343130284056,-0.00018977831193179746,-0.01651216900177897,-0.020146860561437954,-0.04296147350454562,-0.019506530128409215
0.1661897,0.02067339364965788,0.03912333002138059,-0.0316613187138156,-0.0008973148125012147,-0.016804513338802077,-0.03976770893911715,-0.042428512282893585,-0.022226658509894633
0.1666552,0.02040833429787121,0.03990978861573517,-0.04653316597744646,-0.002656331404257577,-0.017768565106380467,-0.07639087906382828,-0.03945033370212289,-0.025661420936171717
0.1671207,0.01925064770438275,0.04076910708307144,-0.1054938455899496,-0.005630091517330187,-0.017442016965339625,-0.10287331095947118,-0.03269406324757063,-0.028043813073904314
0.1675862,0.0179599,0.03790073813430329,-0.12749479333679745,-0.007965580266528103,-0.014933875110787384,-0.1116299679560859,-0.02375837311182662,-0.029316095510579537
0.1680517,0.0179599,0.03417782013952642,-0.1141986576411658,-0.008497425694353368,-0.01373726250537653,-0.10471605660874943,-0.01857291979772627,-0.02891725104690658
0.1685172,0.018131395938437798,0.02593902118430081,-0.08926477833583045,-0.007588782107733856,-0.01352463578453229,-0.0880433084127832,-0.021081951204015733,-0.02832362601539055
0.1689828,0.01737853807548886,0.006906039156765377,-0.03834734071611483,-0.008912453388631192,-0.008044082922840869,-0.07238390569058663,-0.02612287831892999,-0.029864923849022278
0.1694483,0.017664616473469265,-0.008197151704988234,0.004022165893877067,-0.007604884753291863,-0.009488270964850325,-0.06363853649206846,-0.03781778074013791,-0.0310521
0.1699138,0.018212185904056648,-0.0307793140847796,0.0002863933232843232,-0.007503893323284323,-0.009749412761654506,-0.037699972840931836,-0.04474958752865204,-0.03168571305196105
0.1703793,0.021072271544527735,-0.05723847090979565,-0.036790601427764594,-0.0068673071068096085,-0.013383154418911664,0.023118735865531,-0.04985195381241341,-0.03532287609905728
0.1708448,0.022543155438153085,-0.07261292989984505,-0.07708958805605703,-0.009472874450677415,-0.02457246413919802,0.08682728638360583,-0.04335351846972667,-0.03462835543815308
0.1713103,0.02375760462461952,-0.0722486313205267,-0.08850533805559836,-0.010808732379168913,-0.027730032024010753,0.07966200000683227,-0.03339510749394505,-0.035842804624619515
0.1717759,0.025121807283205334,-0.06226085204353652,-0.07092016125469532,-0.011698616062543197,-0.021823413730052765,0.01248498200950334,-0.012871821013258102,-0.03821881447811903
0.1722414,0.02699788127797733,-0.04847936420676924,-0.019586762555954665,-0.011436301650814568,-0.007178799531768632,-0.0359552475504496,-0.002614591437724499,-0.03879901872202267
0.1727069,0.029011826902736314,-0.04148487309726368,0.03368222479241928,-0.01096234619452737,0.0021087022214583014,-0.043050908930531685,-0.006966519820646867,-0.039535851957030396
0.1731724,0.028736982706333587,-0.04175971729366641,0.05786843220389161,-0.01151203458733283,0.0066435905261193785,-0.03329398089421873,-0.01493700151632605,-0.04049776570845598
0.1736379,0.026774497376747572,-0.0407364292281444,0.0788948111425038,-0.011829978039739456,0.0024862952770640834,-0.024815906419567876,-0.025127922016306564,-0.04061769901733351
0.1741034,0.023011901022117115,-0.03544931679971034,0.10185111582327382,-0.010076462088880333,-0.010023978756096806,-0.030110951466928736,-0.03244981253369196,-0.04109832555560217
0.174569,0.0183255478371014,-0.02122686709911422,0.14596311383985758,-0.008672625223843348,-0.029503799690573058,-0.04312581294448419,-0.03610547446672971,-0.04090482939492709
0.1750345,0.015372844665603418,-0.007462291321637596,0.17054981517993473,-0.00908204173567248,-0.04367414196816278,-0.047625636517521046,-0.029975929718158992,-0.04248592593709281
0.1755,0.014648655764599134,0.001510442273726984,0.21747028801059048,-0.009597903843066089,-0.06929088070438788,-0.041214926981744296,-0.027939288470801734,-0.04173349231386782
0.1759655,0.015486708545554988,0.007656162667403243,0.2685912580055312,-0.010156605697036658,-0.08102361963776983,-0.030599591756303487,-0.026263182908890025,-0.040616088605926685
0.176431,0.016783815844163597,0.011201385649368093,0.30222931511710205,-0.011119161883122697,-0.06837054332453393,-0.039015334675390576,-0.022788606428550108,-0.041625515844163595
0.1768966,0.01598464976500582,0.0137182393176516,0.27247870502877536,-0.012141661951216865,-0.022728341667593417,-0.07027500621745895,-0.015513527192352277,-0.045272053464001
0.1773621,0.015002911917716235,0.013531488082283764,0.21065629279990403,-0.013049325388189176,0.018551493924054096,-0.0838635331519727,-0.01316021036495953,-0.04503349801044634
0.1778276,0.016957157339204453,0.012154833828479417,0.1560213514931117,-0.01638956997933327,0.027555732343041164,-0.06203039893375143,-0.00899901663781879,-0.04252544294488989
0.1782931,0.013967722445226882,0.008845275170274178,0.15048577479281716,-0.01234355071800536,-0.00805121793392909,-0.0358806517862505,-0.014948297992958062,-0.04477467316323224
0.1787586,0.01209387602774133,-0.0005394771073579779,0.1389509259239907,-0.012341242753935373,-0.05358701821690723,-0.004538068113156587,-0.022066312847743127,-0.04003797767212746
0.1792241,0.011057485620793579,-0.00503209646906272,0.11200793797931294,-0.013669355075772105,-0.06416020694491496,0.007694868744968219,-0.024863664786048685,-0.036960089255405074
0.1796897,0.011432704859527187,-0.019629686312365842,0.07171387035915193,-0.009557427653440973,-0.04552565496228333,0.051936018964420336,-0.025949486656964456,-0.033640100139086325
0.1801552,0.010628601489678289,-0.029534722570379573,0.015320931339290418,-0.011578705238569919,-0.022273885915489445,0.10193452482959292,-0.026590640365266864,-0.03528875263854241
0.1806207,0.00807272640391502,-0.032086215953170995,-0.0632549574363014,-0.012426175467971673,-0.009557452083870462,0.07505059199510623,-0.02966531600978755,-0.03382497785720537
0.1810862,0.002781431748173362,-0.030451621704168503,-0.22567648558508083,-0.012907954221473016,-0.006970218165181839,-0.004135547206296206,-0.026926535671725604,-0.038162932269775185
0.1815517,0.0040102270442037655,-0.019625271086876665,-0.4226506590894075,-0.017201838597821723,-0.0015730421323458513,-0.04467918705248526,-0.01970623092301474,-0.03364984274834047
0.1820172,0.0004291956943768582,-0.005224423767879207,-0.5468103033381785,-0.015006598710073794,0.013634092905405865,-0.02992811430255124,-0.020037805159704825,-0.04204520161240776
0.1824828,0.0036134327652065307,0.01078091865710385,-0.5457922393420568,-0.017875156294780207,0.019051734913391297,-0.016952709739605065,-0.01868688178670051,-0.039049781403064004
0.1829483,0.00407716868675172,0.021875490678404448,-0.45869971274117,-0.01848114919355401,0.018462476001169435,-0.025631887546446575,-0.011708411186547708,-0.03887720544946556
0.1834138,0.008248058141668981,0.016714943508464614,-0.3475733666680518,-0.02210485484140179,0.010445716225621137,-0.03262902145173675,-0.012294433607663037,-0.03434246061479168
0.1838793,0.008538394980645224,0.011116264376938068,-0.20980863942000502,-0.018164169883871345,0.008959920564997604,-0.018273243028466758,-0.020628413192019794,-0.041014465491935916
0.1843448,0.013858699507088595,0.012057649359215172,-0.10101981802796921,-0.019407438767914068,0.0023490603448454014,0.0017363096054782922,-0.03248549970425316,-0.04113302785573909
0.1848103,0.02034012453597248,0.010269652973241328,-0.04305154252860143,-0.017044307496928732,0.00034506496832729776,0.015439013494471715,-0.03487312198846343,-0.04272551353794949
0.1852759,0.02478220094425306,0.005460910712404622,-0.03252896071085549,-0.0169528,-0.0033278080868888943,0.015915392857364163,-0.03332502142790752,-0.03993183571317919
0.1857414,0.026041651905930576,0.00029191638488200444,-0.05217403727328051,-0.01846971056972914,-0.007352026703551372,0.018004739025512452,-0.02902901185060352,-0.036311157249725876
0.1862069,0.025811318778565434,-0.0054502085115715315,-0.07731050976018673,-0.017269144307014036,-0.016558787606679712,0.023275568457210266,-0.024124463830520488,-0.02854965707437133
0.1866724,0.024069574582779422,-0.006498118155157557,-0.07833761815515755,-0.02030020363103151,-0.019820558096504185,0.02850067911027627,-0.022036278986227915,-0.02271731324145222
0.1871379,0.021470411807689313,-0.007179120618997355,-0.05717950354726735,-0.019043758762005293,-0.020290610309498677,0.04436941317834516,-0.021196977084413943,-0.014420834249623092
0.1876034,0.01780113210705341,-0.007719032959318052,-0.03433542088292155,-0.016495171665592636,-0.013426133578589319,0.06009913210705341,-0.015905227598639406,-0.008836852254207002
0.188069,0.01633489089066313,-0.014424536280726234,-0.047897918218673737,-0.016387621421809953,-0.008038522421953504,0.045646825014481016,-0.004566079124346138,-0.009348771671845842
0.1885345,0.013574188476456566,-0.021393261717478785,-0.11781934831476587,-0.018530395079209745,-0.007071981407182225,-0.0011360005451716267,-0.00345708160438878,-0.013827764686991513
0.189,0.012581105815034061,-0.030757438955466322,-0.18062171856287518,-0.019348265109795624,-0.011771454624148435,-0.06078330866959365,-0.0028647924085458626,-0.019012565109795626
0.1894655,0.012274746140600099,-0.03918228437242201,-0.17449461633415253,-0.021186423156399407,-0.019430446484997532,-0.1022949076654608,-0.0033243775501751276,-0.020850723156399405
0.189931,0.01329242200897386,-0.043497592042156606,-0.10373710234026039,-0.021860472016665085,-0.03411497688035895,-0.11716420227310616,-0.003634105855435039,-0.024120235889406524
0.1903966,0.012935829880872609,-0.04846057964809839,-0.042579151695635815,-0.017828826361856526,-0.033287243926172855,-0.11125101802986476,0.002516742463311256,-0.018799628768344373
0.1908621,0.01518703791102084,-0.04724798739790788,-0.017737464443646624,-0.01382242238877605,-0.010404857011630164,-0.09673932803161026,0.005987370086480821,-0.015199097552605866
0.1913276,0.017278487759963268,-0.04814237182987216,-0.020550090778385263,-0.010298873440220388,0.027004258419961825,-0.08337633487860421,0.007608560261467811,-0.016040523339083162
0.1917931,0.015561712965182701,-0.046110212965182695,-0.024914479695515437,-0.008799810804318919,0.059640574413455986,-0.07368387563023243,0.003284134573820538,-0.015034404321727568
0.1922586,0.011709527501542959,-0.04058303674154203,-0.02521560769846836,-0.008194693398975135,0.06589516830225707,-0.06651647656547666,-0.003272263145641493,-0.014252245214699512
0.1927241,0.011204297894492798,-0.03308175122716391,-0.020745842094910427,-0.007609763175149283,0.029958032317999542,-0.06058111082337279,-0.00046427757746248357,-0.013489019672372914
0.1931897,0.012523401438328183,-0.02659547285403452,-0.015089617219088268,-0.007206281725993819,-0.0019184070502208485,-0.048811498034212863,0.014751523885898848,-0.014667140335537954
0.1936552,0.014420921886964453,-0.028029269755948768,-0.015363336239163208,-0.0060368699131723175,-0.0034730215495394822,-0.031437311449619684,0.04540715693365133,-0.014561744966405245
0.1941207,0.014576089192345798,-0.026084191923457976,-0.02177267574358356,-0.0062104,0.0164947486660508,-0.01636409204025249,0.06268993112919896,-0.014213578384691596
0.1945862,0.01414980166359666,-0.022760514984261775,-0.026828036105994435,-0.0067191261244144715,0.024613974380609454,-0.00206153611194035,0.04933314991979164,-0.014711078367297499
0.1950517,0.014754813236960842,-0.017991773526078315,-0.028035683826529514,-0.007884016173470485,0.02175044478732782,0.0066207768097620995,0.026627985619291028,-0.014045493779806576
0.1955172,0.0164876239307423,-0.012544321155829827,-0.031707315491342786,-0.009826352138515402,0.01050976196537115,0.006483496895710569,0.008236609826855748,-0.014400845929936538
0.1959828,0.01723109580453254,-0.006534619160906509,-0.039322623356373966,-0.011740790225672367,-0.010278982936827219,-0.008316446712747933,0.000555163775920712,-0.015041927551841423
0.1964483,0.016752719591158885,-9.673129303070611e-05,-0.04706780238100356,-0.012519773878454822,-0.0352228175469533,-0.02867556115448021,-0.002053088298128177,-0.015785537792931216
0.1969138,0.01724739020205068,0.0052169432328108695,-0.04912158998828232,-0.012547590202050679,-0.05822288719774311,-0.040314547273824455,0.0005343434465792305,-0.013993158573927562
0.1973793,0.018690499589266527,0.008654736290845969,-0.0457043957068498,-0.013096097697340726,-0.07222548775434395,-0.03945585847004093,0.009965867779243149,-0.013800945189314717
0.1978448,0.02017718477135336,0.010441884771353362,-0.04806218730946114,-0.0129244,-0.07084132030486219,-0.026653411676742015,0.021258916242443488,-0.012946502538107774
0.1983103,0.023007672765094224,0.01222320994511898,-0.0529690770011499,-0.013523947125143739,-0.06317025023375587,-0.008294122668884189,0.032180511829390954,-0.013523947125143739
0.1987759,0.02518315588778824,0.01027776677423699,-0.04809542860981215,-0.01542057831877548,-0.05567701203493884,-0.0015122027176980432,0.047244539404587914,-0.01408829637118375
0.1992414,0.026611982849983645,0.015267922824926403,-0.04190864730164874,-0.018140332773522987,-0.05105472005011449,0.010384335548334903,0.05918728272469743,-0.013298108575008178
0.1997069,0.026688,0.02135768615114005,-0.03525788474190261,-0.01946569244571194,-0.04583467547933458,0.04227915659561891,0.06373471555713991,-0.0135958
0.2001724,0.026688,0.02540528949258771,-0.032187257562396536,-0.016115917340796218,-0.03955388873460977,0.05819050518998425,0.059547496675995265,-0.0135958
0.2006379,0.027416175448898475,0.02420760230151367,-0.02394962604884456,-0.004662888875206072,-0.028693245808866126,0.04741462206153524,0.05355189260955551,-0.014083917964427671
0.2011034,0.028924622087492337,0.019785657911880677,-0.010292375265669751,0.006649581966548935,-0.004106162693463323,0.020611516626247703,0.04431008650561779,-0.013343524901899067
0.201569,0.02791442111170506,0.015157921111705058,-0.0038739366648848253,0.016197854257972374,0.04506349991752186,-0.0016911339268612519,0.04193027536967743,-0.012982589444147472
0.2020345,0.0261582401895692,0.013401740189569198,-0.009142479431292407,0.02000291292260007,0.06906446480671768,0.0006503534459894344,0.04397915311216927,-0.0138606799052154
0.2025,0.025287950673287016,0.014734620111221482,-0.021105619693446362,0.01957393618272087,0.022412587575919237,0.0189147541569017,0.04765303404568021,-0.014078230562065534
0.2029655,0.024699499819850684,0.01299817138193345,-0.035510693395830795,0.019316794479609274,-0.05911736109846463,0.021290735402385068,0.04850757982719376,-0.013250153770815573
0.203431,0.025059709016376566,0.009162808196518806,-0.0388420918034812,0.02017493606550627,-0.10276144057117824,0.016438441291956526,0.0520849188526109,-0.011446736065506268
0.2038966,0.02408687813602118,0.0030245688161270805,-0.03575411254408472,0.017513775029389812,-0.0864144882744116,0.01622508124265255,0.051921718757347454,-0.010630818757347454
0.2043621,0.022959598446812477,-0.0032026870138932855,-0.03270226995991055,0.013488687710361966,-0.03313165097677195,0.014597460616397408,0.04311440171343768,-0.01126608240979875
0.2048276,0.021243456884693694,-0.011818463390904655,-0.03836661169838814,0.010957337166163664,-0.00798161817262012,0.006087082352469219,0.03297970391012237,-0.011946987019557057
0.2052931,0.018402774965861044,-0.01775745839781803,-0.05139502275682189,0.009800794038814169,-0.012086283386438376,-0.005110303683868764,0.024659624897583134,-0.013224375011379652
0.2057586,0.017356028459982763,-0.020778614620051705,-0.06439302053356315,0.011144610662645256,-0.027912432372192732,-0.020572144640275774,0.016195239947945153,-0.013573290513339078
0.2062241,0.0195993565802812,-0.024746897834120762,-0.07665322686107784,0.016687356316801533,-0.04288335805391414,-0.028174504947858142,0.0073147928862626185,-0.013584649059823244
0.2066897,0.01917038175889564,-0.033984659236917666,-0.08750760907397018,0.027311099720508016,-0.0461827044672016,-0.008748795626320428,0.001366904467201605,-0.008402072871253446
0.2071552,0.021106813096385166,-0.03633599894430633,-0.08806087517039576,0.03643999031153007,-0.04161830037411063,0.0182228029671664,-0.0031974996258893724,-0.0036993110516360247
0.2076207,0.02173589137761383,-0.03241724925672128,-0.07791431738155909,0.054015193359690426,-0.02674388388305271,0.03937859964126761,-0.0040991995044808525,0.0015037508116720994
0.2080862,0.01988476012757144,-0.027657197470897996,-0.06707205597763406,0.06485753353851012,-0.01484383319338918,0.021660707880042283,-0.0009258316472653297,-0.0010084593545095165
0.2085517,0.01711350533794804,-0.01801172895699121,-0.05108970411138289,0.0757,-0.005196205337948038,-0.028858967048289514,0.001529469816443644,-0.013340954035926772
0.2090172,0.017087631398831904,-0.011419802321401714,-0.04047590928560686,0.07464832312196185,-0.005183810522289749,-0.055465096517897425,-0.0022507941964957116,-0.03145935119065523
0.2094828,0.018566769624333575,-0.009644836450799712,-0.03337604580319885,0.06311113308567173,-0.006810818509030132,-0.058127545323800434,-0.0066882088730007205,-0.043292456994668584
0.2099483,0.021175348660890745,-0.010875775755238773,-0.026580388475267492,0.03449515270577376,-0.006564278347773136,-0.0835616824783403,-0.013702637514532224,-0.04635168507087466
0.2104138,0.02194197820344431,-0.007787731175285255,-0.027913158536537804,0.002936503814032703,-0.002361491617864438,-0.1291803463423195,-0.022028781553295306,-0.04262210838213556
0.2108793,0.02270032414124649,-0.005925885407397423,-0.03420493702875615,-0.018730380831392057,-0.004074027576260521,-0.1433570257750193,-0.03197666718748424,-0.0335351759549018
0.2113448,0.025937951198917873,-0.005982364576219673,-0.04624053648937372,-0.03809696164508602,-0.009077475022387819,-0.1156890871855124,-0.04111019772022938,-0.022998525569942654
0.2118103,0.022049422496505062,-0.0013446903322913903,-0.0497182807059956,-0.03889156837466702,-0.015555667093666755,-0.05096308717120355,-0.04918562594365742,-0.013622966453166623
0.2122759,0.02146090227662431,0.004297489927859695,-0.05024594763741273,-0.023995877681907734,-0.016797474577866886,-0.006443778820219886,-0.047390626146736996,-0.009440011935056346
0.2127414,0.0223239,0.016297119678367153,-0.04924479749216516,-0.01065877119347613,-0.019568404304642815,-0.01080020676443871,-0.040020282262557653,-0.009883101229897946
0.2132069,0.020838957325965822,0.027128871948556336,-0.04466322247464487,-0.0013273856044205077,-0.021069485377409485,0.03608037718355226,-0.026074164665315876,-0.012165000170901434
0.2136724,0.0226596,0.033005085665424566,-0.04137277112983653,0.006376685549918978,-0.03030145738105524,0.13355618564818092,-0.01031482849813685,-0.0142672
0.2141379,0.0226596,0.030938597699022522,-0.03917708919204676,0.009863845519734822,-0.04037558621726521,0.1516378784072236,-0.007215096548533782,-0.0142672
0.2146034,0.0226596,0.02073648037800125,-0.035778333376403265,0.003965330921435333,-0.05005631671860158,0.10538534713080777,-0.0033108316333514878,-0.017591876499201006
0.215069,0.021295368952232732,0.005667644633575004,-0.032295834704485715,-0.01380872026005894,-0.049854885902595236,0.04714863133993094,0.030495961876101187,-0.025819876320527953
0.2155345,0.0226834499143117,-0.006251244050173127,-0.029070437133491337,-0.034406007415861514,-0.045268127284740264,-0.015156031269352766,0.08046405354402919,-0.0338337602622425
0.216,0.021096183432317377,-0.009157780120497186,-0.02497665928465071,-0.016041967227074155,-0.033967763368238105,-0.0930389877492378,0.08305605474297893,-0.03813232750824343
0.2164655,0.019607771243421408,-0.013105739894742494,-0.02315703979174941,0.058509637354138715,-0.004376332696225614,-0.14792066357011352,0.03618247251372329,-0.03482818113703169
0.216931,0.01819947433785537,-0.015034725662144631,-0.016328723013566103,0.07301618983513603,0.021560545862132383,-0.156555991259555,-0.0074875778484983545,-0.03364127841085288
0.2173966,0.01637150206901556,-0.014685159652127053,-0.013356221826539758,0.012028742037334055,0.04744047618685739,-0.11781661070723812,-0.040757848862476236,-0.029018022197397145
0.2178621,0.015441397249967884,-0.015042331959472455,-0.018798397249967885,-0.03554470215835056,0.06182024663888324,-0.02130341177999743,-0.05135134615777676,-0.025707876440005138
0.2183276,0.016171643569136848,-0.017183937209396715,-0.026292905809218246,-0.030731871504430654,0.06794265393452989,0.11442273305174414,-0.04149752904609123,-0.02381518547695438
0.2187931,0.01794916647702777,-0.013976838466836346,-0.030848164662205455,0.01701211258280398,0.071162318867766,0.19637383885936693,-0.024702444006495555,-0.021471562102080347
0.2192586,0.02094027393560084,-0.007613689146013272,-0.030624448617303346,0.0824557325949032,0.04369232200363094,0.12713085960306214,-0.02637186308161411,-0.01832119821130949
0.2197241,0.01868500294373194,-0.003224522777494116,-0.03899414011020429,0.11939205997338032,0.00754585436142716,-0.010576951334110608,-0.028801128637872625,-0.018215037220643097
0.2201897,0.0193027,0.0008490812146643757,-0.044695805998743156,0.1310930030884928,0.01448299213293392,-0.05775761984102683,-0.02029359743247087,-0.014107822737513345
0.2206552,0.0193027,0.00014686002174236988,-0.04682983261430673,0.12479587839943386,0.03556274291933707,-0.03545788541175911,0.0043637396964624296,-0.011120082400849208
0.2211207,0.020634347227767785,-0.0032392874750449777,-0.046505352772232215,0.10594519786487162,0.05130664621647752,-0.022881536950488994,0.04035857196548979,-0.009768756655574784
0.2215862,0.01719493514344727,-0.004302813989004323,-0.04578424731543457,0.07578052857708353,0.03486219078013475,-0.054019103571906216,0.05253174763568129,-0.0124071916580378
0.2220517,0.01931523565935177,-0.008425170549628349,-0.04714478340152489,0.03539941335460488,0.003522040931687253,-0.10667332050022964,0.04510476425686351,-0.013180635057846021
0.2225172,0.01830029335654104,-0.009187848322809453,-0.04659748991856141,-0.019021466764409894,-0.018628949965061474,-0.09501696490337906,0.020329986634057377,-0.010926165047706996
0.2229828,0.016771477811091787,-0.006054807446273754,-0.04210932933535586,-0.059626305363171005,-0.016088423903898866,-0.011169925837088562,-0.004893329635181964,-0.008199523903898866
0.2234483,0.014450890436122426,0.0011293626542327356,-0.03904932700670208,-0.08993593333111567,-0.005145845216397967,0.06462411111175792,-0.01835194922772307,-0.012162923766406476
0.2239138,0.018808965316387826,0.009553983037680578,-0.036943373797547537,-0.10240407898684406,-0.0021360302532889863,0.07733204328861289,-0.019184170064277174,-0.025311908922566878
0.2243793,0.020494643864769072,0.013294087729538146,-0.035995132561393695,-0.11517300235980142,-0.0027628863188614437,0.0679976217195703,-0.015330825951600409,-0.04223979619359836
0.2248448,0.02098547642628064,0.008375548296143693,-0.03582737414807185,-0.1290273474469088,-0.0032437850307892578,0.0696904253820039,-0.014334028789716515,-0.054611525002693256
0.2253103,0.021949355442504627,0.00023137881407753267,-0.034452911177057274,-0.13978880086533332,-0.01002460493377545,0.05099966792906828,-0.021457877212523138,-0.06401836225907176
0.2257759,0.020966309740634688,-0.004963717521594007,-0.03221621688761627,-0.13947592847018303,-0.025356083112383725,-0.013325094238717207,-0.03476445207854819,-0.06361080512730506
0.2262414,0.020076575085145883,-0.006729197528440274,-0.03082152247272296,-0.1309520350828194,-0.03974954903722228,-0.05838836794056077,-0.04749378109666151,-0.05408232604210743
0.2267069,0.02058696942440463,-0.009274747122023136,-0.02951992643898843,-0.12591017518035835,-0.041939971270469674,-0.05760156528779769,-0.06563938731322262,-0.04112649452100284
0.2271724,0.0206455,-0.013641915570020384,-0.028500489520709917,-0.13120413652860055,-0.03092532553019885,-0.03923706663041808,-0.06454269349666965,-0.029011937422088983
0.2276379,0.021432786719208275,-0.01847539468197017,-0.026830536287794353,-0.14545398761016037,-0.011557610636059661,-0.013108217726766104,-0.02300929918463451,-0.015883077893618532
0.2281034,0.021945082999813067,-0.020564980662323828,-0.025282062265986765,-0.143765906644383,-0.006273537734013233,-0.0048275773401323325,-0.0008276518668196826,-0.011122728276185264
0.228569,0.022532233508585044,-0.02131823331675834,-0.02398513994315931,-0.1342667010496071,-0.014076136034104415,-0.019280778836711525,-0.015365813060975234,-0.01327468393747524
0.2290345,0.02248976612753537,-0.01933913787816812,-0.02529257050785153,-0.12010907498062097,-0.03427773787816812,-0.0676235469936764,-0.03322554595553844,-0.025515042304710914
0.2295,0.023969180324490785,-0.02183880651238674,-0.029602634483656656,-0.11226139346504221,-0.056152550914258026,-0.14383371940173395,-0.016680947440717006,-0.04299039842268816
0.2299655,0.02549589454060475,-0.025572597919522263,-0.0320248890812095,-0.11367229066738789,-0.0570145934487257,-0.19038406481355852,0.0036957263498043074,-0.05254757171442506
0.230431,0.024327438059488428,-0.02556362183040503,-0.03375090345059837,-0.11506463385814705,-0.05392224776204629,-0.1764623610882628,0.009018162113571858,-0.057721268090965304
0.2308966,0.023697561363101256,-0.02071677326575032,-0.034706220997839016,-0.1092196653104022,-0.06412821819037991,-0.1146440997942166,-0.00434883696928147,-0.05408019886015816
0.2313621,0.02326042447980769,-0.012677367282490635,-0.03652917116464687,-0.0902426416686921,-0.0805759839132218,-0.04255668435472638,-0.01412621173123276,-0.040576098982657835
0.2318276,0.021820450779750873,-0.007899395260752805,-0.03812278271203289,-0.06773237302025184,-0.08522550096266657,-0.007521732955690524,-0.008298035593360743,-0.03014991200664469
0.2322931,0.022447907996644548,-0.00492207485649208,-0.04004076126333987,-0.053370607559588036,-0.06212110363342728,0.0069684462202059825,0.01283618968109771,-0.02870272260272192
0.2327586,0.023079717364008167,-0.004222083887062034,-0.039628819154457776,-0.04219054471536113,-0.008858129788614444,-0.001501928699247213,0.047628719477863714,-0.03398385637400611
0.2332241,0.02334887421593485,-0.0033186041111797847,-0.037653411323808283,-0.03027124020913417,0.03422259996481214,-0.036499995853444385,0.06612850418211944,-0.04104784435587777
0.2336897,0.023293078849414877,-0.0010592440532697647,-0.03707573801258446,-0.018853228075506732,0.03682361922694854,-0.08214641468496028,0.053308995472773756,-0.04863165291820104
0.2341552,0.02199809072561207,-0.0034606058654775207,-0.03607072885230338,-0.015056123715898874,0.014790055961753402,-0.10545639166259611,0.010241516138286522,-0.0516483033781919
0.2346207,0.0207887748301648,-0.009205147275537121,-0.03846405272446288,-0.02083986779384816,0.0010357416039264004,-0.11086445753469264,-0.053019908337043196,-0.04565910136470592
0.2350862,0.0206455,-0.020980351754084737,-0.04064096214931043,-0.026294064158090272,-0.006323496047743121,-0.08993455886318465,-0.10860883074158965,-0.0375331566323611
0.2355517,0.021065997233684554,-0.023055247591039052,-0.04233934316797184,-0.025344492191967816,-0.026109978403715067,-0.07490527830411665,-0.12580178633594366,-0.03503844902399598
0.2360172,0.021282054793853023,-0.020050116443028836,-0.0412014991188645,-0.02186166604694946,-0.042340535990155664,-0.0779824974534741,-0.1260722226030735,-0.03587614608728248
0.2364828,0.024488147812918644,-0.01238661294630419,-0.04050933093803349,-0.0236545291746753,-0.056785548459432685,-0.07953512783215051,-0.1200946818073384,-0.03384269691886538
0.2369483,0.02772729817384271,-0.009316402297712146,-0.0422886427224129,-0.02835438385444593,-0.051631712257462055,-0.05009911202093116,-0.10886313164383797,-0.027323865821918987
0.2374138,0.031274796358674695,-0.0036768800063330742,-0.04299984746090588,-0.034413138033209875,-0.03731303819637968,0.01264327622958956,-0.08692479157907448,-0.01865881453363585
0.2378793,0.03303137331490073,0.001431696260125742,-0.04458594255341691,-0.04824683045935296,-0.02911899228445147,0.047818707312707376,-0.07406683150083528,-0.01735826142225736
0.2383448,0.0309020711940268,0.004128908129645997,-0.042172727844872734,-0.05960333396616281,-0.02997073004746221,0.061730424108549446,-0.06043911186596928,-0.021616950237311056
0.2388103,0.02714580985651727,0.005834946246945284,-0.03972666374956361,-0.07273043452262841,-0.030867221720825767,0.07360630048260823,-0.021961859303913218,-0.028536293739090304
0.2392759,0.02706428514997611,0.007527402020838739,-0.04117017519363986,-0.06722908341079276,-0.02403060547810193,0.023870326165333865,0.046755996183630695,-0.03806189928178778
0.2397414,0.02695932661247456,0.010318815869281513,-0.04432442974700127,-0.06746134295696905,-0.016531446612063665,-0.07723228344716337,0.11645120228798439,-0.04411993454711532
0.2402069,0.02735792915174789,0.010743085424126055,-0.042569110442028595,-0.10002563783367142,-0.019633977499058035,-0.17270676233763993,0.13269199469506632,-0.046128028737515064
0.2406724,0.028117285770559816,0.010848424449600134,-0.040663848899200265,-0.13153930801856048,-0.026438785770559813,-0.19807773904112755,0.1109052230040066,-0.04527706680904262
0.2411379,0.029888278063856515,0.006386611778406132,-0.0371431497959964,-0.12485736568633547,-0.03075394991809139,-0.1604578144334875,0.07742999089110698,-0.041284914433487516
0.2416034,0.03155939299554394,0.0015388145092304199,-0.03724441150732068,-0.07022169849904512,-0.024231342058887367,-0.08059269799872684,0.0733518093459365,-0.030530157312834316
0.242069,0.03131557305895007,-0.00507360205787446,-0.03623865547267619,-0.02266091758676955,-0.0196564513564316,-0.016191110944856712,0.05557945753055065,-0.019418413002731172
0.2425345,0.030279161000262893,0.011740461982835852,-0.03840931760042063,-0.017320070775888444,-0.007668830199526797,0.02576932335014696,0.031167730199526796,-0.0195208273832039
0.243,0.029618156603645602,0.036615722966234755,-0.03951088790154617,-0.027947940123067293,-0.0036902822887487853,0.08245092951280898,-0.0008306790154616753,-0.029431366917007845
0.2434655,0.02795978189967736,0.04928001820597359,-0.04071701125771177,-0.026440285927860286,-0.018917544749580056,0.1014472825508983,-0.012891912577117703,-0.04269872383482947
0.243931,0.0260618255035144,0.04830270216909164,-0.0424340529165888,-0.025523253564561723,-0.029971745095477998,0.0399707627517572,0.001976302169091641,-0.05203553742940124
0.2443966,0.023576895721123807,0.036902049776616194,-0.045288514311243866,-0.0367992140431833,-0.025008359898337388,-0.01071870008935352,0.03663194430508932,-0.04673186984135154
0.2448621,0.02387877584407779,0.023115543122421624,-0.04572078528935554,-0.04464109904451229,-0.0253452,0.011461356877578379,0.06802033411691577,-0.03907034075562222
0.2453276,0.020683101889267305,0.011431188996378149,-0.04739989320169588,-0.03802080945958823,-0.02034743749311925,-0.04300424411218067,0.0836181285580074,-0.03874989036116906
0.2457931,0.016591513368457853,0.003654710645488965,-0.04874951437740972,-0.03242009886785484,-0.005209504190599316,-0.1778290542363967,0.07801016006486516,-0.040154371459968606
0.2462586,0.00916586884800411,-0.0017003016070395985,-0.05247072611804645,-0.01880780363974048,0.022867889293609202,-0.24602366540221704,0.0763495983929604,-0.033110572274913944
0.2467241,0.00297341386633029,-0.006183439233291286,-0.054587776695370245,0.012539607218293558,0.0493490519348775,-0.15535136979242603,0.06531543201499773,-0.01808488790488204
0.2471897,-0.004483167437173113,-0.007073107982549363,-0.050383280965623174,0.03825085538774334,0.06801000925649246,-0.019494007982549362,0.05774963427300649,-0.01572561444610452
0.2476552,-0.013696283395171089,-0.013913242068612075,-0.05300723320965782,0.05724681947296297,0.04793511773430478,0.04425173882945148,0.0526395494434602,-0.021006313365668317
0.2481207,-0.008981093336872253,-0.013340622381817102,-0.04794638333439911,0.048344376194618274,0.014212501545472614,0.04459779470497231,0.0475924402381455,-0.020214819346336444
0.2485862,-0.016057822573377747,-0.02226033322609718,-0.05499016687847,0.029723047283895822,-0.021625005432208355,0.010213422578821758,0.019010371889846722,-0.02055288785931932
0.2490517,-0.015187514902475363,-0.02449533450641093,-0.05478435131229229,-0.002445005903474305,-0.019255734660093872,-0.03559564055367483,-0.01641984557239427,-0.03561100398028162
0.2495172,-0.015765437070633728,-0.035934969820755384,-0.05377705560595059,-0.035617268264289584,0.005039843838551478,0.020250837516103667,-0.04554085028447065,-0.06267423652857916
0.2499828,-0.014627482308396078,-0.04904977896416123,-0.053072091802254445,-0.06722356658480776,0.021020089711450488,0.12776190322144648,-0.05280902798015343,-0.07207480451755931
0.2504483,-0.008858118267592321,-0.05441523226953747,-0.04901342969231275,-0.07386615271809416,0.027553994625630775,0.131406965013377,-0.05334716703624068,-0.07135866709805978
0.2509138,-0.010568592263081286,-0.0615675662376201,-0.044671885407904725,-0.046666564658255416,0.014707693903819178,0.034378026539388505,-0.06164743636959923,-0.09850076828375554
0.2513793,-0.008453193942789358,-0.06334042057052829,-0.04217514399041396,0.001269405344597625,0.016055955296973026,-0.05940200667457446,-0.060566090831279985,-0.11160888227992379
0.2518448,-0.005057876725849657,-0.06960593865870225,-0.03842871768991847,0.02290134425563517,0.0218204,-0.08872232295388444,-0.05586594490886803,-0.11175757048838492
0.2523103,-0.0029125343673371946,-0.08387335602782346,-0.03581973007973261,0.006158222617055416,0.021759526904660004,-0.06722401722347937,-0.05046263222189477,-0.09368331603460611
0.2527759,0.00022795081226233724,-0.09600770993447573,-0.03297055876416667,-0.011771006932313342,0.01842494159388005,-0.04836983296293553,-0.038988769323133415,-0.07085004391700224
0.2532414,0.002723771356889157,-0.09675097370735027,-0.03158779230098159,-0.011512909547703613,0.016122925467056296,-0.04892494856411151,-0.027969861809185544,-0.060692709547703616
0.2537069,0.0037812118387522864,-0.09033449508842206,-0.028762350511242776,-0.004000528967486283,0.013132528470930847,-0.05535860491157793,-0.0254839542821835,-0.05933999622905928
0.2541724,0.0043200975195218936,-0.08038867016716848,-0.025335554457473805,-0.010980800826826035,0.013595448669691555,-0.06515418529727014,-0.03009829669269586,-0.06016060082682603
0.2546379,0.005747882868793283,-0.06499402213552684,-0.021314090247302228,-0.043741556345880256,0.021771889525783784,-0.08068331155672612,-0.024300785656033583,-0.05887401713120671
0.2551034,0.009132838139114904,-0.04295158613752921,-0.018345030930442548,-0.08576920665379843,0.041717669676124294,-0.09099560055487392,-0.0011919828803353201,-0.055099713255903945
0.255569,0.013394557556625442,-0.024190747898963836,-0.01612701961867102,-0.09826943556568489,0.0638100078800361,-0.08435758678078077,0.002927207233214774,-0.05430493936005482
0.2560345,0.01765197403280859,-0.008955149050833368,-0.01119256807933391,-0.11136752209842578,0.09133959548243459,-0.0605711804727403,-0.01639305723905772,-0.05720604871441696
0.2565,0.021584561226328146,-0.0009072387736718532,-0.007050205504229456,-0.16412651353165417,0.11423727119323288,-0.040188472840602785,-0.032345312172045934,-0.05972144660507535
0.2569655,0.023835197712287672,0.0013433977122876712,-0.005643505321141368,-0.19774643839000597,0.11648799148617381,-0.026684151082957134,-0.03051656003054071,-0.05803340638536964
0.257431,0.02611742970662414,0.002719188403785223,-0.003423970293375859,-0.18725186466440297,0.09777114119849706,0.01057657210336847,-0.03400646521135567,-0.04884358697161082
0.2578966,0.02981775609501884,-0.0023305804831117044,7.135079674509522e-05,-0.15027993946084578,0.06509436341385194,0.057383816215121404,-0.05961032396102369,-0.025201002874697717
0.2583621,0.03236743312277786,-0.007729993524772876,-0.0014305276707202506,-0.1248819244862359,0.05997857193777667,0.0806697348394604,-0.0668133760115256,-0.005337932873897108
0.2588276,0.03610164503534944,-0.017181341826708593,0.0025602023797638537,-0.080163504300267,0.09934139462091095,0.10515595390614324,-0.060650508304666,0.006817144206472449
0.2592931,0.04084314470850803,-0.022156674177232615,0.008586940605302195,-0.012495703422774656,0.11758361823580195,0.08790152471558005,-0.05723536825104818,0.00939893412552409
0.2597586,0.040478440068865536,-0.018375347601097207,0.010120304174626955,0.0421486724979501,0.1008166131470595,0.07220391986677732,-0.058688487730068885,0.009372722704244307
0.2602241,0.03893464405156154,-0.011967186703772979,0.0146517530711721,0.09029194174275793,0.06270255144445862,0.16108796764136235,-0.04871973075533452,0.007219234338101369
0.2606897,0.03825929700583109,-0.0036837979220589786,0.02133752090044111,0.11480008073033815,0.025675000894323532,0.23815465779576472,-0.02362254373417626,0.0023262784069118837
0.2611552,0.03716540263345927,0.008401083905924566,0.024836673680572355,0.12260718506841177,-0.009814041183936618,0.15823576447644347,-0.00232184915139369,0.0013555845077292462
0.2616207,0.03703330200204879,0.015938878000227644,0.026933591991804836,0.12040787395462517,-0.01799212011855906,-0.052333269897640526,-0.034834908008195165,0.02489210399271541
0.2620862,0.03689526508586233,0.018283387784615048,0.028079648861539803,0.12373950486417404,0.004123094292450838,-0.1660699658074764,-0.08923564298696267,0.05383278292044101
0.2625517,0.02927419235003249,0.019053419284604467,0.029465406016541625,0.12578449356386234,0.04591470601654163,-0.1483902552743841,-0.1458604787929935,0.0661819354422225
0.2630172,0.04125700036021133,0.010939956620497114,0.028772452963976916,0.1504551578670555,0.06511390498584804,-0.08015540249273127,-0.14137700936279088,0.06929570432118413
0.2634828,0.04249342287935034,0.011685440921115741,0.03160342895852835,0.16741760619518112,0.03581700933814837,-0.01906051993764565,-0.11113948951650583,0.05453035803305981
0.2639483,0.04289861052516853,0.015579288156616989,0.03470083158034958,0.16888182894571727,-0.010698731582771584,0.005480074991972155,-0.06737590525832593,0.04341995789448189
0.2644138,0.040436584430461206,0.01872516964426059,0.03770997458499186,0.15356263695650324,-0.018905485231795985,-0.017635573708297485,-0.033454819820288084,0.04287284098454694
0.2648793,0.03566748817440824,0.019751472236853,0.038105316710559,0.13586948984667707,0.007505511184427235,-0.06673414216027265,-0.011928813366021349,0.043068365811456163
0.2653448,0.03441901870225764,0.015257325710831259,0.0387732,0.13975073245976824,0.03771540254668153,-0.10743908642811228,-0.023940462892716775,0.03486602810889677
0.2658103,0.041942414034163385,0.007893113335089578,0.0387732,0.14538095894612055,0.049598552708257956,-0.10929062251614327,-0.04363806357002271,0.023479554388969013
0.2662759,0.05774160672148666,0.002496481325652996,0.037493832324453955,0.13756364848668093,0.056604961775962,-0.08742559630515148,-0.02459450959443256,0.016865463980697534
0.2667414,0.07132966287075468,-0.00370367230726754,0.0368461832292654,0.12052630066340776,0.0572801916146327,-0.0820607742194905,0.03900547995122676,0.0182825670829384
0.2672069,0.08155201030567834,-0.013966897263570394,0.03980254750437755,0.08847577053297745,0.05267127874343368,-0.08597222125656633,0.0965962692437256,0.02380524009472201
0.2676724,0.0850313319916269,-0.01582238709982559,0.047937556897383375,0.03637604305646347,0.04092403506418934,-0.00885530443752754,0.07147438356870177,0.024664469727781864
0.2681379,0.07530633521725877,-0.0015898045734892264,0.05335827227156978,-0.009754206770782672,0.034909066329862064,0.12279588627953232,-0.0030200149073473024,0.022092152969635594
0.2686034,0.06856331751135583,0.010579207197826238,0.06270546142208237,-0.02342471359834106,0.020016802188346585,0.2096574487027465,-0.06231510221710555,0.0313316491376659
0.269069,0.04525783879760737,0.018810909188012096,0.06801452201198499,-0.025755963966440573,-0.06357488021077339,0.23137688854607336,-0.10053716943235948,0.03320079880239845
0.2695345,0.025360622474893214,0.029203069514788453,0.07054921367819066,-0.02512225329755573,-0.12402693667877757,0.19411707206218387,-0.10738083693111476,0.02724431113914858
0.27,-0.007698122913320735,0.04075060736519848,0.06351986526308788,-0.03964934148986199,-0.1688313752874354,0.1252154389523264,-0.11329962761937018,0.013517733961118451
0.2704655,-0.01899749521365192,0.04730870674529975,0.0710772373018801,-0.08727393721289077,-0.1840811134905995,0.07592200487533741,-0.11442085595282014,0.012811514701566239
0.270931,-0.031789579049408136,0.04103693199812145,0.06727451047529594,-0.13731360057223366,-0.15898441188162457,-0.03303085284203817,-0.07873192745851244,0.005814232415168948
0.2713966,-0.03820657450799211,0.03353597910006578,0.06389139376780978,-0.13610283983147592,-0.13018819179959773,-0.05419978819108867,-0.008939387535258612,-0.017175580084352274
0.2718621,-0.03883294277807006,0.025436068924847954,0.061314986283241106,-0.10081858433524282,-0.10455234936409422,0.031025808061283765,0.04809957601959674,-0.04776164889135554
0.2723276,-0.031205616311263215,0.014635965659010671,0.05845895517695582,-0.052845192166514156,-0.10301879332632426,0.11325566092052544,0.06384072327075353,-0.08862754273312798
0.2727931,-0.020720815688526288,-0.001033753916095709,0.054390690676529206,-0.009655809771695684,-0.13985672280576797,0.08819621411202211,0.03829635233959153,-0.13028590509251262
0.2732586,-0.01888986899131548,-0.01608143755332632,0.04977547357849187,0.017429263258877687,-0.17735387969382904,0.04638707023417118,0.01322869665567931,-0.1604446572861931
0.2737241,-0.02250619703811845,-0.02143433850817796,0.047779228464864855,0.03251840820456231,-0.18156850820456233,0.05132350875121165,0.019115426830116366,-0.17433751303973236
0.2741897,-0.03327278932404773,-0.009679295840809458,0.0443517191220214,0.039851833346988635,-0.1776854717518606,0.0013215130335234564,0.03690781199508409,-0.1916336139942648
0.2746552,-0.043270565129461556,0.02080899808269091,0.042332626930528354,0.02433233261202557,-0.18775487887427597,-0.08071681892008821,0.04201025026747047,-0.1994456186261792
0.2751207,-0.040624590387685997,0.04726799678217716,0.04083345645111393,0.01429277497168862,-0.21036115645111395,-0.1524030443250304,0.0394450673563582,-0.22412278702568114
0.2755862,-0.018533744372707984,0.03906171176817317,0.04132154461168033,0.02505911115292008,-0.206979589462333,-0.15079219243693448,0.03354753458760247,-0.24564606883193396
0.2760517,0.04663651932442056,0.014265398430373631,0.039840910404563744,0.042639606937248484,-0.1875714827684146,-0.11911225513226545,0.016512698898469007,-0.27495170688213505
0.2765172,0.10996760091811617,-0.016092648057977936,0.03615315773784305,0.04135716701374178,-0.15791688974443052,-0.06333964580378929,0.00021144951715960317,-0.24828728527069208
0.2769828,0.16195395510251084,-0.05021395527151588,0.028322116310342073,0.017841881419381853,-0.14385652685337383,-0.005117749100031245,-0.02113058152222263,-0.13080439609879144
0.2774483,0.17348417163901672,-0.06480669627367976,0.021121207045592293,-0.0017335140542644365,-0.14058707462265288,0.04309764169658396,-0.028339609513199134,0.04023275883056586
0.2779138,0.15742603107641906,-0.11171495194671051,0.015207216890752323,-0.0037878085992449264,-0.1213427760020613,0.07668992106721927,-0.018835488662949026,0.2070499577834578
0.2783793,0.12942218992418306,-0.12414785739915098,0.005935860237824242,-0.05785654793635812,-0.09800607244953544,0.11365930513689514,0.002120847665812102,0.29022861781712567
0.2788448,0.09603551534914073,-0.1360901885429785,-0.0021306390314504283,-0.1277292017162306,-0.09427797634400552,0.08297518190771908,0.00871038780102704,0.2803064221774211
0.2793103,0.07044403555555893,-0.12969237815194268,-0.00799537134889503,-0.17611296540080362,-0.08468122105254539,-0.03511864479758918,0.0055114429006027105,0.24218582093365681
0.2797759,0.03547198337459648,-0.10892178845213522,-0.01668707757325629,-0.1996276271361438,-0.0730294536033017,-0.20902907362845005,0.005528371102930251,0.18000119514017635
0.2802414,0.010454169732258255,-0.09045838826495571,-0.024883807921360804,-0.18260169119893288,-0.06620446489030174,-0.2208178315400161,0.022695882150724836,0.12354209428147676
0.2807069,0.0034440307412863793,-0.07542431780261695,-0.02897484669796663,-0.13694260732975613,-0.06960496692783949,-0.10960366830211288,0.03742433703733636,0.07507345637787326
0.2811724,-9.182409322098649e-05,-0.0576477373562098,-0.034029163877465886,-0.07490618849749879,-0.08852371766851888,-0.077877559732981,0.036242651363017894,0.05144013933606554
0.2816379,0.011953803155934636,-0.036693167097009545,-0.03758966807964926,0.0033290287644161024,-0.11113299487878593,-0.11568178794528132,0.019846338954228777,0.03524803103808445
0.2821034,0.03840879925229724,-0.01688514501492129,-0.040550581868748756,0.05873119876458524,-0.10461906864470677,-0.12473668334801953,0.0029467034279384964,0.02917496067534301
0.282569,0.08710095802637177,-0.004265329042628807,-0.04138321065697395,0.08553533073747775,-0.08700140306226992,-0.07708129386163408,-0.008888418519631736,0.01544097882002898
0.2830345,0.1056680085107103,0.0023033501345332856,-0.04136688678399534,0.08302386149759347,-0.09147467098470737,-0.042589150084601936,-0.020430585784589925,-0.018004789905411794
0.2835,0.09649925581230775,0.004512405708344985,-0.04392289214971306,0.06225375586691431,-0.10894824418769225,-0.022183815092306117,-0.03505555560438223,-0.04848995407070804
0.2839655,0.05662361263804735,0.004864901270936152,-0.04510908615358005,0.02546060970039453,-0.09378958713689113,0.02599394082254279,-0.049380741410073356,-0.049857209016988945
0.284431,0.010564702860202741,-0.005215558833545913,-0.050370682760969884,0.0022187640918383987,-0.06815043024977967,0.11103897294240996,-0.05104694069644603,-0.04961352079725789
0.2848966,-0.03758548387542833,-0.02487404567949052,-0.05447771516445846,0.010548222617688001,-0.050482250738055956,0.15221301225379563,-0.046589315422457804,-0.05754749570027103
0.2853621,-0.05199408957418714,-0.03497316836646769,-0.06014833655170332,0.024679864212629198,-0.041007082037213066,0.06662629065795478,-0.03596179738119693,-0.08651118907989035
0.2858276,-0.05377114610804221,-0.04758360608052682,-0.06358497198402638,0.02153001949182044,-0.029937468181065997,-0.0654504224976896,-0.0167620400275154,-0.09507886958081783
0.2862931,-0.04707488454280947,-0.07893143576841201,-0.06680114977876533,-0.005578004522628003,0.0036955502212346614,-0.139674263818976,0.0010854900698053487,-0.08746452477413486
0.2867586,-0.05524192022464552,-0.12773306649526775,-0.07422488161797204,-0.05485695556095843,0.03444019458250645,-0.0801771316621147,0.0391872085885319,-0.07333034627062222
0.2872241,-0.0747649572350007,-0.1503072649250152,-0.07283918052276533,-0.10785168856841014,0.051200600708561694,-0.021877259981338652,0.06253505038875813,-0.06841416569983252
0.2876897,-0.10602105082395388,-0.13825367458802304,-0.07447795242515261,-0.13295270481794672,0.06284615765148861,-0.03396469433291619,0.07673051007664121,-0.08462040813177019
0.2881552,-0.14153274185436387,-0.10166422634099159,-0.07629576590232229,-0.1271346196214068,0.06300400727814218,-0.06080189304088714,0.07437848299116785,-0.12141493932180264
0.2886207,-0.1695951370464821,-0.06235150941496175,-0.07773456628054577,-0.10552457222041943,0.04473424094462674,-0.016521683952106576,0.061640745303081154,-0.18042173906708708
0.2890862,-0.19103479761954487,-0.026214704393889798,-0.07773498437919636,-0.07021861341654356,0.03776517782509525,0.030931054276452714,0.05147175547399545,-0.24285710389472304
0.2895517,-0.20576316729517227,-0.002086099799174618,-0.07660852180321848,-0.03918218512653171,0.03243422422984296,0.0195660789080303,0.04601995639356303,-0.27493335656370416
0.2900172,-0.2086224893424608,0.01824543520374322,-0.07850004025005274,-0.004538004681030383,-0.004393237531062142,-0.054774112792807465,0.04775060012803376,-0.24334626207726617
0.2904828,-0.19798240972540543,0.0322955999371195,-0.07551051289556819,0.013376206340325526,-0.04086844818686365,-0.04270578070639039,0.055816867695390404,-0.17857482295132254
0.2909483,-0.17667105916116338,0.03409279708458691,-0.07450580684598239,0.01653483030598168,-0.07190908517977286,0.08812912832688392,0.05308570307309486,-0.06945588586575241
0.2914138,-0.1566073313237455,0.03478788919224352,-0.0817074915147683,0.002309809300565586,-0.11324920098651352,0.204352440730183,0.04678878930525395,0.017599322660195663
0.2918793,-0.11907302060678356,0.05936259766878069,-0.08467554569536655,-0.02219424038882343,-0.11671410170002672,0.21277982816012825,0.039644862270904066,0.10459335368635272
0.2923448,-0.06543511494363215,0.12156320840611419,-0.08052426715741878,-0.02230789644298321,-0.04159137678930301,0.06332719682132888,0.04661918651705814,0.10369733666407856
0.2928103,-0.02140853810004438,0.16872320123441026,-0.07532937045162554,0.003769096058551213,0.024292166792995708,-0.08073334726891943,0.05922686826562397,0.05912548995340133
0.2932759,-0.013421566312664989,0.16567571527117955,-0.06965882289992946,0.029036482632169843,0.022658168192543435,-0.10703710254747655,0.06712037005874215,0.04670143300605718
0.2937414,-0.03515335270636727,0.13670005336021315,-0.06482959919540504,0.03386578625764923,-0.004037029189090728,-0.08932973584167375,0.06926672722562188,0.07151856786667157
0.2942069,-0.06985965125019082,0.09435789036388557,-0.059140027296583464,0.02426558965266281,-0.0028901843898067182,-0.10411876422895605,0.06410301694924628,0.09917786329268036
0.2946724,-0.08010330864811131,0.07325003599013762,-0.05490767612539417,0.01907048840906745,0.03390699342303248,-0.0888194873706642,0.053078796021606874,0.09246363347634182
0.2951379,-0.07594735697987384,0.053189565391589005,-0.046139865391589006,0.01194814818753406,0.061069900193972126,0.03428958794970433,0.034896540823871135,0.07358159501924458
0.2956034,-0.06348771002950733,0.05864386407893325,-0.03991638717405741,-0.021001780354847045,0.059493431056371664,0.16935276031717023,0.011771391862043103,0.05461280959787841
0.296069,-0.05100808290440145,0.08365936150841748,-0.037378055587181054,-0.05983830147995454,0.019807924072681806,0.1658160337670894,-0.005038173209993875,0.04646531614285828
0.2965345,-0.027885815517712832,0.1088643651420808,-0.03478020408059409,-0.08694546252338912,-0.02716336971583841,0.08378905839578243,-0.0165838666509958,0.03326906660398321
0.297,0.011417177395527483,0.13862684285178434,-0.03315554462716009,-0.11854249015598702,-0.060696037999006226,-0.03637449514722187,-0.024380056747855833,-0.00010100072024170261
0.2974655,0.02927752100468734,0.16513852751745423,-0.036340187921538376,-0.1615954497220705,-0.03773914124430814,-0.13447214612137123,-0.028800135723175108,0.0
0.297931,0.0164823450788535,0.17162756147809222,-0.03921102652634293,-0.16975391087723823,0.00035891010977069735,-0.1532753045877702,-0.028267997280690446,0.0
0.2983966,-0.06635214758213764,0.1755293676001574,-0.04238169214997348,-0.13316248608380607,-0.023329478929708738,-0.09869773542040504,-0.01883347998824087,0.0
0.2988621,-0.17371166572011942,0.1606831846117023,-0.04096279513851925,-0.08484031622447286,-0.1052243410985609,-0.04893017337497496,0.00579828377552714,0.0031455814872113886
0.2993276,-0.219077953651529,0.10610559667977632,-0.04077656348471,-0.062282931353888224,-0.19174558977835224,0.0005859355947009513,0.031617389778352226,0.0
0.2997931,-0.21966284874509412,0.047031453576927354,-0.034927612549058934,-0.06813179517379703,-0.20695277509530274,0.03597191452390537,0.04682457509530273,0.0
0.3002586,-0.23884227647035863,-0.006024490295273258,-0.027153775110336835,-0.0808524373144335,-0.14630114565913846,0.06582158885500648,0.05311951242477034,0.0
0.3007241,-0.311812142721081,-0.03179883084494717,-0.021779422075743817,-0.06484470237623328,-0.053725221480636604,0.06827569789494667,0.05181019193973428,0.0
0.3011897,-0.3827125769694271,-0.061438710426552516,-0.020223153838428813,-0.02265928964876655,0.041524620827998675,0.03818771125427928,0.04235738324633095,0.0
0.3016552,-0.38731772372283707,-0.09061177311264296,-0.028050701676815497,0.0002980503185718835,0.11929053290046884,-0.03641613782000959,0.023335495600295124,-0.010453465533621406
0.3021207,-0.29925035926624516,-0.14634286225201149,-0.017204850155302327,0.0182956,0.16348790653663037,-0.1336979589613275,0.002348199068186026,0.0
0.3025862,-0.15433933005642694,-0.1717497121734911,-0.016533807934033185,0.014201442246384182,0.14795941554016387,-0.18682023044196086,0.012316219763155698,0.003180844580923041
0.3030517,0.018459574961171753,-0.19182036966547317,-0.014780787367655568,0.0008622485792118527,0.0857656880392214,-0.15773094270874485,0.02531918162625177,0.0011078817875807845
0.3035172,0.11110398234878156,-0.18654655279960128,-0.01894008152209403,-0.02774250990998149,-0.004976992968358296,-0.04001191354791393,0.02236487805146423,0.0
0.3039828,0.14965398408848626,-0.147142629162577,-0.022606410386841424,-0.03145653172532547,-0.06037154237549474,0.03712858185698939,0.010031068673849921,0.0
0.3044483,0.15369201943568392,-0.08250117581579451,-0.028898513321321123,0.011264042691138012,-0.049441330189295814,0.008496400819478923,0.0018105476331080237,0.0003175573088619881
0.3049138,0.09026671362837368,-0.012856766457302375,-0.033541686891498654,0.07209421637726245,-0.024029004651569718,-0.06879752810295517,0.005414391039924532,-0.00016208663992673184
0.3053793,-0.03956109184019011,0.03142871467649906,-0.03807835737656515,0.10500708713855228,0.011926985579227473,-0.10410824105694537,0.037406957376565145,-0.0012345460816069053
0.3058448,-0.14390180229995367,0.050179302204103764,-0.039406877692137056,0.10019722666814551,0.09400975219793083,-0.09051602384939594,0.07104787492131243,0.0
0.3063103,-0.1589249250185047,0.0369056097780451,-0.035376651188142906,0.05360027051488381,0.2029325015053191,-0.02776276626021367,0.07394529463774888,0.0
0.3067759,-0.13567188859134907,0.008815477497816767,-0.0371134546805149,0.013692449724433694,0.2591142603060607,0.001435491505221445,0.05782477049411443,-0.0006707195490835225
0.3072414,-0.11322326675418773,-0.012998599645463573,-0.030780235554143047,0.019980643649921567,0.1887492336467971,7.84603420385414e-05,0.05056911727037,0.0
0.3077069,-0.10554510210926706,-0.05887932452104726,-0.031896199485148685,-0.005839256998517978,0.07097779719508525,-0.039610777444625454,0.032660335235519186,-0.0020081825024016037
0.3081724,-0.11213096735396373,-0.0925360265102716,-0.0323949,-0.04380451278418095,-0.015330193022690695,-0.08415038663060022,0.01697460868250963,0.0
0.3086379,-0.11079205019986617,-0.11405731293123748,-0.03128941060218873,-0.061182155300819455,-0.03333457859405602,-0.10100409975926053,0.0030805783533165566,-0.0005756412050576021
0.3091034,-0.10002421803320417,-0.10535498248019241,-0.0323949,-0.03155537304792126,0.0043254546073010144,-0.07061930886873835,-0.011227009594095953,0.0
0.309569,-0.0992399113927144,-0.06670381856412606,-0.029699767569330057,0.010196606810223075,0.024540062744720002,0.034361296233699885,-0.024843090835017324,-0.004959784964034331
0.3100345,-0.12231877382396077,-0.037499315106375566,-0.032859723351321535,0.020976641218515293,-0.02667937106314258,0.18573997775926454,-0.03557082153578181,-0.0035508729293863587
0.3105,-0.16347226289712155,-0.039935291507915936,-0.03777891949953361,0.01315683720165638,-0.13320772435392378,0.3184747064840838,-0.041613818987758386,0.07662972023052181
0.3109655,-0.17274035358757323,-0.1003662801250506,-0.03509359316578563,-0.00959396890615537,-0.17970764293866584,0.287099148519597,-0.05403676480646844,0.12717150028499394
0.311431,-0.1500626274650278,-0.15242685093180985,-0.026215377934252326,-0.034726655597498206,-0.1572598992285036,0.09258270317351068,-0.04941824355881438,0.1275529634177449
0.3118966,-0.1062730097833224,-0.16690555939244725,-0.029459724785171806,-0.03329417018275132,-0.06516852370577142,-0.08608354824889312,-0.05214752187825822,0.09640749047554645
0.3123621,-0.05819783411775215,-0.1486870835437794,-0.037026673296980665,-0.00711741932956852,0.0011098655522373633,-0.1446049835024974,-0.058209686648490334,0.09659709800195256
0.3128276,-0.002138521662321937,-0.1381558094655458,-0.04446196885667416,0.032874533702520595,0.054877118985208515,-0.10485439721465276,-0.04942440735865604,0.09825722715569883
0.3132931,0.028463205814354714,-0.13369824364093244,-0.04698440224444339,0.046727979550894416,0.10710038728186488,-0.06332045333551974,-0.03699071245259818,0.08062781876523079
0.3137586,0.045949616965717435,-0.09108025698460236,-0.0634824458616057,0.0552212335021883,0.18074326174120703,-0.033391884794374535,-0.020762101760091967,0.0486351156284849
0.3142241,0.042966899106308604,-0.032537447587165924,-0.06798399919575654,0.042729891510367136,0.2361639,-0.026454948033949422,-0.015418598033970155,-0.006730907059751508
0.3146897,0.03454360946010831,0.01851879609919883,-0.06838947892930505,0.027916968634132885,0.26714241328455085,-0.04486281147332755,-0.012119824616782836,-0.06432231021881353
0.3151552,0.03410227997934788,0.05385438857418435,-0.06710681637373923,0.026883529966778164,0.2631110322875409,-0.07003710423321821,-0.012234556363413177,-0.09355435230819302
0.3156207,0.049444662422295386,0.09615494838474122,-0.06823737596001309,0.03144735601910411,0.20405400555284567,-0.06489658873886865,-0.01613444399911065,-0.09669455192002617
