Time,Rectus Femoris right,Rectus Femoris left,Hamstrings right,Hamstrings left,TibilaisÂ Anterior right,TibilaisÂ Anterior left,Gastrocnemius right,Gastrocnemius left
0.0,0.02610726204900442,-0.0035775947166076668,-0.005407881492699087,0.029457982230752255,0.1630576521112979,-0.038742155460191746,0.05102469278210917,-0.11614099841910035
0.0004655,0.027014774755717466,-0.030866895304042373,-0.006820483403719361,0.026705136167475413,0.15366965180110956,0.052518498454238734,0.04032735910759969,-0.09897753626960017
0.000931,0.0271960221849873,-0.06770647065735955,-0.008555192132440574,0.018164490634735717,0.06477184601178229,0.24654436281866224,0.030412382767176293,-0.06826540096288511
0.0013966,0.02686376850416684,-0.11832043469224464,-0.009792254031365192,0.014153782330786869,-0.01998072444820443,0.41494145530648013,0.021818572095370806,-0.05201265003674459
0.0018621,0.026085210798150515,-0.15678216175094734,-0.014965551408322682,0.017685456807397942,-0.07397246738423804,0.3917956870749455,0.016296097762440787,-0.054195702582429894
0.0023276,0.028562975923117698,-0.18350588842640056,-0.011702153361894608,0.021842874345198143,-0.0865827315554296,0.1906766955275688,0.014379718316447932,-0.030085403857866483
0.0027931,0.029602386612551452,-0.1597136454256354,-0.015828044465344547,0.004660292290013469,-0.09090342664039869,-0.013095512228379727,0.018188681220702562,0.021036406772251263
0.0032586,0.032054003299182385,-0.08499176300525838,-0.010126722499168843,-0.001138952755300739,-0.04355642190263596,-0.13458525977548597,0.019905808774841376,0.08431427086704889
0.0037241,0.03903250192003304,-0.024534136697743732,-0.00977537128669654,0.010986996659992154,0.04551641304873103,-0.21638555750680682,0.022757619613196493,0.09502699220431761
0.0041897,0.041222337761709284,0.012428360475580952,-0.01047315904073255,0.0166804542443953,0.11549841568484805,-0.2328639547143719,0.01816467505344196,0.07500953200050024
0.0046552,0.04050578740378487,0.015981758269189912,-0.013433537788645393,0.00839371576865878,0.1262282377886454,-0.16602765970808142,0.015082833076759651,0.06124264347480937
0.0051207,0.036391645085014857,-0.004666793458422633,-0.01749965244019629,0.001486552227505162,0.06424070770819479,-0.14137370406678854,0.013689352333850727,0.06340440724883586
0.0055862,0.029586168143925104,-0.014566714358413701,-0.02457656920947855,0.0004751226031740022,-0.028736247334989244,-0.28001691637716053,0.009282798597577802,0.0661102150321512
0.0060517,0.02592465989451307,-0.007692367789840135,-0.028578454610104918,-0.0026084830444588498,-0.06964307495889016,-0.3973829612128737,0.00642351281229632,0.05959490056835988
0.0065172,0.022386300192611237,0.0008718175187140684,-0.03155085125499505,-0.010618621935252225,-0.06210704044263084,-0.2533861733828585,0.0010694001926112376,0.02765098926037564
0.0069828,0.020222770020142167,-0.00594068457961266,-0.0386842763636217,-0.005544777101936699,-0.014887870327998745,0.05034758531792766,-0.005762325270187144,0.05488381144903165
0.0074483,0.015089437259694204,-0.03545362050192047,-0.04002527070132037,0.011523761467616453,0.035014114792706594,0.266683565904141,-0.013750563320617344,0.11589708764060584
0.0079138,0.010535030287165754,-0.05340326229426226,-0.04216852104133376,0.019828856535168332,0.021217060436775903,0.3104860452149888,-0.01951058851203849,0.1283546903392985
0.0083793,0.006912612474152519,-0.054305081390252,-0.04235782923403939,0.029860143344526132,-0.07794276463036512,0.27153460540556373,-0.02674808580944067,0.06464978403965213
0.0088448,0.005431795523247111,-0.046792906476983365,-0.04515040205632237,0.054337096839939134,-0.20811441500458208,0.14016318320814097,-0.03190369357910852,-0.010864399736661595
0.0093103,0.006501500495815872,-0.019892132160362008,-0.048145378862956674,0.0683429272022033,-0.2760601693270856,-0.025412647860348164,-0.041491395686861485,-0.049469494695229745
0.0097759,0.007306246435444877,-0.004354421177580623,-0.04910906595166104,0.07260239095700706,-0.2736223727854849,-0.18846917392386225,-0.04376711427960456,-0.037652492828121636
0.0102414,0.01020982078353587,0.0005458190479770618,-0.04872964343584146,0.07505622685987128,-0.24407996893256306,-0.22839044304833803,-0.040978709077426796,-0.027728196998908605
0.0107069,0.01336919244885801,-0.002988076727662612,-0.049338077368154154,0.08436849776411724,-0.22432820333544376,-0.18111892263184584,-0.03591642784560399,-0.039761060467476766
0.0111724,0.017117753649640816,-0.009881050816777016,-0.051104565126197016,0.10218942629771602,-0.21035635201608677,-0.08304210301858406,-0.027110794489263526,-0.06948790632256842
0.0116379,0.02136535100235471,-0.018838155279659336,-0.05332640301694819,0.11707955226271113,-0.2122867243837032,0.041397194325272606,-0.019737693966103618,-0.10474502136675501
0.0121034,0.025691658236467633,-0.019128430088330164,-0.05437024152207089,0.11652181473778599,-0.22660073956366916,0.14280947606475455,-0.017258373587011815,-0.11507788623656082
0.012569,0.028839424570629286,-0.0022949819580047417,-0.052727949922250036,0.10310984820825901,-0.23426476702949983,0.1852351793221066,-0.016984658320375007,-0.09769708910863846
0.0130345,0.03153413357486485,0.044002325997493985,-0.04836206642513515,0.08550628309101749,-0.2265308627866226,0.1684655823373088,-0.016979053321256758,-0.046127979285913376
0.0135,0.03352774609150894,0.09856904029201469,-0.046666231840610514,0.06645627023719906,-0.1303105366923917,0.11258413651000826,-0.01319237293274482,0.014679209894791692
0.0139655,0.039758787962742445,0.12968225472639228,-0.05329600771324294,0.04987354983904079,0.14749295679705943,0.04069892510524511,-0.005672648424535911,0.03033468866843574
0.014431,0.0469086751882879,0.15680331145567794,-0.06391267630254596,0.03876038771189219,0.4660947362991674,-0.021682075533670887,0.0011390258003601832,0.01451427022932401
0.0148966,0.051964270330604106,0.18054017035535577,-0.06464455520660913,0.04141368958678173,0.573337106535132,-0.060633841857466154,0.005688621225189177,0.003707869752010054
0.0153621,0.05625855953614396,0.21887730023668767,-0.057231584107152046,0.03247442531282407,0.5050690292946967,-0.019912884612280392,0.005729833897152015,-0.007244281046055887
0.0158276,0.059965837211822505,0.2495850864289602,-0.05118728642896021,-0.003252833029048342,0.402616683223341,0.14013045719410078,-0.000412844343016114,-0.020333235774697818
0.0162931,0.06434155889295158,0.24794001268328789,-0.04696852249458303,-0.03274012021589083,0.31623048797225534,0.2665433359153804,-0.01591575305282683,-0.029109749498480813
0.0167586,0.06490550760285722,0.22701833971614543,-0.049592664699667374,-0.0516069094229893,0.19225088850046196,0.2528354134839839,-0.03470848780392087,-0.03753588632867141
0.0172241,0.05666039546895353,0.18921867563559377,-0.059581019900163026,-0.06370919935546158,0.03931674049992067,0.15370807213815815,-0.05389582373161488,-0.04856097563559376
0.0176897,0.05760812399769903,0.16543542339714837,-0.06132329589347081,-0.03604096691080551,-0.07256023512388994,0.11412998335233154,-0.07611834087841103,-0.05550934718100034
0.0181552,0.052379520573849224,0.12955855665856159,-0.06540203765141345,-0.007366888447328872,-0.10729797343726097,0.19848104426734217,-0.09155214633483848,-0.06575856762308203
0.0186207,0.04896682625445927,0.09027005932497956,-0.061523827098720556,0.014570059324979564,-0.1133504628078402,0.23673052456787966,-0.08580760517947475,-0.06405065953855352
0.0190862,0.054195933694890626,0.045770574147003085,-0.051484264997741065,0.013956998848287574,-0.11785675303493695,0.17492253546691047,-0.09218148969902555,-0.06949621688096558
0.0195517,0.05373264402142115,0.026572271777412684,-0.040910133083006985,0.003506287024098802,-0.14653807463975171,0.09916670669907537,-0.09072885739004517,-0.07351220180418913
0.0200172,0.04674049661867539,0.018449807961160455,-0.029590548426586382,-0.0017119798149442607,-0.17639032092728302,0.038487144671581465,-0.07672249791250106,-0.060962509115803205
0.0204828,0.04836213757784183,0.008360932908707935,-0.022010206471733466,0.008409964130545915,-0.20191063793965933,-0.004493872918572537,-0.07947524575796304,-0.03662469963818249
0.0209483,0.04624930905472591,-0.018752354514261927,-0.009239903840473945,0.009453683535012122,-0.23056721832156032,-0.03701596981758029,-0.06416186701144683,-0.008134387502815098
0.0214138,0.04532553009783103,-0.030131312465276127,-0.004047384146557504,-0.0005649452053475769,-0.2378296459512735,-0.030754036128237818,-0.05840570206704616,-0.014832353877994777
0.0218793,0.043499268623718154,-0.03672825814368848,0.012302913840532479,-0.026657258143688477,-0.21288077996055238,-0.03701403487426068,-0.04880178827159791,-0.037956918325838494
0.0223448,0.04514558564819216,-0.0504591540363097,0.026588638256018555,-0.04686677398842346,-0.13288455040625138,-0.09335384785133045,-0.04733326512300684,-0.03316366277620985
0.0228103,0.04739046436611925,-0.09289657207461002,0.034238488449538716,-0.039924167952736136,0.028637881292542834,-0.1509684692865298,-0.04267080572725907,-0.009020553670478052
0.0232759,0.045468974681892586,-0.15099312095470266,0.023941206000088488,-0.028987840484799167,0.20697876195456993,-0.1471440713030349,-0.037085771075849386,0.016335692530512216
0.0237414,0.037153315885302636,-0.21484197708846955,-0.006573818655213028,-0.01762245818795393,0.33851751914581824,-0.01151283829163651,-0.03325182413804349,-0.0031780867550339105
0.0242069,0.03733489259026195,-0.2785684976962286,-0.027602273068747685,-0.03911239731003158,0.2730381615284815,0.10672966540277085,-0.03959220226830853,-0.03226704556598538
0.0246724,0.036150498431421534,-0.36650563255688995,-0.03255671214952342,-0.09222306724355792,0.0968277921571077,0.04881100383884144,-0.05024463405366885,-0.07671660924937548
0.0251379,0.03256977906328005,-0.47174985664236097,-0.015171740327247097,-0.15324943119104995,-0.04593961307069193,-0.044807613712781906,-0.05853317768609591,-0.09976172085221562
0.0256034,0.030254772707411906,-0.490187212857335,0.005264458235692257,-0.18641926645602805,-0.11631518859023837,-0.017061994440820284,-0.06269684189177555,-0.0804734921706981
0.026069,0.023529502671723636,-0.3859709849509754,0.014771331393173088,-0.20067073410237865,-0.08926284584248685,0.030253728871377145,-0.06998425137334374,-0.05664707068907132
0.0265345,0.011877797473171232,-0.17042880063205473,0.014076937993727653,-0.19611607447665488,0.010452455071080115,0.0428464762390246,-0.07141124195191535,-0.03751379993379784
0.027,0.002589875917257521,-0.049198804135623254,8.157798506914799e-05,-0.19771383315592767,0.011367360710828726,0.02035367118379342,-0.08344214523011081,-0.0388142667784485
0.0274655,-0.0037564475212525134,-0.038627049237794656,-0.009922951483878284,-0.1858599285815231,-0.06072922745848128,-0.023540400401368886,-0.08002579311672545,-0.03280372775523144
0.027931,-0.007954407589824004,-0.14716623455585895,-0.026003028526709153,-0.1607843528692915,-0.10158420733656552,-0.03466542042415011,-0.08364762068362666,-0.021671487400278206
0.0283966,-0.0087196275303894,-0.26974038077194945,-0.0392885591028199,-0.1182032935857524,-0.08836058022630781,0.006829194826419822,-0.08190192753038941,0.004575618867755862
0.0288621,-0.007445814521270673,-0.3199395480026577,-0.047389665646921195,-0.08551150196546406,-0.09704346241288812,0.045287452885585555,-0.08062811452127067,0.027125103836439412
0.0293276,-0.0042649245529137025,-0.23574833521224534,-0.026839362035472648,-0.041438932633022424,-0.09337280952601394,-0.032065958804900443,-0.07088021888632524,0.028543288519938193
0.0297931,-0.000968958937977508,-0.07234342515719341,0.021169212481037675,-0.016805537638231095,0.03817542100919499,-0.1906730178780807,-0.07120999146971699,0.010602670167844884
0.0302586,-0.007710681989203319,0.0689417412789764,0.01783037070475385,0.013444147728719576,0.28963192705659857,-0.30758816552817786,-0.05847084320581864,-0.009692499665391784
0.0307241,-0.008574112072584425,0.15701946645341694,-0.06458230260119986,0.05610100506016402,0.46519186115180633,-0.3542024052869903,-0.058417255809465884,-0.017209228244972435
0.0311897,-0.016033878519707185,0.21173508114777287,-0.21607502947389567,0.09912119381646324,0.3816480323190008,-0.3848101868977321,-0.060852104822553835,-0.030956854701870602
0.0316552,-0.018089220651116796,0.19638462635097415,-0.2502602797263468,0.11294671659037836,0.1522926676707707,-0.3880907735148341,-0.07040079008641671,-0.04518901988864088
0.0321207,-0.008342827718679753,0.14099576178142015,-0.22032052717660147,0.11029653555511132,-0.08725766357491435,-0.3446823323295355,-0.09678083919564531,-0.05673475440674851
0.0325862,-0.007534783987262554,0.10834602974521146,-0.13438893418395617,0.11070172142837299,-0.16822656487260573,-0.23627444810511783,-0.1089683030350139,-0.0540297162348778
0.0330517,-0.0020650005137329078,0.08136890446629938,-0.08156127764365662,0.09775688052158303,-0.1973282652761861,-0.12640518710439244,-0.12359095340804437,-0.0358085176187734
0.0335172,0.0020213782394899547,0.08610283066207264,-0.061425621760510044,0.07153768130626338,-0.23576730400974275,-0.08674301061335887,-0.13784114964603264,-0.021973076002435688
0.0339828,0.005546380704094106,0.1198196262404658,-0.0579006192959059,0.04180561951427106,-0.2345412320754656,-0.12659016586313787,-0.14872249240918528,-0.021666558018866397
0.0344483,0.012904086070588874,0.1475388224160048,-0.04950313927358518,0.013041202036825756,-0.18836468541559082,-0.19047690292816924,-0.15380979007754025,-0.03398672361039389
0.0349138,0.01517137379707169,0.14152519612079767,-0.04486228519196346,0.005386521559350953,-0.19973062612834896,-0.20443080250823709,-0.1543381039537817,-0.049270194843388924
0.0353793,0.024136830130813497,0.11803155374682311,-0.03991443282430957,-0.0038104264621046805,-0.29083269556412594,-0.17493267754315597,-0.158886117281529,-0.04461441229379638
0.0358448,0.036588522551988564,0.10206797029226627,-0.03417338320026817,-0.02300312965838071,-0.39803924261573564,-0.10462494322083309,-0.16660297164640167,-0.023110127676530624
0.0363103,0.04263356026471099,0.09923221836559819,-0.02866901145673801,-0.03706077250844311,-0.3912599051075104,-0.0832175650399504,-0.1693766939198728,-0.018026646560671426
0.0367759,0.045522632412668115,0.10510421279747979,-0.021568001996969195,-0.04226302700684465,-0.32017779770187416,-0.13153320416274442,-0.16776816326996422,-0.027097651847914083
0.0372414,0.05197547885057895,0.1320066910483074,-0.004220243099988934,-0.05413763333678737,-0.17641337188803868,-0.2041995693869693,-0.16076718781263366,-0.03202478348658332
0.0377069,0.055398580363319086,0.16224391779573688,0.005906389721423538,-0.05998538926727468,-0.09910866928887405,-0.20106172633362415,-0.15149633036940624,-0.02660487275807811
0.0381724,0.05849313257810256,0.2221298877772172,0.013559419093723074,-0.05779996998569682,-0.08505685776291404,-0.12735413969358958,-0.1334137025637994,-0.02128050423327755
0.0386379,0.061431565684931584,0.2654192204568362,0.011235347767177571,-0.03634400771612266,-0.11682689461891077,-0.04038676289415034,-0.11404366076156454,-0.023498424670408687
0.0391034,0.06113949531225328,0.3275281707579132,0.01882070484469094,0.00017019808049215514,-0.1633171088956165,0.10471457483577572,-0.09886913871955885,-0.02482723291511399
0.039569,0.06218781448260793,0.3181343320400498,0.027451183603722673,0.04798300524770193,-0.1636889531245006,0.18943300712826022,-0.0752268888183135,-0.019926017990216174
0.0400345,0.0565588235216608,0.2283667717416995,0.03501403211961825,0.07916407634153659,-0.06771549679597891,0.16670216418365658,-0.06401269616647222,-0.012967468099480638
0.0405,0.0500185582835883,0.092681268710651,0.027815689687475616,0.098625505718769,0.16600030995258758,0.06964740303935289,-0.05010692431482319,-0.014108493653352592
0.0409655,0.04648637460077063,0.045912173978290935,0.005061912605293813,0.10347290197547038,0.4913632760090464,-0.033848940437887505,-0.030158219124224995,-0.018991200243926802
0.041431,0.042147849500204934,0.05675404140456878,-0.0012004799190132157,0.08801718879694748,0.7999316120722206,-0.09039463940538854,-0.025543211011473572,-0.02962143479059586
0.0418966,0.03810597724517041,0.0854638674730005,-0.013086606285843514,0.059077725312036616,0.8723506520561107,-0.07867437467273486,-0.016442628721645994,-0.02089004252625097
0.0423621,0.028511516696372696,0.029371989621555804,-0.0057069,0.03129646081889491,0.8218039496975861,-0.08201821041295342,-0.017744379174093175,-0.01707778086742796
0.0428276,0.01861461545303637,-0.034030918592183254,-0.004774595971380287,0.0038774698652657624,0.5328487017210336,-0.14108428005404494,-0.021921747130447616,-0.012542197157344052
0.0432931,0.013324748082885321,-0.09319170029799682,0.0013473257102345104,-0.004740530943664671,0.2397799683127468,-0.20899431521782363,-0.03407855538811445,-0.010854006797211723
0.0437586,0.0073335172352065265,-0.17703922383599127,0.0044554683035279135,-0.0020040072783606756,0.06042633875958031,-0.19660637264836395,-0.03985792309477812,-0.02111387012100329
0.0442241,-0.010485226741595764,-0.2814486865085201,0.0020823935472970034,0.005425115571261852,-0.0279959513821722,-0.11909942767237953,-0.053252047813539496,-0.005588635663177533
0.0446897,-0.016788890929905667,-0.4494873980763395,-0.0024682152308975512,0.006915126713770946,-0.061984981476557933,-0.0724828691549515,-0.06498173991514283,0.008711038652123982
0.0451552,-0.017365372003523342,-0.5748283754195216,-0.00850764499734607,-0.0003948008747474232,-0.07098803191088328,-0.06306261306571492,-0.06943485025499563,0.01607652549672161
0.0456207,-0.021040393127969563,-0.6055834309966468,-0.013023670801890892,-0.015051646769319969,-0.09619377177908778,-0.030640935092942665,-0.07400383140731712,0.005658485254002714
0.0460862,-0.02762850047976127,-0.49441336806670133,-0.016840323349066023,-0.014205759879801888,-0.1368924715624103,-0.007313053324518389,-0.07308751316551904,-0.03504647767673377
0.0465517,-0.03702923686429914,-0.2567214166146276,-0.01946215568195891,0.010816442013083991,-0.18463246966635727,-0.054049969716497476,-0.06832311159771211,-0.07994528476724395
0.0470172,-0.04405074470396036,-0.0610251039019515,-0.02052442676664806,0.0550762962114816,-0.2304228570176804,-0.11036838558323715,-0.05735767147060841,-0.10727617346021813
0.0474828,-0.04851627573895291,0.02977723484797483,-0.022402657389529068,0.08808447573414582,-0.23512430715034557,-0.08620710247263755,-0.03977734322502501,-0.10309833374784313
0.0479483,-0.048594064638624195,0.08360133148069045,-0.026380999011852264,0.10044168585544967,-0.1846007043128166,0.002580153449323161,-0.024280716872653013,-0.08100642592122365
0.0484138,-0.04697430514393256,0.14243653375452583,-0.03133717428033719,0.09929641543179768,-0.13963645940872024,0.055890573870429144,-0.014583665275385405,-0.06428910200564596
0.0488793,-0.045905424615919815,0.1814505138252441,-0.0366815769204009,0.09608977384775945,-0.1198622492413579,0.06243742730407049,-0.005097390389709017,-0.05867747923357906
0.0493448,-0.0483222290328678,0.18027350275239803,-0.041657833070461045,0.08859325306515355,-0.13450068225349152,0.04040565878606828,0.004971615411138518,-0.061389733946263875
0.0498103,-0.0525368,0.18436357460969566,-0.047418600034983084,0.06413163545016028,-0.2220802945065657,0.00022264417164071654,0.019837630026692137,-0.04191747553670835
0.0502759,-0.0525368,0.19820406391419154,-0.04836840266362065,0.03617927311282262,-0.2541034127690922,-0.03288600900426953,0.025807991209156146,-0.005823601348992905
0.0507414,-0.04072336023678736,0.2211686995561183,-0.048361834571673784,-0.009044260778195977,-0.18228575153378893,-0.0551957246268058,0.027359248416029627,0.02761297254877227
0.0512069,-0.03453081501446067,0.17943045348187203,-0.04459792046050491,-0.04044495450339632,-0.12498580548217827,-0.07709724992780245,0.02260367405731681,0.03382847178424749
0.0516724,-0.02681799762564869,0.09224132489877998,-0.036572051656922046,-0.07255452515992261,-0.09289128672558733,-0.1395124406262894,0.024984604305162784,0.012718697625648687
0.0521379,-0.024385187244769263,0.0051764558920780555,-0.035810865967746894,-0.08603891947507031,0.01933675794210499,-0.20726017859582427,0.024779339170758762,-0.004239904810009814
0.0526034,-0.027176244604871044,-0.021672113055526875,-0.04488276716913973,-0.08461387381090371,0.24390232671690282,-0.24987204996097873,0.03091461909348398,-0.020344581132419097
0.053069,-0.023885926377996077,0.0011546377742531113,-0.04943302024554288,-0.06616801428295113,0.3983098951410324,-0.28170819658437946,0.032903515556436724,-0.03000665061385719
0.0535345,-0.015659161151370574,0.010575176783255974,-0.054018998400000656,-0.04553895616940759,0.42160577710532254,-0.28886682015684695,0.029828158044443418,-0.04140189218614636
0.054,-0.010486359802866031,-0.029429113811370467,-0.05650378384118738,-0.034508979468164905,0.29791361461096083,-0.23577078587775513,0.025742316158812617,-0.04625051138599499
0.0544655,-0.003736375526295279,-0.09065220976912114,-0.05597024144426638,-0.015585389046987945,0.04938770565685389,-0.018505825445896806,0.01784069547613515,-0.042464549919601524
0.054931,0.002334060130741619,-0.05810847875166087,-0.053659594133202135,0.00010728150820632498,-0.118352304083366,0.24614217701627275,0.012635157455909679,-0.033494125495132164
0.0553966,0.006527892525583121,0.08444219764316832,-0.05704082233271324,0.008742197643168328,-0.18687138485837396,0.241064140355685,0.008633916751096612,-0.03595734106090077
0.0558621,0.0015029567396876468,0.2564189011406329,-0.057737713216898266,0.004210913214222441,-0.17215923247059128,0.008468873464775317,0.012004143364416325,-0.04142459359930008
0.0563276,0.0012147252736261953,0.37767377704093064,-0.06531890422648252,-0.01247078662548657,-0.1282312870620116,-0.17511472248545823,0.018626005502163725,-0.05107608662548657
0.0567931,-0.0033710547816937038,0.43130364053683795,-0.07010502286374776,-0.013036117090018005,-0.0774041069589187,-0.2065244030704955,0.025988756466549558,-0.05182329591112611
0.0572586,-0.007375584101777054,0.4945991049422376,-0.07108296543715671,-0.0012921001968524044,0.05906092413528557,-0.2021183887249987,0.03365120646748657,-0.04269602348469439
0.0577241,-0.008874935330870012,0.5593708100584942,-0.06868400347060798,0.016700025225410017,0.1655144147666202,-0.20556685188848597,0.03919876135170398,-0.030551323192467963
0.0581897,-0.008896,0.5980116363768427,-0.062215641128553066,0.03420953168857761,0.18514419705212876,-0.18543368376625194,0.043371538363238635,-0.016341341311109887
0.0586552,-0.007082863271440277,0.5560501476333607,-0.0530876781064284,0.046264997076294154,0.17577349418803864,-0.125233265104695,0.0442627809946839,-0.00257945019750561
0.0591207,0.0011898153223698438,0.39369741002579717,-0.04918452590615301,0.06303928899827661,0.18337007325816626,-0.03600533704672376,0.0419192869075768,-0.0015500029271794703
0.0595862,-0.0008305104035421004,0.19898441107072973,-0.038789495489240246,0.07484336734973675,0.14054249210565475,0.01825811583966018,0.04166869930732753,0.015357411070729736
0.0600517,-0.001013755041962714,0.016216393037231693,-0.035664164996057485,0.08092978336062344,0.018570952015856082,0.06579864794936374,0.04084648490424702,0.016662467389095572
0.0605172,-0.004246360141183842,-0.09284277117549251,-0.03409462548804237,0.0836429607366004,-0.13225706932022016,0.10911388076970835,0.026281860058223947,0.015721962889391025
0.0609828,-0.0029320360176084467,-0.11500782210002705,-0.032798859249397405,0.07039630604351073,-0.22504108830821515,0.1124132546302388,0.014476752799678853,0.00019135029248125218
0.0614483,0.005033302703239536,-0.06350141361939823,-0.026626955302624697,0.0508583,-0.2636149387221287,0.06588891226618447,0.005716679678742001,-0.006497679366238702
0.0619138,0.005849240890953716,0.029422576269022734,-0.033361763324046535,0.03290787799442792,-0.32053732713172534,-0.004760687763102154,-0.0024237614303067767,-0.011602980687097628
0.0623793,0.010399753212965815,0.06519070215252393,-0.04076153112030688,0.030512372091514788,-0.34004084167893195,-0.034522505366633885,-0.0033213638646329563,-0.006401852949857597
0.0628448,0.009530639264393749,0.016810611653837872,-0.040719570283013005,0.060376350042456554,-0.28736232016958024,-0.03447887258843581,0.003949858061365549,-0.0011202610195110412
0.0633103,0.008641434937756959,-0.1288599402707367,-0.042425277594366755,0.09044406842480285,-0.24700318114968658,-0.0023028247158886754,0.01711012056087891,-0.0014350394197155765
0.0637759,0.011888668353908654,-0.29594051248354425,-0.0391089,0.08459970072665401,-0.23629244615309938,0.015257616896865295,0.025162733021150255,-0.013770364893298217
0.0642414,0.00374061755512312,-0.42440199311014454,-0.03526779714458986,0.07544884458232548,-0.12417085632352333,0.011144436303434705,0.03566628484931811,-0.027529195045552592
0.0647069,0.011753086238466603,-0.4149668449722218,-0.03244710185910089,0.046610109786915654,0.10316944366262713,0.014715759930413717,0.04993990794310484,-0.051374691922574794
0.0651724,0.01725673225886542,-0.3147386515592455,-0.03144076171193015,0.013888052911554639,0.3040412510750896,0.07188808721298023,0.05887931108907321,-0.05677423125490014
0.0656379,0.019942487103451527,-0.19820842060549354,-0.027128030400382346,0.0009899426127920534,0.2938310098048375,0.1017771184897036,0.0734565868955926,-0.05111176190062131
0.0661034,0.024872248140004948,-0.04583584007594716,-0.015857607056710795,-0.008369475363034728,0.1510511057962066,0.11015665873742021,0.07508944215216365,-0.01176269420379341
0.066569,0.0321982817968597,-0.04596324444241197,-0.020030277107592045,-0.017958537354447728,0.06460054415796032,0.10956201761261491,0.0863188103632975,0.026705026954555185
0.0670345,0.03739983243029903,-0.1935642045025495,-0.016515051880292165,-0.051871016871396045,0.023603541002949122,0.0898843785624034,0.08106967978000279,0.02300193345374153
0.0675,0.0360876,-0.3364123005303581,-0.013069725488929118,-0.11316014066487583,-0.04818702415372081,0.07293467925561958,0.07726078823339368,-0.02345245046653496
0.0679655,0.032002227231922586,-0.31277693074286855,-0.0075718518931614884,-0.1645658234455996,-0.12860448906966535,0.04709509082513834,0.06270211372226156,-0.0576913529555435
0.068431,0.025002196727364676,-0.09162131578381276,-0.008563951636317662,-0.19124376740990887,-0.13575729183672217,0.011105148643142673,0.048738657102058595,-0.04877510653504906
0.0688966,0.02281294055664858,0.21036778427718586,-0.008482823571425284,-0.21314729406276195,-0.11071073652089006,-0.021178442813148728,0.05114977582502303,-0.0557747781525273
0.0693621,0.02029954352978409,0.45332953784650104,-0.011144777806375282,-0.23067588235107955,-0.09847538065197281,-0.03656226032915119,0.044975194278173584,-0.09257957496868974
0.0698276,0.019154600925178802,0.5157286540015545,-0.011574173915758082,-0.236400595374106,-0.05496773220759503,-0.005076423967817334,0.04168352692258919,-0.11261598528397068
0.0702931,0.019624519584469664,0.41648033760688014,0.0005359947061154783,-0.23092994779122905,0.12133678949794821,0.055451933687849356,0.03545449999360283,-0.10378266509891368
0.0707586,0.01699656403975717,0.2550834365594379,-0.004827908019776446,-0.2516606575150685,0.2855510358075244,0.09667374679688287,0.04025491897487089,-0.07781342995055889
0.0712241,0.012620315826354627,0.14689289782023657,0.006814011580543209,-0.2812141406557683,0.22197191376030664,0.09748806472725027,0.04157215561047581,-0.08421338299830906
0.0716897,0.007064647917928715,0.06789191618916282,-0.0004545903935472299,-0.3153322851485247,-0.015095257352349548,0.1300700628289239,0.04596699694740888,-0.10331769276342635
0.0721552,0.00392121373230013,-0.0449335210347127,-0.002814912278019583,-0.3008061066217871,-0.2461918091094823,0.15774963017520482,0.05533070891758279,-0.08783986200264673
0.0726207,-0.004086378519887512,-0.17319334509748402,-0.008083397949714298,-0.2647548909872725,-0.39347430156427765,0.22595862260213154,0.055866345214165974,-0.054141697770002696
0.0730862,-0.005581767042709534,-0.19262166486938756,-0.010607818723883677,-0.19405413978473546,-0.3268987064292998,0.21445552785630406,0.054874887199976574,-0.04509820541842072
0.0735517,-0.003072843552179992,-0.12383135098411656,-0.014423780430036382,-0.09439683470613834,-0.08025330410265485,0.15757007601778364,0.05783587415566348,-0.031254473446114886
0.0740172,-0.005180204641415783,-0.1341404206934912,-0.012908659730865574,-0.016689818120651265,0.11748162239831905,0.11569293184972264,0.06331923660505052,0.02385576711369329
0.0744828,-0.0029164782596714867,-0.2203138892316098,-0.009866818544683598,0.057845365369067175,0.16440969586970236,0.12676750427837927,0.06449262956598248,0.06346877840775311
0.0749483,-0.003785998790587556,-0.23202365979951373,-0.005086088957145454,0.09038676354141412,0.16403057029401943,0.18289385701556524,0.06402376155594816,0.020251304836322963
0.0754138,-0.006272865192635514,-0.02354900215237073,-0.002115647253167048,0.07880391308362274,0.16163670093379637,0.2262372198367111,0.05931231269071859,-0.07384599269580734
0.0758793,-0.009617645595737953,0.30474583563348545,-0.001309789580731197,0.058686159273448404,0.13076229447499033,0.1994099856163207,0.05066074298872188,-0.14311880034044805
0.0763448,-0.008896,0.45912959921417057,-0.004672371629284831,0.03820893362336005,0.16532795632660421,0.13463291443443692,0.035047161994075225,-0.16182688879221332
0.0768103,-0.009026847511742975,0.4567120880926864,-0.007927034125039294,0.028328365874960706,0.25712452977964567,0.07457134369569227,0.02165025899835235,-0.1627901897982266
0.0772759,-0.005586237154286319,0.3655186484276624,-0.016570352962591718,0.029715846310280684,0.3091670983378539,0.03826731892470669,0.014075089448818578,-0.14177753258735648
0.0777414,-0.009796143351643437,0.2141039226282423,-0.014915859694640758,0.035335685083037666,0.2183633210746547,0.01435668759116231,0.006305787717177291,-0.0644600137755193
0.0782069,-0.0068038746557533315,0.04567143083830347,-0.018879767265120462,0.05637895089092272,-0.05445735447488752,-0.011534060083674942,-0.0055436601916476,0.04670009283882838
0.0786724,0.005304893768956917,-0.11657854987918417,-0.026603816101997593,0.06481408828680472,-0.32988459898205974,-0.016603841186401458,-0.011005731158637197,0.1506000332425096
0.0791379,0.012935360864002314,-0.310395491706903,-0.025507569567998843,0.05781464093949592,-0.4927860689417153,-0.0032070074891056275,-0.016628060864002314,0.15971193093387698
0.0796034,0.017077997838636023,-0.4713658232758226,-0.023436251080681987,0.04065237590383362,-0.4945614847879869,-0.005426233224463577,-0.020770697838636023,0.10659762722865956
0.080069,0.021885894408774007,-0.5791501289104862,-0.021202537553673923,0.01588949880455132,-0.3156282807622895,-0.02900010944110283,-0.0212852594776704,0.028617343533014
0.0805345,0.014763468155197051,-0.5737205640407698,-0.014185559904841803,0.015254076491491173,-0.1111490202295985,-0.05198367421572616,-0.0245653954312822,-0.04527280961322659
0.081,0.021260758135431334,-0.44436370865675445,-0.006090756116547222,0.01705358300423088,-0.019235109909497308,-0.03568509134324558,-0.004113297017904645,-0.1255296580766138
0.0814655,0.0211341008493723,-0.23900450582173108,-0.0074735320682423004,0.02331831587026446,0.004957947089134456,0.02979159899680062,0.008265596500591613,-0.13025056303041774
0.081931,0.026587169947600277,-0.06865092298257136,-0.004882008729174173,0.041688915844545364,-0.004465830052166501,0.09672060655832465,0.026823597806262443,-0.10102676779963876
0.0823966,0.029230035381998226,-0.03756187219451699,-0.0009447894014217371,0.06759603986004896,0.012648077708128912,0.07641331871382673,0.03900759088287657,-0.06724497775906321
0.0828621,0.0336138509669509,-0.10635745797072131,0.006700310897559425,0.09438893620053179,0.09444369184824758,0.031235266933322858,0.042003739309457104,-0.04676080350785352
0.0833276,0.036054103318119694,-0.19686707285707505,0.00854355221340205,0.1111165176992829,0.15030472750415014,0.0762120956962488,0.04147368741416902,-0.03920194522987199
0.0837931,0.03891448871731164,-0.2856775669292556,0.0073700124048772155,0.12125261428804834,0.13363741851292957,0.15883658949463234,0.03937579670853513,-0.04892868401755303
0.0842586,0.041164138755852606,-0.38116260989750506,0.00489222325351156,0.1256526226376106,0.06762352064059192,0.21090524028628613,0.0381018,-0.06522034559249054
0.0847241,0.04262568120606359,-0.4017788456824894,0.006534395477261561,0.10450396807673713,0.02073660943961808,0.2290177861229432,0.03783792180909537,-0.0757439796984841
0.0851897,0.041421552064331374,-0.36842693584677827,0.010239737157964786,0.07681038719411895,0.0701798082573255,0.27392237092505767,0.036311087614011736,-0.07480652921853737
0.0856552,0.03787165529934126,-0.30740474837073484,0.015801760955443733,0.027292853811427622,0.1719097787045669,0.3767146968280366,0.030380827456072824,-0.05125188830059945
0.0861207,0.034513100298117126,-0.2258625210217024,0.020205795388141032,-0.0002402061568383983,0.16865032291919277,0.40964232942854206,0.02150905568246581,0.008892050854080418
0.0865862,0.02808638286651626,-0.08288909046269091,0.018864700634338108,-0.0022901725364763855,0.059992213984576756,0.3365074883334793,0.011984065257087104,0.052229437951956184
0.0870517,0.02112417471594486,0.07949495252438238,0.029996818678986216,0.006851248366420634,0.020495870757967084,0.24552187320507426,0.010046074715944863,0.07295505235670653
0.0875172,0.017312264881278062,0.17492420685084412,0.02815209793491304,0.012336745959621946,0.06443969501687433,0.20364678099939645,0.006193115981920498,0.05735934119164159
0.0879828,0.022535439553183392,0.1528372507440952,0.025170478775557715,0.0220835456499826,0.04282039878108447,0.20675366625115024,0.005364278775557717,0.04992259978377105
0.0884483,0.03365214178824072,0.04590182536472217,0.02157106781008731,0.034239990919515004,-0.10377241435750491,0.18804338456216807,0.006595068138649513,0.045963681576441956
0.0889138,0.04430550542931874,-0.08837615464290091,0.02394968102997056,0.05327999232995934,-0.27177689737171434,0.1095140927557072,0.011520712199674092,0.030593329166378618
0.0893793,0.05953206370858549,-0.18456151621579955,0.03601440501530709,0.051914681632602336,-0.351140336442106,0.0048565682565524584,0.010912777329406086,-0.0012256415994109128
0.0898448,0.05914001992487978,-0.23354933363906252,0.042321205816175045,0.030931148968019583,-0.35867935827013675,-0.045336582808811046,0.007579397064580221,-0.02308334278517933
0.0903103,0.04704359414820562,-0.23248215867426694,0.05878085705633601,0.014970013955730563,-0.31793841133979805,-0.06762822405566986,0.012220123977199135,-0.03123438019247506
0.0907759,0.03338519055229453,-0.22400108184263043,0.054607550979300735,-0.021503262362686848,-0.11306176607293462,-0.11187739990847073,0.011828561543600836,-0.038267563931274624
0.0912414,0.037170091362692614,-0.2246527479555821,0.06889565402375049,-0.04984419393183162,0.1522982463761094,-0.13541613308004363,0.01645633750900483,-0.05829030983684554
0.0917069,0.03357837841947049,-0.25954718332434307,0.05605334950489006,-0.059380329919149065,0.29428477022564753,-0.062179018437166875,0.02343889527367346,-0.08991146726083098
0.0921724,0.0387206764164246,-0.34743497296442505,0.07266294292492738,-0.06708165015522463,0.11068713019297413,-0.010519420279769334,0.024280325622665914,-0.1319305033831858
0.0926379,0.032088891970233895,-0.4185181823068725,0.07131136375266005,-0.05594636067150684,-0.10791973672572927,-0.02947418680368463,0.025498815574063395,-0.14273376401311302
0.0931034,0.020426604881614806,-0.41044164198938604,0.06800948520818757,-0.031327140062624007,-0.09055492321542889,-0.06960715801061397,0.03203317832630782,-0.11273930818476034
0.093569,0.007159701150446926,-0.28615228704670426,0.06494584395063648,-0.030809254700830666,0.012858357198976685,-0.09160542159651316,0.036067226002716245,-0.07078037610092544
0.0940345,0.003185740505910943,-0.1368850247189028,0.07910707403196747,-0.031059528279185573,0.056112991224356576,-0.12666148778902978,0.0448107179732052,-0.03361538291681173
0.0945,0.0016767541814501612,-0.07166506138806814,0.08284214705006804,-0.02068896949191804,0.09773359262476299,-0.17129115022357005,0.040104929238945826,0.010207609129131143
0.0949655,0.008304638642993786,-0.1384616837148933,0.075084304000506,-0.006493903619072673,0.23418014768995513,-0.24812383933349866,0.028361326857120527,0.03629460052403542
0.095431,0.006140825763775458,-0.29288488983664956,0.08546221524943128,0.00928909155730802,0.3290136445920732,-0.32905326535053536,0.03691339237528436,0.021986986551994693
0.0958966,0.01105128514425952,-0.49896965083110556,0.08727272838141983,-0.0005028462303140844,0.2252692514415325,-0.3349919064858246,0.036759,-0.02149110681785385
0.0963621,0.01360960735340451,-0.6713358091770903,0.07577181116553766,-0.06281494090867878,-0.08974556821423917,-0.25140915223673355,0.029571205581646602,-0.05512058593080539
0.0968276,0.017493506593657695,-0.724856358855273,0.05419485500710983,-0.1389498031148723,-0.24014104523944563,-0.13638715140459132,0.02426125482333171,-0.07878794499380094
0.0972931,0.02171412558026076,-0.7158233156671029,0.036908577843599744,-0.20206142232836066,-0.15112765771183256,-0.007494787904751485,0.016778427996325448,-0.09386507268405357
0.0977586,0.030314480336518027,-0.6711977136476797,0.008580108659118168,-0.21538163099283703,0.009632381351085777,0.12594958934754846,0.0019910304990136502,-0.07469678843529781
0.0982241,0.03954282923285601,-0.6730488358176338,-0.009189696349691745,-0.189941950860526,0.017252616972148492,0.12776498086514024,-0.006128512164342233,-0.025578747443672792
0.0986897,0.04965524268471506,-0.6448517101016336,-0.02614188059995777,-0.14532858390634995,-0.05798402854320553,0.0702117857652115,-0.011714962977373799,0.02139768254821091
0.0991552,0.05154017578417883,-0.48736754754238537,-0.04054578533726784,-0.07877089536214021,-0.15439990091641184,0.008380481602242444,-0.01947817640964379,0.02652001749492316
0.0996207,0.05180894713274957,-0.23690714242625935,-0.04053798092787692,-0.030746228060626487,-0.24693914073595366,-0.03475508908337287,-0.017827452841670914,-0.035002520355187076
0.1000862,0.038936727846759236,-0.015447866028084376,-0.02112530348067006,0.008482200456530833,-0.3052426308997277,-0.05346041981546572,-0.016987778658050054,-0.1346620243468697
0.1005517,0.03428808804751367,0.12070147287594205,0.01018634584209798,-0.005998369816670131,-0.3183677192843667,-0.012383915241171124,-0.007955684550030383,-0.21610223032252884
0.1010172,0.03170303988104571,0.19279525171983064,0.030579418038999093,-0.05166738296935629,-0.2851930628225471,0.042189067146336315,-0.002211133068990463,-0.21064490641554096
0.1014828,0.02890962127571778,0.2800059693419222,0.051193744363544874,-0.13211611737997017,-0.14510363740071483,0.06086556570362535,0.0017327702982613284,-0.15567615856178538
0.1019483,0.025189294474022315,0.3345228528149191,0.06578878733714937,-0.18133864701095392,-0.006307426538020354,0.03954527396427867,0.0033067120901474753,-0.10931541877825968
0.1024138,0.017584487911845473,0.32648751283818167,0.0873814681421748,-0.22332599512364107,0.15957889087045896,0.0014600575020451865,0.007566254057639498,-0.09338315622354822
0.1028793,0.008730378550636948,0.20364759348561828,0.10037162144936305,-0.23247374691501366,0.23611627405602245,-0.04815875453855188,0.013216943633587348,-0.10762118684772823
0.1033448,0.00025589975130149413,0.024878691370799476,0.10886157555235848,-0.22102886913660555,0.25843186932431544,-0.10158804948653498,0.017771213079839213,-0.07016406608357266
0.1038103,-0.004420652750543972,-0.11074324669639488,0.1138304180273695,-0.18244676681635894,0.28590695266427085,-0.13403206237030493,0.020547924290510285,0.018545548962558396
0.1042759,-0.0049129590365753475,-0.13297032602390685,0.11037906200606855,-0.09776508955647685,0.2895551556603083,-0.16403728466011494,0.023344125461907513,0.15746914794791528
0.1047414,-0.00462890460366518,-0.03597958896047759,0.10186087245901734,-0.03880016331628248,0.18686516329986955,-0.16956401786355865,0.02353090742422707,0.3142584298596813
0.1052069,-0.008642606040744943,0.07557180859644473,0.07692209319753485,0.02164810424676537,0.003744288950769479,-0.1731383930299097,0.02358289953532731,0.41631869771483937
0.1056724,-0.016773831199291808,0.085063583840623,0.05112515476802725,0.04306422769112157,-0.04212278583631306,-0.1634298102165881,0.02276550138147418,0.36028489313507256
0.1061379,-0.024858471900466906,0.06242644537829826,0.027949034907141405,0.047375998602368984,-0.04751251954468268,-0.14874260724441882,0.01899271186878786,0.2651550776752456
0.1066034,-0.029305848861512704,0.06119276354774535,-0.0038397131553629662,0.04111521106464149,-0.10101808816530104,-0.1248487022905895,0.005320161630754523,0.14970227710065956
0.107069,-0.03464479589190188,0.10028144975462844,-0.034810834700671756,0.033339744758837636,-0.16926747121610386,-0.09019244114452406,-0.012209631943800155,0.08891196986791877
0.1075345,-0.02915654775490668,0.10845705666106484,-0.058035901569937313,0.01049742844251944,-0.14914831464146208,-0.0030751131413911466,-0.020845070238148144,0.04376459281788683
0.108,-0.03401073717570566,0.11573649776680944,-0.07909019690202453,-0.04849277269400652,-0.04686015942038474,0.11569376762422462,-0.024380674351411315,0.050942966787054726
0.1084655,-0.02732174124017392,0.120842927297291,-0.07448624039824295,-0.11228627224969344,0.005685346274297315,0.1434443718853549,-0.01583341130146464,0.05734808307356564
0.108931,-0.024875233104692054,0.1607800586494773,-0.07156914178035187,-0.15476571846707265,-0.06670312437666724,0.093529282352491,-0.01060101130808523,0.05554751894926682
0.1093966,-0.015724408846172253,0.21584649384176863,-0.0663184415818889,-0.1461420764668262,-0.1810913584181111,0.013966335671451216,-0.002022335171699516,0.02863112650371256
0.1098621,-0.01040536692957566,0.2398400945694076,-0.06964089456940761,-0.09696525336020433,-0.17578419799974396,-0.005097059660320187,0.014828086898679,0.020118278432113754
0.1103276,0.00566793861085719,0.27257867923979456,-0.0840535386108572,-0.08112913307329314,-0.0612991522408944,0.019421926985662964,0.03867562956094117,0.015451890347285701
0.1107931,0.01641185184789916,0.31424918043000605,-0.09750488357921462,-0.060599704150564065,0.05742787817325313,0.023185031731315472,0.05716563407989236,-0.006066911542160697
0.1112586,0.02553557229514009,0.33387932324566844,-0.10725144558535309,-0.03129492202869002,0.09952668770658758,0.006165360716850443,0.05251287800235448,-0.03709849778390433
0.1117241,0.033770353456671676,0.3090135262353148,-0.10919508026975401,0.01049517646222533,0.08431832230839537,-0.009155417152096607,0.039565439171608215,-0.048249924234932955
0.1121897,0.045115359000113105,0.28029950809634824,-0.10269297477175271,0.05940201626357191,0.12121732262326583,-0.008949492982507348,0.028218025438775725,-0.059063574561224276
0.1126552,0.05478008609878818,0.30638499528060215,-0.09504730410099013,0.08653785144464177,0.19050452619518446,0.010626259869497142,0.02142332507679982,-0.09123728432788926
0.1131207,0.0636517875667089,0.31187125020326156,-0.08792720601338404,0.1064504866099795,0.1421618513213267,0.037679213645375687,0.013456806634649,-0.11356181187934247
0.1135862,0.06972391523785083,0.17393754342096254,-0.07514282876437645,0.11246366053381635,-0.0214340606648382,0.054071787660712155,0.0036795277081605403,-0.09421566796851638
0.1140517,0.06767427223169847,-0.021428669900911607,-0.07264194748766091,0.11722461871191456,-0.11655877106630504,0.03993757056157888,-0.009215542762475031,-0.0729111649869748
0.1145172,0.06533213939436104,-0.12132855201546335,-0.08679266568117078,0.11308768903096308,-0.054679973772858055,-0.02089754322681408,-0.022034708878150955,-0.0777606183637622
0.1149828,0.06331185736664631,-0.1230335,-0.09503630001185503,0.10746034235850374,0.080777212462953,-0.06759675995925607,-0.029369272481484264,-0.08384928002221267
0.1154483,0.0544447394471977,-0.11868402645168799,-0.09856292018426743,0.09627152599101942,0.13484301167004764,-0.07794557714269086,-0.028621977885886257,-0.0899452177765395
0.1159138,0.03405677786170642,-0.12260103002914635,-0.09730416355062775,0.0759068548344196,0.07045889003716406,-0.057897001988622646,-0.025192141930329964,-0.08890183754900166
0.1163793,0.014676712388083659,-0.10547738165045509,-0.09543408758023192,0.03878136153862601,-0.017867855587369863,-0.02829960650529892,-0.024254227244744717,-0.07935180234801134
0.1168448,-0.008687046425521424,-0.060101788293705785,-0.08001186435785307,-0.002310712991938788,-0.04548392098150775,-0.015495980654338494,-0.029229609147528268,-0.07351182663482714
0.1173103,-0.023217976266466787,0.000679234305470796,-0.07326381156575797,-0.023610655791203285,-0.03643591117395485,-0.021365706401544855,-0.03817582874945457,-0.0830709181941656
0.1177759,-0.026044842376112275,0.06658495859606428,-0.0669279661327663,-0.014190976102955107,-0.019471337132506174,0.008621908823640854,-0.042111348625875455,-0.08540341917046218
0.1182414,-0.028542238248747902,0.11562684422929528,-0.06473791335685762,0.012848581781755965,-0.00886641891453127,0.10610835716646755,-0.04444400368656092,-0.10355302941782193
0.1187069,-0.026049987013907625,0.1106939552106519,-0.0626078,0.039331491359307184,0.005104953810116065,0.1941436226863502,-0.03979668853013319,-0.13584159790042216
0.1191724,-0.022772944877738392,0.060947672968874406,-0.06276323861152483,0.04260728998634707,0.0502797045922564,0.20472905484562437,-0.03247478404999037,-0.15855703329733917
0.1196379,-0.011033461098920606,-0.011329105954227123,-0.06732045568438258,0.0152840647650212,0.08925033428934169,0.135893587190489,-0.025096428513435996,-0.17384177009949422
0.1201034,0.005394417574900625,-0.039734044961632575,-0.0637629298838827,-0.020070566406212176,0.056711860589838035,0.02184470385268115,-0.021317854814173063,-0.1635598324047448
0.120569,0.02531185419170963,-0.07584138631690082,-0.07980674342760197,-0.06336383688656798,-0.003265733802828623,-0.11346908199061541,-0.021761515026473048,-0.15708360275185973
0.1210345,0.04379536665150049,-0.13167936993794047,-0.08275074214098682,-0.0919529631512278,-0.10339578797517619,-0.16405860504518127,-0.017373381962764285,-0.1435594155669021
0.1215,0.05734823114915108,-0.18144962313201257,-0.09079481785339286,-0.10333753868784308,-0.23374069500140893,-0.12852331409947657,-0.009497337436537657,-0.13698678379977175
0.1219655,0.06240290599824128,-0.20966705040872569,-0.09670950899736193,-0.09960651004263268,-0.34139405351228086,-0.07009031926781399,-0.00039965454424483967,-0.09210258576297753
0.122431,0.06033210282418289,-0.1875396747727944,-0.10078464646977141,-0.06654735442328577,-0.37165803234885697,-0.050837962002777244,0.006225255293628464,-0.023414908785377365
0.1228966,0.05532632070127356,-0.1381581467917098,-0.10482266343898115,0.0004537687942182775,-0.3441762819101222,-0.04526224874802513,0.00884404068124388,0.023388961722557475
0.1233621,0.053178975926647255,-0.09419037171742722,-0.1100147283215248,0.07193762270321322,-0.2525141660003142,-0.042768963707532116,0.0063707555598835576,0.04221711853294519
0.1238276,0.05278537942994047,-0.07271847911105747,-0.11450676794025719,0.1030767312113765,-0.14322561573165543,-0.0814182435219169,0.004771481567663707,0.03564110707844491
0.1242931,0.050326038469125804,-0.05488834872025396,-0.1201940396996925,0.10830283075310766,-0.0688309179674231,-0.1385976461355494,0.011534669209904029,0.023036984654269763
0.1247586,0.04083238600343566,-0.031167333566010615,-0.1258960558546211,0.10247462286879319,-0.0003616101677551424,-0.1297306469419343,0.03202834724214016,0.025911269642157966
0.1252241,0.02866321677635584,-0.008240434267667922,-0.13026550884498375,0.09027961121435742,0.11862679978318495,-0.08271693567942079,0.06099500934312495,0.014035196781525738
0.1256897,0.018531544802625616,0.021757443031671573,-0.12950182703586868,0.08631984728838486,0.2659997154810164,-0.08864297698783667,0.08484996426646743,-0.028175658698402533
0.1261552,0.009334141001008446,0.05480081822782211,-0.1407663994224951,0.08912987060608937,0.21588250285018698,-0.14463011688031074,0.11571981859415667,-0.07419054802540467
0.1266207,0.0038287160758925277,0.095585527691142,-0.14794480635795626,0.066772565406213,-0.024860079767477235,-0.17264754841234237,0.12440094969034445,-0.0850996
0.1270862,0.0007037120641941647,0.1186228081620712,-0.15431620427535928,0.04130789194886619,-0.18833179933743582,-0.18378482724159872,0.12477970376036353,-0.09983185473589426
0.1275517,0.0010005550326759242,0.11009836232050872,-0.15921473236790104,0.0031066859762708147,-0.2034614891928407,-0.20149957226708276,0.11579207498513273,-0.11578747177445509
0.1280172,0.0031098201025011618,0.0777191307871928,-0.16313852077764798,-0.03715760626193468,-0.1339272222333644,-0.2038356479226534,0.1013871061785231,-0.0872667035073502
0.1284828,0.00847259954153361,0.028773327065061773,-0.16828848633045798,-0.10989882394277112,-0.01552812385583688,-0.19904756568913382,0.07343828467843247,-0.04056960064291051
0.1289483,0.01571967625140396,0.010848382303466976,-0.1703574253503931,-0.14187672009922864,0.11011770978324154,-0.19346027404893298,0.04953173120223149,-0.023743382503691606
0.1294138,0.019133463426576656,0.03471198814586661,-0.15435764138976701,-0.13628428949685123,0.23830647549311018,-0.17195156866909253,0.020248418801967722,-0.023952151190748363
0.1298793,0.03304731492798496,0.129724882981969,-0.16912236380401127,-0.10283035341593139,0.25842421868643983,-0.09315533528283365,-0.009435308210339286,-0.025202600957165408
0.1303448,0.0354162,0.18248694763368997,-0.16708344552571425,-0.06510651262961029,0.2049481425910442,-0.05975146763272733,-0.029619176319923845,-0.009733908675033836
0.1308103,0.03803585039522803,0.1782839760566329,-0.1573475678018352,-0.05256977933934706,0.08222354341928673,-0.06709248099814652,-0.045027137190798865,0.006484674418383995
0.1312759,0.03233823552150161,0.1848236681458515,-0.1596464084172013,-0.08721835259995805,-0.08381101257266209,-0.08618517289569967,-0.051922064478498384,0.035712624588329404
0.1317414,0.027297486239866334,0.23558219292352442,-0.15577727644790038,-0.11147377588053484,-0.19590699531093275,-0.08623019924351265,-0.05700700037824368,0.047342320151297475
0.1322069,0.02089831866879087,0.33606814087201203,-0.15395153933183495,-0.0989005143025088,-0.22590558243309494,-0.07185398308090463,-0.06330998699311056,0.04791932764604124
0.1326724,0.014226739018648326,0.4132120552243961,-0.15551918494936476,-0.08065996859286677,-0.21677488365793177,-0.05915703773443021,-0.06618497168835501,0.03467671069257354
0.1331379,0.00612997821925044,0.4123207314012308,-0.16118492242411317,-0.0799127377912086,-0.19923228588445568,-0.035988192979667134,-0.06391277639921426,0.010094516865449774
0.1336034,-0.0037717989453928944,0.35308265916377357,-0.16732308577420088,-0.07647754754343547,-0.16883808731264618,-0.0020255470769384304,-0.059762178903220414,-0.011575509779167124
0.134069,-0.020735053586506968,0.24656810180028976,-0.17078675216906494,-0.05051124911993994,-0.1782735920949003,0.047755650368775174,-0.050306959232226105,-0.019566394801347205
0.1345345,-0.031077437314467445,0.20937838248968133,-0.17388403714576606,-0.027148696946521084,-0.24462442356637057,0.08972793473364797,-0.04665621142032951,-0.018047731427116975
0.135,-0.04645599238142535,0.20842010617562742,-0.1678405303842883,0.0048525464519333,-0.2750719407701546,0.11659850565318616,-0.041106898955117495,-0.020657596128524414
0.1354655,-0.05444054612166689,0.18937522023876033,-0.15894262118583885,0.009045261416636299,-0.21347779059590002,0.09321858257411493,-0.03513572384699228,-0.025203406449467426
0.135931,-0.05974968798430518,0.09964185494900397,-0.14653914590523281,-0.002249612227463508,-0.14559740127777418,0.053633639596081153,-0.023484084044468664,-0.029054849845069338
0.1363966,-0.05321638432724784,-0.019888778364157627,-0.1368273873350538,-0.036801589780132704,-0.10070811695690692,0.006881762022896441,-0.008307151451182805,-0.027175044327168475
0.1368621,-0.040288368428405774,-0.10082849175670004,-0.12372224027765873,-0.07867395745236172,-0.03442717371362308,-0.03665565416671769,0.0021618856481764965,-0.016740560185105807
0.1373276,-0.020199713818690877,-0.11276519336037621,-0.11149431076860063,-0.07823720232088367,0.045927444725236494,-0.04189619538488544,0.005073297436047469,-0.008588607179067087
0.1377931,0.007522549410688174,-0.054443920552621906,-0.09166542883068542,-0.01698450402387576,0.16433320707205898,-0.004093431144124417,0.004710141132624673,-0.005881214313877146
0.1382586,0.02284854335144023,0.036830211447345294,-0.07017487974123773,0.050346023648640895,0.3134208796341931,-0.010628597380173566,0.007650649345043391,-0.0022083235611759
0.1387241,0.03548860280507974,0.13532176627401457,-0.04677261365790017,0.08934760937194199,0.39790271203077676,-0.050728610852820426,0.01013650789106355,0.019185996054468225
0.1391897,0.04518759054113377,0.15047736486318464,-0.028413127363314545,0.07299803445816062,0.2962558918899943,-0.017005356082973155,0.012207872974137324,0.017055435813576148
0.1396552,0.06526890808713408,0.18613279743217304,-0.0064379535528419594,0.04672175355284196,0.08810087263819572,0.07369477838299505,0.010462856727704953,-0.005894168858406074
0.1401207,0.07959499324744015,0.21981148373430415,-0.0009117716780961251,0.03903778373430414,0.02070789891708076,0.09602026080754654,0.0014250430014409055,-0.022593624329920212
0.1405862,0.09082018393850308,0.2503161047522125,-0.0006898076212819292,0.04947103237697685,-0.029386024970106128,0.10277038590949585,-0.003523017730228751,-0.021298392378718074
0.1410517,0.09812905881195791,0.2645994515082928,-0.00114875939578745,0.06615874060421255,-0.10668886864673682,0.15587065141533207,-0.01971051460733025,-0.012211172541305276
0.1415172,0.09628395654270278,0.25675781266631836,-0.00038001258595778256,0.06692748741404221,-0.10976403909549538,0.18862107928753094,-0.03170358775276873,-0.010981104361801847
0.1419828,0.08606473122202563,0.2424782894927574,0.004866650105288348,0.05645735307705093,-0.003315618162603444,0.17285995073525182,-0.04682228513961669,-0.016302935814928053
0.1424483,0.08575545428171613,0.22976105928413434,-0.006320116426432634,0.03673933966717384,0.12576496321563455,0.13257181587070344,-0.04732529425660948,-0.021222901348782658
0.1429138,0.08225824316423086,0.20782690318331518,-0.017335102090402937,0.027053203183315156,0.07456446612032211,0.09394884420559822,-0.05494685986444973,-0.026144624218974476
0.1433793,0.0768197369393038,0.16590377978328363,-0.03326891958843113,0.02201875027708163,-0.06511495348890259,0.020204901528425766,-0.05834045879376529,-0.03214812724017163
0.1438448,0.07491047848703422,0.13200745509531017,-0.04650530244238574,0.027493472170531167,-0.15080664727580054,-0.05860309525777859,-0.06519667254628282,-0.03307185122119287
0.1443103,0.07356195516097798,0.12331677305915052,-0.054297028441647056,0.030939767881003923,-0.14211587596893213,-0.0933660019438347,-0.06984169533356502,-0.03696771422082353
0.1447759,0.07152974148282785,0.13393498617239072,-0.05865194789629785,0.026754199257956537,-0.10302145521122127,-0.0663461602398202,-0.07222483092159386,-0.044830775611156705
0.1452414,0.06827563143842237,0.14304387620730463,-0.06467558231632156,0.00818034382773063,-0.05774196253819787,-0.03640624989392898,-0.07195858748418689,-0.06074460734794777
0.1457069,0.06507744755259257,0.13700766507832657,-0.0647633579109395,-0.01583132954592587,-0.02535613562018524,-0.03619644750870032,-0.0635475456731685,-0.07131050450166668
0.1461724,0.0656291,0.11778941647839547,-0.0769557535128133,-0.03682666802587562,0.01825870600141592,-0.0507703243828284,-0.06416979721817664,-0.07516075539505825
0.1466379,0.06409514260797167,0.10971710373343962,-0.09480855382547387,-0.03891891717192206,0.03957375247989961,-0.07593659286689106,-0.0567905660852672,-0.07280795247989962
0.1471034,0.06050940055013434,0.11180869758894209,-0.10691038876489019,-0.02905812651286942,0.03255171878908618,-0.09296877863004903,-0.04842383461698011,-0.06578591878908618
0.147569,0.05394408740285061,0.1046447686133096,-0.11357450421342262,-0.017732809351652022,-0.0005065827863317124,-0.09981260074481788,-0.03853253305631505,-0.051336551101038186
0.1480345,0.04816938273143227,0.07695737117168601,-0.10747075573115751,-0.009893134401775916,-0.059860119636701896,-0.07436773729171249,-0.02619673947981501,-0.02815464945586156
0.1485,0.033483353277873634,0.038307552062084985,-0.10501733367043857,-0.010083946076052638,-0.13380545654344553,-0.024820002695856967,-0.011052201632785941,-0.01247742825412114
0.1489655,0.03096528018720315,0.011938861702062003,-0.10181323519890334,-0.010847979953199213,-0.1753744280405337,0.00249166823759252,0.008282848919892918,0.033698647722783866
0.149431,0.024688573781504533,-0.016083962707621885,-0.09456921174700524,-0.006785897850503099,-0.16376555176386834,-0.021202377898048335,0.025411560081271427,0.08397432073753093
0.1498966,0.015312582343538819,-0.04140137059105854,-0.08853563970705765,0.001985163418031768,-0.1613187774178874,-0.08490587629937356,0.036522224633822056,0.07603724427616348
0.1503621,0.004687248270664129,-0.05755977222053835,-0.0898743624762668,0.0071069874288003975,-0.21203531188441205,-0.11359642086211817,0.0379892062855998,0.002315557447051363
0.1508276,-0.0010251111415798303,-0.0653717722868748,-0.08262060335307682,0.0073453264554288016,-0.24553858562097497,-0.06252240900134459,0.03154604478652114,-0.06078226311761349
0.1512931,-0.00822273530079801,-0.10043222072658926,-0.08659195582215853,0.013368548615289653,-0.08662455936773639,0.034839136650030626,0.02472605419674174,-0.08966556543060138
0.1517586,-0.004114342531183854,-0.1605477013869115,-0.07221708231573742,0.014737143553311884,0.21452180751888306,0.05952346491475808,0.030812879797286214,-0.09244505084401586
0.1522241,0.007254366025822181,-0.2189431318784689,-0.04546885761711222,0.00724922136286611,0.3575681488655578,-0.04961409773111563,0.020460353757354905,-0.09975412240608982
0.1526897,0.016252807833253297,-0.2557753570487944,-0.027995410971088944,0.005152115043473792,0.23317724197705278,-0.20050682164479539,0.023900031992851536,-0.15068236236584578
0.1531552,0.03508100169541894,-0.2714520044525816,-0.004804940496726989,0.0008905824017820384,0.053776347349533495,-0.23696238791739124,0.014214814207380095,-0.14689732989421903
0.1536207,0.04491979295234211,-0.2708278544573249,0.008054600067199755,-0.0027002145122298825,0.001701521734744947,-0.20387246624425634,0.007649736487899886,-0.12397559084442515
0.1540862,0.05201930767792066,-0.21478627110675938,0.01999843820940075,-0.008942833129196763,0.05543038414697833,-0.16593688640600357,-0.014323126642591413,-0.08189773653765714
0.1545517,0.058784991594164775,-0.15075216604267433,0.035538417848685507,-0.0124186378262585,0.08517915141595889,-0.15448135360091386,-0.0362331379932509,-0.060626967246681776
0.1550172,0.05893656283827294,-0.11013368611253005,0.050144481649796575,-0.010890202138219405,0.053977465584281833,-0.13341344158463514,-0.053898990535438146,-0.05212777862876214
0.1554828,0.060088523447468324,-0.10564508944224514,0.058791084387686945,0.0004823689723522588,0.007556253105063362,-0.0879879290086625,-0.07316255002899874,-0.057908
0.1559483,0.06321028519305757,-0.13842346096283473,0.06276423570025508,0.012685534893651266,0.0013127296138848597,-0.047689076454523624,-0.0822440387434402,-0.057908
0.1564138,0.0694409466963172,-0.20558916513917821,0.0650076211645769,0.03201181083951956,0.02803333200409646,-0.024918431679360635,-0.08565243537528398,-0.05457596058228845
0.1568793,0.07816336961557854,-0.23595741938449655,0.06650127723688995,0.04937742323283968,0.04585520987670102,-0.042608515519645965,-0.08169499482678468,-0.052143672817993036
0.1573448,0.08642078785966673,-0.19457000560338392,0.06766489406702333,0.05432382710574138,0.042899210393344725,-0.06351747539396423,-0.07494192308243788,-0.02866954600219115
0.1578103,0.10344476346744745,-0.12424219928647295,0.0695011620406476,0.06263102408129521,0.07854712214126497,-0.1025295133648268,-0.0627101894887729,0.04032917775624151
0.1582759,0.10943437174266428,-0.07323902435607103,0.0705558725162852,0.04677099470686638,0.13632208333561183,-0.16865105430465518,-0.05108231148210105,0.06681346111187061
0.1587414,0.09186437629808081,-0.10384783423225745,0.0663690797538892,-0.0007698610783413431,0.17232994411803446,-0.2247552789069057,-0.0419002944707066,0.00837533269411227
0.1592069,0.07403668206062737,-0.1331403766662741,0.06927794995488235,-0.03251619685956016,0.1165452815015623,-0.2069941064790035,-0.03811070267161008,-0.043297827485320586
0.1596724,0.053079306880361485,-0.12470869761968603,0.06594547952004459,-0.026963632405429087,0.03477110332877743,-0.10453576981375587,-0.033739074313803366,-0.010445784200684219
0.1601379,0.031777989187258396,-0.09273621197526527,0.06688749127163998,0.0007026885058846288,-0.023700095540605898,0.042335203347017195,-0.022097164936392053,0.04073457260243113
0.1606034,0.022219938616826175,-0.078025813709345,0.062418658645238434,0.02370042465030714,-0.028341433863649422,0.11049040347046343,-0.01952815389206168,0.010280088766026641
0.161069,0.017172199172377882,-0.07121375027424337,0.05691075200672426,0.033450618949264974,-0.003337992555804479,0.03970894132927693,-0.013839923125993886,-0.05567105035148003
0.1615345,0.012205427435571629,-0.06290400830629385,0.05830458778502825,0.03596089193817518,0.010690889110194682,-0.1277333,-0.00869381778210893,-0.08386510823947245
0.162,0.00601585927725708,-0.049558506229672436,0.05206790062688604,0.023624027400122934,0.00681732482466915,-0.22929784923141427,-0.001165296554743358,-0.058138022916583966
0.1624655,0.0004338221301580845,-0.05231162016415428,0.052920565838595744,-0.007416579651886224,-0.002583084738914668,-0.19799310348894364,0.002031598201120917,-0.04233659821795569
0.162931,-0.000406221159765262,-0.050986382706729165,0.05173257141421419,-0.0681911218723976,-0.016818934689775484,-0.10238995279891247,0.004123046998255505,-0.044083597660637505
0.1633966,0.0013906587398087552,-0.052861477537149745,0.0467940634174341,-0.12612856742043901,-0.007019664684952189,-0.034822003715714644,0.0026983073629067793,-0.03991747434581027
0.1638621,0.005972998965365302,-0.06058252026974015,0.04111162755218723,-0.1416860676400034,0.042261889348457246,0.040015876314868366,0.004663703190204085,-0.0059354525834409404
0.1643276,0.005842101960219328,-0.05907809019890336,0.03901768529835504,-0.12944125300005063,0.07064633912200767,0.11517484974670632,0.0024069441419992716,0.03615888906228604
0.1647931,0.0033807148376930043,-0.037972670816315494,0.03127554788431816,-0.11223482575776648,0.049826452907457776,0.15112070309850414,-0.0007115330602948751,0.04773998566767822
0.1652586,-0.0009280124415600988,-0.013083085343474453,0.02276230942693264,-0.09977801468661736,0.024538847650789796,0.15087109169559598,-0.004126438223857153,0.025070735224275605
0.1657241,-0.006182260696508774,0.015152457030077943,0.01534549222363785,-0.09758418373885477,0.01577498690787857,0.1680449555914161,-0.008306203141896869,-0.0014168980100245456
0.1661897,-0.007945917214926183,0.03281607959581773,0.006660141976709273,-0.09768510402713851,0.01638586677682077,0.15809829090132343,-0.011695602820465379,-0.014368539194572299
0.1666552,-0.004046320485574547,0.028635914546939787,-0.0012451850566940884,-0.09063562197023324,0.015518952993497134,0.11102990103993307,-0.012303130463898323,-0.015549301995664755
0.1671207,0.0015076798866858663,0.042688292470594094,-0.008950875524080639,-0.08165152637393663,0.011684354079319894,0.06682709767905491,-0.012960598101982721,-0.0128426200414927
0.1675862,0.004478533205942329,0.07707608816700653,-0.015472262641520608,-0.07520648931352557,0.00820910076434603,0.060700846325183154,-0.013185462380569946,-0.012092899617826985
0.1680517,0.004402702413395412,0.08842938967745508,-0.02110997013626073,-0.07209795203579514,0.009657838310623211,0.077249092536826,-0.010355077827944129,-0.01067139626565218
0.1685172,0.002368208238736058,0.06535848698980679,-0.021443312161829226,-0.08026507058433599,0.014172459607690683,0.1106126,-0.004323246429087498,-0.010147346509224596
0.1689828,0.006002080700335648,0.050305146202705285,-0.024080519737374132,-0.07327625467710785,0.013621839912458043,0.11912829852895392,0.00380424576060193,-0.01387660131312934
0.1694483,0.012047275148484457,0.009942747646099252,-0.022489979356396805,-0.021695922898514308,0.01034704456564246,0.0580288656052042,0.009802008217845423,-0.023710025049494817
0.1699138,0.016451382335618412,-0.05144853076055152,-0.021900608734288857,0.048232573271480866,0.003971730894596336,-0.031999326728519135,0.011855819002238373,-0.024935724578458125
0.1703793,0.022695271559661202,-0.1203786504177376,-0.017784310891293977,0.07382053600275736,0.002000211783065652,-0.06675926136532806,0.0146029,-0.01912470332887542
0.1708448,0.03241112889115453,-0.13925525120030213,-0.013065140022560321,0.05952426559954338,-0.0004980901021291342,-0.04538435869756873,0.0146029,-0.018985945531862416
0.1713103,0.04991488396171441,-0.1411919175574598,-0.004572487791307847,0.03947306871066507,-0.0014798824425401736,0.0033427037919225196,0.017005411447100677,-0.023451681672931268
0.1717759,0.06369913854470768,-0.14897496589872886,0.005272066434571449,0.036598821845530406,-0.005394338993697797,0.05717479326674483,0.018721821156608608,-0.02513311346651034
0.1722414,0.06133591923575272,-0.17774757633451427,0.01709537355760054,0.049958131305815896,-0.016230848632021736,0.11650317911142799,0.017173931502179007,-0.023023306576600205
0.1727069,0.04311193564744975,-0.1971054670922718,0.026974000956324875,0.056390217071590275,-0.036643198356167056,0.14942577019901088,0.00903588973119522,-0.02531907421297447
0.1731724,0.028308176234420886,-0.16879916974998657,0.029376700118334226,0.04531355939281398,-0.06704589861385109,0.14517318756021785,0.001093920303593012,-0.031894678080361984
0.1736379,0.02423496715265546,-0.0630182461161652,0.0427376411627263,0.048141048758241885,-0.0955593654140362,0.11211762511150253,-0.007706862778756315,-0.037466534604197806
0.1741034,0.025002044686073803,0.06425388362809271,0.0363611360132228,0.07412594029287961,-0.1199301463896979,0.06417688352063099,-0.010355674602478321,-0.04327895078289208
0.174569,0.019213301249805675,0.14233294890097525,0.03456607547129076,0.0849271506410197,-0.11741338801987558,-0.054399091932705534,-0.011585423200681942,-0.051149961612972986
0.1750345,0.0142672,0.14982372304665836,0.03870398829862595,0.062357797462389786,-0.10057555358720367,-0.20787903141665054,-0.01733793692955289,-0.059270574771821155
0.1755,0.0142672,0.11637459480124826,0.03654597113752607,-0.008239917018887353,-0.08593200345994965,-0.26799494825829967,-0.01887937775890995,-0.05988715110356398
0.1759655,0.015415099265647247,0.06526043454909572,0.024998324390037165,-0.07740519437636396,-0.06490316784180238,-0.22231334331022093,-0.014992701468705507,-0.050479171655110455
0.176431,0.011106065746215173,0.026761798128290486,0.027039648373806624,-0.1309016393844116,-0.04800918787356744,-0.1316805292450378,-0.00858626223349458,-0.03229195558373645
0.1768966,-0.002714074012177009,-0.023508481085696684,0.017945323398027863,-0.14660070206307665,-0.02993287275364414,-0.06517686359907347,0.0009367506443837233,0.003049774012177009
0.1773621,-0.015857222126820114,-0.05110893552057155,0.010453768124150206,-0.10151989978719536,-0.017709784158494966,-0.07490271490097154,0.005668283965655241,0.016192922126820115
0.1778276,-0.03297086518207991,-0.06279378548543937,0.003889518281926576,0.01680308548543937,0.023800282340875667,-0.1033194774632999,0.010601641729849743,0.012127612387173865
0.1782931,-0.04050957274734337,-0.05591585803869408,0.005364631320456553,0.11217743785737955,0.06833328608954402,-0.027959796464328952,0.013920467695273352,0.007966835156028262
0.1787586,-0.04689908703822473,-0.051747441351835746,0.01572264191510064,0.15681882934502434,0.04800507620651025,0.04347689744569302,0.015876512961775276,0.03062105504844183
0.1792241,-0.04730079690706023,-0.054960801231932935,0.020274901745238327,0.14637548950235518,-0.01144184227234767,-0.01302444114307581,0.015474803092939771,0.051507814501426864
0.1796897,-0.04921659074594746,-0.05939239232159084,0.01703087325813593,0.10275182785256373,-0.07411394316939424,-0.1131299518733122,0.011555090680750509,0.04018335238345898
0.1801552,-0.054654852781222604,-0.06588676636976325,0.011183118784914748,0.07354779734748518,-0.08550154206250783,-0.09908643888241037,0.008509591257457325,0.010432144823678161
0.1806207,-0.05677703353677038,-0.0423590206061044,0.00032134024412445485,0.06457262593981022,-0.08387348658529184,-0.06471174629015873,0.0031065335877790336,-0.0085603
0.1810862,-0.0447950030002387,-0.001149612903890446,-0.011143678510117924,0.07003841259153872,-0.08766901756304112,-0.07061027737353667,-0.0035276658792261443,-0.008309412108561055
0.1815517,-0.019775697544045522,0.025288360095053027,-0.017205055447944404,0.07455219411959069,-0.08947446870686404,-0.025988173561113756,-0.009073254514708456,-0.006245951562195047
0.1820172,0.03750953419447603,0.02807268186068306,-0.020059260108277806,0.07316628552625243,-0.07142249386976997,0.08370712155351313,-0.01305960417175877,-0.013927236090104001
0.1824828,0.09243152550390207,0.002674439879229757,-0.014086382708121356,0.06964257215676443,-0.045538596215617254,0.09286433086541501,-0.013286719518925207,-0.024557137612595172
0.1829483,0.17689306440357191,-0.02395819113504492,-0.004673480365645431,0.06000231235386162,-0.037420586113597366,0.06464115993740228,-0.02027853205044604,-0.03449510134401213
0.1834138,0.2396952481593509,-0.04452049834769928,0.012087551016659079,0.008037459276703737,-0.03252705012569184,0.11524067662078308,-0.02865961804561802,-0.037325531323061024
0.1838793,0.2823407971761279,-0.04629269066139533,0.01941100104294747,-0.08607533678354355,-0.037039190756822486,0.18581826489309688,-0.029637166031471512,-0.038697136025189725
0.1843448,0.306238992448226,-0.04301996007891312,0.04560706128248639,-0.18754222369187998,-0.02484038240889423,0.14447250136439557,-0.033633982329731436,-0.03504233075998739
0.1848103,0.3090775708377218,-0.03778273604594197,0.06386915049917166,-0.2222449429785962,-0.012584803076584267,0.060385786269633576,-0.03380424418376789,-0.029443123264928452
0.1852759,0.2827577756118985,-0.03822636550009819,0.09820062177655815,-0.16261054470043185,-0.0033160915473474527,-0.0446286941803019,-0.035187274972464794,-0.023626277452456164
0.1857414,0.2504502448893221,-0.04458741671358589,0.12115068511219973,-0.08703748584555768,-0.0027919027386784237,-0.09618868464182577,-0.03682515559958317,-0.020574598174214382
0.1862069,0.21652248196966015,-0.039797598103572494,0.12860151406110945,-0.04259885098852145,-0.0067834182470229215,-0.13251127759898362,-0.03615994264861451,-0.017913587835318052
0.1866724,0.17151727107195633,-0.0034496109835048063,0.12819214668632256,-0.023282762314636326,-0.015755073195742073,-0.19378483325550414,-0.03212372673054832,-0.013507824651782727
0.1871379,0.11985604270824192,0.046098656909532694,0.12202379396088119,-0.01582771924205609,-0.0311249732860614,-0.30503418719027636,-0.029083007471882506,-0.009398250339650591
0.1876034,0.0758446569943549,0.05654751559017294,0.11656031740146408,-0.003377600069942672,-0.04199093875598488,-0.39306017822822925,-0.030081798397333825,-0.006847481692890355
0.188069,0.04539408217089313,0.044575947727107296,0.11335213617748278,0.007972884354807844,-0.04573890073707847,-0.3985190535563719,-0.03337803583616974,-0.005215332081915133
0.1885345,0.0074010793460649845,0.015609775779536133,0.10479379822957718,0.01887113547116761,-0.049971122498571274,-0.30082473567096096,-0.03537614322671973,-0.00394044674471836
0.189,-0.013501143843348893,-0.011826985968299003,0.09006458966433527,0.019211323279855454,-0.04504942648726142,-0.2032933044990301,-0.02634845170118768,-0.011071522398872716
0.1894655,-0.026448006383314054,-0.01461753635228778,0.08919526832804074,0.028019690457854792,-0.04463518644176741,-0.09996154492386924,-0.026314775196636653,-0.01037052717059001
0.189931,-0.027373711904815835,-0.01366802924063175,0.08916115342018424,0.03302801390391254,-0.025791910965236906,0.02484007607042949,-0.02592522771132452,-0.016905528770842285
0.1903966,-0.03344105601689551,-0.0007220412521636607,0.09412055188447786,0.03716490995776123,-0.008333865974656737,0.13273787854438981,-0.03452622553565698,-0.020352681327701495
0.1908621,-0.036928468968296366,0.009362332840693037,0.10406054739254025,0.026821888783246747,-0.0024000639205803338,0.18255325041633946,-0.03635694653478986,-0.017427204691116336
0.1913276,-0.03813679464736544,0.0068581882242039725,0.11565621926948441,0.01662484625315581,-0.0012841075329109947,0.1758371855198729,-0.02728083237552857,-0.010133063511447007
0.1917931,-0.03497413073795312,0.00020824659396986096,0.12194218567903223,0.0175555471456982,0.0007900444156941522,0.09781469517397838,-0.013233627998708804,-0.0027197353246195075
0.1922586,-0.03056743039827975,-0.009130313347668765,0.1417668857677731,0.018214087934176088,0.005302613067813502,-0.027040296949038898,0.018718387049617962,0.011678839483295766
0.1927241,-0.02979097819623817,-0.015600748364681914,0.15367240910125166,0.02041407438887338,0.005820247869174553,-0.055121792178311854,0.03929433185480695,0.019184544103031023
0.1931897,-0.031046207670151003,-0.022817088234835636,0.1696302533962178,0.02272497682751097,0.004983457718535067,-0.03237844696162191,0.06403676080529722,0.026509788234835636
0.1936552,-0.03039258093779847,-0.028961866527936204,0.18858566796958318,0.02183703161422545,0.0022200167360318965,0.025568209066073145,0.09129642194549545,0.031496298142161656
0.1941207,-0.026485543977241455,-0.0290379,0.20171428835923091,0.016127479659045204,-0.0026119489273477734,0.08328123564602127,0.11306892424340866,0.03380286077049086
0.1945862,-0.024865020641125342,-0.025404037120346258,0.21682732979848382,0.006938025869192337,-0.013167100930591253,0.1769201605275589,0.1396954008920616,0.03393105058802371
0.1950517,-0.027470641818276815,-0.024848096876158972,0.23267214608480313,0.000247646763386221,-0.023423726704756176,0.2677641399443615,0.16704184705458983,0.027923456134909312
0.1955172,-0.030479304029194645,-0.026871956770603198,0.24085225546771438,-0.0013588624208574931,-0.027765249348555596,0.29788482641586567,0.18120022400773067,0.02293754291122596
0.1959828,-0.03369837449413842,-0.027869141185015406,0.25344110281487553,-0.006077862716615314,-0.02322105708686425,0.2570223807145414,0.21147076921042654,0.011780405925077028
0.1964483,-0.03720979142339388,-0.025971685947474992,0.2610954264326471,-0.012354056618181272,-0.014070701020203082,0.22645832552577774,0.2386946082592318,0.002416645054221637
0.1969138,-0.04365830176000382,-0.023455175825123332,0.26612835297351806,-0.018016204393472506,-0.0030609692349145706,0.20931474087300564,0.2676342872586111,-0.003245409017237219
0.1973793,-0.05296872695768946,-0.02164850520989031,0.26872250520989027,-0.023064911431864774,0.02094646524339747,0.17033409854068615,0.2979038080384503,-0.006566573950548462
0.1978448,-0.06092934171956544,-0.021305181891240296,0.2683440322186978,-0.028901386907100247,0.045662994736014574,0.11209136044863884,0.3232740206736886,-0.008240222593767403
0.1983103,-0.06855984047267435,-0.020631759707569725,0.26617095385454165,-0.03783133394087985,0.06155445050291949,0.05752357276236443,0.34561432055901253,-0.009138058530280983
0.1987759,-0.07628445342609577,-0.01811468678431409,0.26325193017647114,-0.045249396903968876,0.08160588361362803,0.003636941657856141,0.363804164769232,-0.012644978633986134
0.1992414,-0.08083730182255917,-0.01480349442462586,0.2582851416369388,-0.04704300053024127,0.10368041714866706,-0.061896786107551324,0.377462792154838,-0.019819228746643974
0.1997069,-0.08636716246228747,-0.011409025302826874,0.2443020385162862,-0.04736955191484097,0.11612321825444877,-0.1653036383231297,0.3884125111584322,-0.03248756246228748
0.2001724,-0.09325038822535846,-0.009393296710990944,0.22401613066241247,-0.0490982305018253,0.09867209512455095,-0.21883310711312942,0.38466819496396376,-0.04088147607619281
0.2006379,-0.09835678608400376,-0.007942809657683023,0.2088579637862447,-0.051466805399369805,0.07865021128374312,-0.2295699613692679,0.37857928459280726,-0.044517619665505964
0.2011034,-0.10087028462582565,-0.005985431109043958,0.1898515583066777,-0.048894067295946156,0.04610820159987621,-0.20196520703842968,0.3655933522146004,-0.048308457360325276
0.201569,-0.09789441362331672,-0.004632119280346546,0.16443444362468962,-0.03084882687634134,0.004042263674788528,-0.1421358673759994,0.34591208218538266,-0.05126081285356437
0.2020345,-0.09077103807697895,-0.00556182816032211,0.15263525700633526,-0.009350840596103697,-0.013071795012788398,-0.09434428461528951,0.3350138025191247,-0.05145461548075526
0.2025,-0.06357595600442291,-0.0062104,0.12490413613685979,0.02790744521790897,-0.0433596839597668,0.024715850198841628,0.3059856134206608,-0.05235170693417802
0.2029655,-0.041864959614164816,-0.00618704229763616,0.10943677502052299,0.039248395300143755,-0.054861656745648114,0.08667662515451385,0.28747703741948205,-0.05398470896484632
0.203431,-0.016278761853876417,-0.0062104,0.09480597868609905,0.03353464356407647,-0.0649294496096631,0.116953842054614,0.25941541386000677,-0.057339111829241535
0.2038966,0.021364107381605893,-0.004676688274537851,0.07529294553434439,0.02596779389353851,-0.07599178721229335,0.12662753517638645,0.21628468961134326,-0.061128748936496266
0.2043621,0.06254295652774847,-0.001697639721906984,0.050735429478095694,0.035302642158711144,-0.08533182115209963,0.13298586465510667,0.1685628987774173,-0.06242076027809302
0.2048276,0.097849275695786,0.0007786487796703943,0.028904852236944334,0.05060630665571186,-0.09007962857634745,0.1399794695744578,0.1299923494980888,-0.06243754926190145
0.2052931,0.15317873620140002,0.006449682427189418,-0.010335217572810581,0.056811521266199996,-0.09365434791873732,0.10987482734023254,0.06086136863464843,-0.059823753355600806
0.2057586,0.20052156705391347,0.011699572294193047,-0.05926539422131226,0.029447933569418758,-0.10054400897639908,0.05889344347570505,0.0159457,-0.05688818907890243
0.2062241,0.211274447778731,0.016875661386087103,-0.13335428167036378,0.007603204072644869,-0.10460536087632293,-0.013002453354441244,-0.044941702915979743,-0.04800108002742735
0.2066897,0.18436065468651025,0.01911044676653167,-0.1757981885854751,-0.0031976722396760086,-0.10630597870661267,-0.09648507151677793,-0.09925294331691849,-0.034604325867746644
0.2071552,0.13868077262384365,0.020474031398125155,-0.19870624791967353,-0.006470275355500373,-0.10685141255925007,-0.1871630839454574,-0.1412511874934257,-0.02369564881499876
0.2076207,0.059375048397136684,0.021303771988897068,-0.23087990546123835,-0.01412279187786773,-0.10889481596669119,-0.27657053850557795,-0.18964901918339566,-0.014753870172364836
0.2080862,-0.014395130261894441,0.02296693491084462,-0.26521559404021505,-0.023267544788834485,-0.10533402633653985,-0.22202376185386033,-0.222460307208485,-0.016102972359775064
0.2085517,-0.09601039925371883,0.027845229657275056,-0.3126514090897154,-0.03255503830109339,-0.0884973584208698,-0.11218018405382688,-0.2593635518619669,-0.026101263040370155
0.2090172,-0.12934885266966256,0.031490323113039884,-0.3435899454467447,-0.03602535141228542,-0.07276594565264204,-0.14142908296300255,-0.27987576122636504,-0.03673400293507253
0.2094828,-0.1709098561214961,0.03553646131914585,-0.3911415042795577,-0.04244253553190975,-0.053014399167227146,-0.24701746871291963,-0.3112434847902104,-0.054121276095184884
0.2099483,-0.19550865637990186,0.03624130063427012,-0.43359428014680307,-0.04749208589169823,-0.0372838952106792,-0.4010039239282898,-0.3392108837475414,-0.07270748292523
0.2104138,-0.21128683451424865,0.03492955111938792,-0.4571262074936863,-0.04837396517414944,-0.02198267490770889,-0.4558624230098649,-0.3551336345142487,-0.08402489552244832
0.2108793,-0.22558067306705668,0.034202985896339626,-0.479183310527906,-0.049547896474084904,0.00011057353071719078,-0.4454063389345837,-0.36957325237522665,-0.08701214277464164
0.2113448,-0.23471056755063383,0.03521741861673709,-0.49211725216689683,-0.04980150465418427,0.00886001797110686,-0.40153235041562413,-0.3798443458962125,-0.08358839457026178
0.2118103,-0.2414855806399549,0.03455100383102305,-0.4952673223800892,-0.04370227212673271,0.00037331505376588144,-0.27338300501792195,-0.3850923018418855,-0.07233508097567773
0.2122759,-0.25875588326568283,0.03227081390467402,-0.5199173363534764,-0.028993477551197723,-0.002617892270912997,-0.14531125459069294,-0.40215955338653414,-0.06702602438222356
0.2127414,-0.2559196310460525,0.029809229910089493,-0.5333322052847166,-0.009610079760238652,-0.01092984165479445,0.015613047404209024,-0.40735045834520556,-0.05939340967032815
0.2132069,-0.24095100019709254,0.027888066681266113,-0.5408194225140114,-0.007436789107680725,-0.008740757850026464,0.10044780590939227,-0.40557871381416666,-0.05190906072807551
0.2136724,-0.22877485248562687,0.026702590057492544,-0.5457853867919019,-0.014518877405206507,-0.0026345502241517187,0.1301308772152735,-0.40209751265228605,-0.046466844185471416
0.2141379,-0.22500629732874625,0.026688,-0.5557263354145351,-0.02809851615437596,0.01003486548656252,0.11220793686633561,-0.3925898367394823,-0.04397949185938536
0.2146034,-0.22814103718391873,0.027921068066879537,-0.569675681718955,-0.03674457541799709,0.016767273317677786,0.0764225777836237,-0.381446921431524,-0.04396278759429728
0.215069,-0.24203645872339283,0.030740824085411615,-0.5919275987401141,-0.03900949655922691,-0.001059087157908976,0.05851576433238324,-0.3610532072331006,-0.04237341353284202
0.2155345,-0.25124876242849126,0.03300777937579708,-0.6042865103121015,-0.03791203528858417,-0.021885684035715416,0.06303065961511521,-0.34524460660977335,-0.03883172062420292
0.216,-0.25795988604105236,0.03543645519653156,-0.6096122160504178,-0.038514350577392394,-0.03809374605978339,0.07328546212524031,-0.3289763585443167,-0.03461939653564563
0.2164655,-0.23216577873213293,0.04021611197476464,-0.5997718590404658,-0.0391089,-0.043109197834332924,0.08419996324866973,-0.31491490595719235,-0.03172157549553921
0.216931,-0.15520786089227287,0.05764353049538319,-0.5835405695046169,-0.04029179253241218,-0.05351160146067916,0.0940511596353949,-0.2968020907824287,-0.029573484334484777
0.2173966,-0.036662005981974374,0.08645788926815422,-0.5662920926332246,-0.0404433908571686,-0.06420963871144397,0.08858830755500886,-0.28415492276415366,-0.029124482463695294
0.2178621,0.1421889820697704,0.1176759912508148,-0.5372642472106669,-0.03902617172091843,-0.07234664214324565,0.08030093856848644,-0.26937488432215956,-0.028061823104655593
0.2183276,0.303294589151957,0.12151326070605722,-0.5087628902954042,-0.037685078006219556,-0.0768826436306513,0.08511498726130258,-0.2680011853374797,-0.027749114662520294
0.2187931,0.4333518769514022,0.11761561827695624,-0.4696950673973071,-0.03650959522835844,-0.07216906413329692,0.0873266515708048,-0.2600956713593387,-0.02842192328258701
0.2192586,0.5698360600335706,0.1103475599110848,-0.4423489302413426,-0.035731065999274204,-0.07244853915133868,0.0832711830404657,-0.2616314941976108,-0.030055417000362898
0.2197241,0.655932001203551,0.10966801061410951,-0.41346821451086335,-0.035732479828946416,-0.062449692629273905,0.07628400923025888,-0.25001285115550287,-0.031032679828946415
0.2201897,0.6540118288972018,0.11279286955282086,-0.39424234154996246,-0.03639245726527756,-0.04792124700069969,0.07573084273472244,-0.2326942347131564,-0.0310521
0.2206552,0.5621539490041958,0.12218591114073168,-0.38251015366914637,-0.035193511847902446,-0.025336951884134318,0.07354787073382928,-0.2098174741570551,-0.030437205923951223
0.2211207,0.4089818759248699,0.13924398397935261,-0.37617529394738347,-0.033767959904222516,0.001702368198768331,0.06752604275116571,-0.17997935763940362,-0.02903117557683944
0.2215862,0.2433000878452729,0.15761090845830805,-0.36923662457634104,-0.03402362955219461,0.014975677313167672,0.05666275153999049,-0.14699003571852046,-0.02918721134341616
0.2220517,0.12788323410035335,0.15146083361420512,-0.36263774786466313,-0.0337377,0.01275149857272238,0.03555260093881911,-0.12368859144749339,-0.030831020387610868
0.2225172,0.06502834655948805,0.12590426537143193,-0.35745223398674886,-0.033416805878732456,0.011495171891983576,0.011858086926115112,-0.10742574202135116,-0.03405315529085921
0.2229828,0.01859921331607648,0.08413710841647384,-0.34972385329195754,-0.03436158208532052,0.016382083417327956,-0.0018451317583774622,-0.08950830841647384,-0.036087836507480285
0.2234483,-0.013157341379921804,0.06078035113371786,-0.34279225264534163,-0.036584849622094046,0.03084175379979406,0.0006399384858278719,-0.07570829332684653,-0.03688823969767524
0.2239138,-0.05380914181082735,0.05647534173744669,-0.33051418658037734,-0.03806082637709222,0.05711367913127665,0.008777737806540894,-0.059838834214965365,-0.03822472086872335
0.2243793,-0.0778937785687595,0.05803759599264447,-0.31996908670082597,-0.03780045066789259,0.05633255200367777,0.012292771099724695,-0.04864267871938129,-0.039005847996322236
0.2248448,-0.09079563027677183,0.052440401920813354,-0.30430485545360675,-0.0354133459255803,0.03536887486800163,0.013070194313600245,-0.032735755019224516,-0.03942259431360025
0.2253103,-0.08417160283219287,0.04088153649607473,-0.2867989095045553,-0.03358050999836219,0.02739584601696108,0.01058631037381983,-0.01771195780687735,-0.04034906113287715
0.2257759,-0.0677368448624442,0.024030846760095266,-0.25857084218700443,-0.03433329922221128,0.03695462929992592,0.007369866145118339,0.0009224650433910955,-0.03963769621376542
0.2262414,-0.05264584558846135,0.014049847887127778,-0.2417923893304636,-0.03712905415819901,0.04869044629400831,0.00635599594123483,0.009341424153723346,-0.03873789418113609
0.2267069,-0.01922986762778251,-0.0024186572447963918,-0.21316110712409966,-0.03929384154608529,0.06374198369849733,0.002416468537272654,0.02554767415262582,-0.037951041546085286
0.2271724,0.009965238469533174,-0.013010586004742097,-0.19144083287186586,-0.0379895650363345,0.07678126223713763,-0.004197757336494731,0.03883232379654371,-0.036787058740916374
0.2276379,0.034220936913746065,-0.022403601494670185,-0.16856507066261534,-0.036324315702533666,0.09473890326545964,-0.009036695611716997,0.05205951485582957,-0.03697050448643819
0.2281034,0.04670161106555966,-0.029209785879179346,-0.1491947321542763,-0.03463023777957048,0.10893166859124495,-0.008466759016727832,0.06128348982840231,-0.0371802543219836
0.228569,0.04549137176121609,-0.033899008609333606,-0.12713699283311453,-0.03170858584870164,0.11668279561780864,-0.0013493044460041702,0.06825727607959463,-0.0357519
0.2290345,0.04096667507031456,-0.035444403910877165,-0.1149330092186116,-0.02938383310026319,0.12310913205222936,0.002871382260423659,0.07174723205222935,-0.03426558505570177
0.2295,0.02508211618056872,-0.039022435925147834,-0.09226041368116772,-0.02933522144774071,0.10675766604638375,0.004119442895481424,0.07531621447740712,-0.03556000723870356
0.2299655,0.003507235077654815,-0.043457487675814546,-0.06607249471434266,-0.031285363072112576,0.07265557292932122,0.004327513203295496,0.07683792614422515,-0.04049472306317879
0.230431,-0.019488199023307937,-0.0478455748063814,-0.0345401015738901,-0.03292789929394996,0.06094934662379662,0.007427381176318142,0.08135451893253387,-0.04609158351217229
0.2308966,-0.03717208314664283,-0.050797011462345325,-0.003821473989299542,-0.03313489955036876,0.07964666426863336,0.009750946910738818,0.08694294404629326,-0.04879489623629195
0.2313621,-0.05875009407814031,-0.05098063240232461,0.04661366644290238,-0.036561988938489005,0.11107214191177855,0.007718205921859686,0.09530674723771217,-0.05039457944139476
0.2318276,-0.06380436583576869,-0.04825495671738011,0.07909530138452803,-0.03968890364735544,0.12888170387722192,0.004786625173732135,0.10071745774415222,-0.04872656663267431
0.2322931,-0.0639506,-0.04491850384067297,0.10787250911128989,-0.04066780804345283,0.1436118405701292,0.002776821843294196,0.10413159615932703,-0.04675332184329419
0.2327586,-0.06351064198736744,-0.04711948598801978,0.13566826275047722,-0.04166722866267326,0.15725626147305158,0.0013445951164356544,0.10603648110445543,-0.04473454267465348
0.2332241,-0.06157196864910442,-0.06855151866539697,0.16086646459220177,-0.03569340347669632,0.15810105739555827,-0.002637539188619475,0.10640208432455221,-0.04248867017451604
0.2336897,-0.05870488649999247,-0.10036324625044554,0.17474087901190558,-0.02114723827997131,0.14376416822883878,-0.005599657055556392,0.10453383435184209,-0.042512385888887214
0.2341552,-0.05604067603129776,-0.1279144465935,0.18414203223298675,-0.009505432865151438,0.1305982143466108,-0.008457294517002036,0.10042627058113614,-0.04453054797024082
0.2346207,-0.050979760736614116,-0.1358414311489821,0.19863141788017488,-0.002120582255339698,0.12359313435775166,-0.006458004362598432,0.09451978243635163,-0.04079569127480314
0.2350862,-0.044103500280764006,-0.12113754586854465,0.21730941509785048,0.0013559120521103424,0.11726819145632529,-0.0011004914108424147,0.08872512660976478,-0.027951938988122007
0.2355517,-0.0348020382998216,-0.09515137611462621,0.24013398165429561,0.004814839320976212,0.10212470188894733,-0.0003065408271478206,0.08089378203707137,-0.017383335389719645
0.2360172,-0.028060900065279053,-0.08310339346681907,0.25877971587998133,0.006822850670765349,0.08476978937694792,-0.00962940793999068,0.07486974798770396,-0.01924796008284483
0.2364828,-0.015974579366303518,-0.07827830202180518,0.29323643348216455,0.007675557634232253,0.0639276902958631,-0.030656774526310677,0.059095829517299664,-0.02789400950504128
0.2369483,-0.007820879987337293,-0.07751981414558339,0.3141819489337306,0.007687774822288426,0.05720742931255568,-0.0445099055160641,0.045970857923080914,-0.032760505516064096
0.2374138,0.0014166330781200747,-0.07288815353750394,0.3324983591591075,0.010892088192966042,0.06489425437516459,-0.042552968349325856,0.03457157007656398,-0.03331538503828199
0.2378793,0.008133237808040676,-0.06785202212900897,0.34360946466305475,0.012418340285906096,0.07830219317307612,-0.00868509437965084,0.03314749677501136,-0.03243115236300254
0.2383448,0.012281870427376653,-0.06694454736276348,0.3473692015935622,-0.0008053489497588462,0.08971085563778156,0.03604215795139395,0.036129287850924854,-0.03269044190171104
0.2388103,0.019160530855401068,-0.06843722813713023,0.34884237583648586,-0.05096051825119471,0.104840937547288,0.08914624304238147,0.03792745798448932,-0.03391843444864782
0.2392759,0.02934111990241201,-0.06931752708610195,0.35474769737285416,-0.12682833189580864,0.11933710552583952,0.10052817071295198,0.029921949868822392,-0.03531586534127161
0.2397414,0.03465758760096822,-0.06833442099977995,0.36077481349156015,-0.15295305038413254,0.12262248020083619,0.09169583099757944,0.022766633398811725,-0.03674116050976016
0.2402069,0.04036557647359044,-0.06555926425548261,0.36827763761883614,-0.11805887780509852,0.13612427157694243,0.04816222591033806,0.01989979125912442,-0.035691736406430266
0.2406724,0.05258112603675683,-0.062227762682330705,0.3731922413999055,-0.06411520613826587,0.15194161575146362,-0.023426009329417328,0.01969539542491428,-0.03195152312938581
0.2411379,0.05941709233756836,-0.06116460078480078,0.3728747546107046,-0.0451200092320332,0.15204476050733448,-0.042111355395505375,0.021517694691970703,-0.0280182500981001
0.2416034,0.06655263910413886,-0.059604643908004525,0.3674873180688163,-0.03984561698785662,0.1406240649192335,-0.030847036137632584,0.02496958448334971,-0.026370443908004523
0.242069,0.07178754336920505,-0.05867742175837558,0.3586342436642973,-0.028265308939424003,0.1307930556896018,-0.024958904469712002,0.026524630402707368,-0.027564404322165895
0.2425345,0.07630440693342909,-0.05758904826664273,0.34778328100340805,-0.005896294692025697,0.12083433439978458,-0.041008971676356976,0.026522990546264176,-0.0276951
0.243,0.08119608790967565,-0.056612047131183195,0.3363738082619748,0.012814951408148104,0.10023730464190476,-0.10401559816461006,0.028327460724014007,-0.023104609972760773
0.2434655,0.09168141141179172,-0.05373059651623032,0.3137891826981335,0.005886139960023959,0.058363485593200815,-0.20598954887956045,0.031223124238374155,-0.018681668422306116
0.243931,0.10066671144389665,-0.04930778650692961,0.29364612373543014,-0.0167499648206732,0.021877032527630135,-0.2901521985498402,0.03242147566204693,-0.017360360119802794
0.2443966,0.10907780412789163,-0.045601516068873735,0.2719588235412262,-0.026507666198382376,-0.0037790559813244253,-0.2997158747515702,0.03516525199377481,-0.0203945454018617
0.2448621,0.11524604733697097,-0.043383211449671014,0.2560143009283329,-0.020742592738863908,-0.01471609696660496,-0.2649120121511969,0.03748943931748611,-0.02332856832282436
0.2453276,0.12455051327634734,-0.04252539190883234,0.2340838555838219,-0.0019228113105538517,-0.021146918774925163,-0.20223295071086553,0.040825640455838336,-0.026114332364670662
0.2457931,0.13494556226956753,-0.04119093237093256,0.20822995190342378,0.011147395285316126,-0.03567714897130357,-0.13662821133070688,0.04367303525813488,-0.0295397190726686
0.2462586,0.14404192667618995,-0.03762443728007077,0.17578838525866713,0.010636236507258956,-0.07808900290112056,-0.08525420940261139,0.0438087,-0.030345420494532586
0.2467241,0.15182953276760763,-0.0334700947508792,0.14907940379136062,0.004177083828343315,-0.13249277372714427,-0.06445592363466948,0.04350406113468301,-0.02916214453873206
0.2471897,0.15803217928750074,-0.025864956414329322,0.14604798371346797,-0.003655567241033606,-0.1718318137347641,-0.0157999189777267,0.041666523701838515,-0.027103916724103363
0.2476552,0.16737116854540832,-0.016797199854298055,0.15733314965777698,-0.005454138802838425,-0.1632758160029363,0.11856753873978469,0.04153886049312103,-0.025935554400195755
0.2481207,0.16837268189099663,-0.005930405325550916,0.17083793288953744,-0.00276828388807822,-0.14255492594882668,0.26477756684248166,0.05015666511338098,-0.02456363296378896
0.2485862,0.17081891689089124,0.013375317067741416,0.15010012537614745,-0.0010221025909239799,-0.11192730536123992,0.2954125480817497,0.05564421170904327,-0.021047874803244496
0.2490517,0.16330116062098748,0.02893530540644774,0.10651300729224213,0.006032999916354866,-0.08382727827461395,0.1600416135659169,0.06713009991635487,-0.022690712330823835
0.2495172,0.1612554308461989,0.03874183873902404,0.09045214997912117,-0.001900454985384821,-0.08400266382907826,-0.0030262550858784496,0.05344424176783682,-0.019788765098405745
0.2499828,0.16682166692068937,0.04935594154049827,0.06653343452837995,-0.0010766553862070916,-0.12790992705783277,-0.10770769885456993,0.06280016846984783,-0.020350766158621275
0.2504483,0.1630701758534347,0.04226322502407491,0.03395111210354721,-0.0007156431849016701,-0.18859901894203673,-0.21285757230762573,0.06223679655049067,-0.02313651379803731
0.2509138,0.15875493612135855,0.03286057655710351,0.008495205817211703,0.0014647896653871974,-0.21925295742342052,-0.24451469491971844,0.0616207419147781,-0.02559500412999095
0.2513793,0.15385554610424582,0.027800754586288074,-0.01548864229526667,0.004275632057586931,-0.22133616005039491,-0.20663133109299317,0.06098624843164735,-0.024605655514361738
0.2518448,0.14245520272793716,0.029860981696722272,-0.03927312273906706,0.006980955141995186,-0.19239525685311692,-0.047738893689654664,0.058632823364645634,-0.019377110122735804
0.2523103,0.1398292628111479,0.02883593859426712,-0.04288865436744104,0.011292365517284004,-0.17660095509019808,0.14894615577285608,0.055983898815189594,-0.015516581164919826
0.2527759,0.1335220739760136,0.01931196707092501,-0.05456817431765577,0.005250897335151988,-0.19500244488100807,0.1895650149793986,0.05290952014956266,-0.008288063113535983
0.2532414,0.13020163286602277,0.009469343183630618,-0.061419527651178904,0.0024867965897012977,-0.19743171912966018,0.03204944071130654,0.05464229772646753,-0.01022802802842424
0.2537069,0.12265659672047205,0.008743287893851337,-0.0732844325774784,-0.000617094541261302,-0.1811067664585494,-0.09352825506510665,0.0583917739815775,-0.014840981164985263
0.2541724,0.1195452550037625,0.018287926474794953,-0.07760822175131506,-0.0031971224689843615,-0.1734050281837753,-0.11007890941967502,0.061887247638260055,-0.02211936808405584
0.2546379,0.11571277095975037,0.028583264129733933,-0.08412997931372858,-0.001477235753354135,-0.18173065363003119,-0.07909350898977666,0.06207191452012481,-0.025751748529729012
0.2551034,0.1120663373302532,0.033912320385395885,-0.09226436946487877,0.002683696358248045,-0.18605807571788338,-0.059144326866491584,0.06059235587461484,-0.023368154060458283
0.255569,0.10596796350743393,0.03584745578890026,-0.10156598070366582,0.003828648070366582,-0.17306601174301223,-0.03533280121526284,0.06124907403518329,-0.0213162202585223
0.2560345,0.10293359275173247,0.03282449047763701,-0.10304995672919415,0.0020217740451395497,-0.14000350792453362,-0.01009908117682358,0.06311557769551483,-0.020864836022538337
0.2565,0.10500430159288207,0.0437155284521748,-0.10567570159288207,0.0027723215142746336,-0.10203528039534394,0.010372157288187234,0.06444543844642166,-0.02134872768928433
0.2569655,0.10590810097292333,0.06361946856126796,-0.1062486,0.004503105837539974,-0.08205453533042535,0.015883312648003276,0.06478260217416412,-0.02032419708123001
0.257431,0.10000572685377139,0.07110129593183626,-0.10065233070357289,0.005153707699603012,-0.08702796544662561,8.969627372157536e-05,0.06587800978110447,-0.021553415399206025
0.2578966,0.08850860763701361,0.05232136075828699,-0.08491648929279247,0.004493193867001568,-0.10466016169799423,-0.030522128792967076,0.06811437146549451,-0.024070138615241522
0.2583621,0.07551879255656714,0.03399236634162612,-0.059037057453322744,0.0034419870544715853,-0.10948529644467865,-0.04138132491593519,0.07049620517821137,-0.02524017070839248
0.2588276,0.06649452120281851,0.029616987377009928,-0.0431252184676477,0.0016108183317099704,-0.09458649167529844,-0.037381038090599915,0.07193571547735002,-0.0251774
0.2592931,0.056366910688028043,0.026631358877095977,-0.016536040283178215,0.0005965196256986592,-0.0944370869162009,-0.02551634859218302,0.07170260654189956,-0.02563439480534279
0.2597586,0.05004990779558823,0.012686184005904778,0.015039782354192089,0.00120157207316881,-0.13369211845164544,-0.016080893030268117,0.07108021621950643,-0.025640895862852262
0.2602241,0.04187892848542721,-0.0069909841323728215,0.05943210183110601,0.0029986476771349363,-0.18255926896382674,-0.011282966433639633,0.07431601507373374,-0.0256809
0.2606897,0.03038429943030817,-0.01708578157378753,0.09939514256932397,0.0022502945705913137,-0.1879034029558468,-0.012171051397542581,0.07836618938935118,-0.0256809
0.2611552,0.017419371069555857,-0.025195317361498784,0.13340639405741178,0.00029447537242185604,-0.15608182188941697,-0.013196762313789072,0.0788785468635228,-0.026939249751718762
0.2616207,0.007131427573605952,-0.03844132414690312,0.16713178392115166,0.0001678,-0.11252244276322455,-0.01572221937533506,0.0772943354684987,-0.028072886444309456
0.2620862,-0.0018135226181375964,-0.046365841982255615,0.20443571262017923,-0.0012462793518683154,-0.09023205639073459,-0.02634963490200126,0.07210633361130703,-0.029195823774638616
0.2625517,-0.012519917070175728,-0.06949269658222562,0.26707954594442224,0.00014277877645690784,-0.0980188211243488,-0.017984923708272343,0.07551551752781843,-0.02700701752781844
0.2630172,-0.023651281315302617,-0.07577018028440712,0.3388733598871253,-0.0009329116164718022,-0.1322305509806093,-0.019072422079119977,0.07477879884617637,-0.0263991558082359
0.2634828,-0.03462189050191749,-0.06788584768695242,0.41866448552629526,-0.0022777848445219347,-0.15346009659026394,-0.02102835572278363,0.07320687577739032,-0.027143438188869915
0.2639483,-0.04262850453594106,-0.059207468609580254,0.4785921965463711,-0.0031457686095802575,-0.16073506956349642,-0.02246493238684522,0.0716823210257379,-0.027759860534123607
0.2644138,-0.047798832791432586,-0.05536370443137402,0.520772056091139,-0.0028651753692811688,-0.1626960463071883,-0.02425567592273789,0.07038767684640584,-0.027880661300068717
0.2648793,-0.04575529773513595,-0.059467078558320084,0.5822758001989471,-0.0027884607771264175,-0.16990376357351358,-0.02564843038856321,0.06944901056765132,-0.02330953911030066
0.2653448,-0.04132200837651429,-0.07249695996505995,0.6365075138114625,-0.0010431543532772522,-0.1819385198971921,-0.02514874001131131,0.06870997429056198,-0.01622172570943801
0.2658103,-0.04112542107570134,-0.09125466498759904,0.6814547389526548,0.0026887609742932755,-0.19181752019790793,-0.02546323049205484,0.06873583048714664,-0.01260690940162889
0.2662759,-0.04389149872615063,-0.10841088781424704,0.7117894760607091,0.006947190018784847,-0.19954692266544152,-0.027477102592225782,0.07004974197408594,-0.015980515553354696
0.2667414,-0.037402314472511744,-0.12074405834391432,0.7374448776622394,0.011895718122382626,-0.15999908633939203,-0.028459331160340374,0.07329289348102112,-0.02154896407434508
0.2672069,-0.024521916760711394,-0.12752186773095223,0.7581672331332139,0.01599747804984996,-0.07911999893200582,-0.029051707754168193,0.07499753358140233,-0.022898647777384176
0.2676724,-0.0176807297703834,-0.1337509253386097,0.7730856462949214,0.0183634929577113,-0.0007240877634410263,-0.02949468470882214,0.07325527968510623,-0.018103184314193995
0.2681379,-0.02621653625654734,-0.1422979246674822,0.7621381333666608,0.016088719321988222,0.03988147179578278,-0.025144110075943547,0.06644101198697,-0.013510988445024021
0.2686034,-0.033486322252254674,-0.14639368474380804,0.7463956559116306,0.014379862491553373,0.0602142607437739,-0.021045180754240386,0.06249741014305473,-0.010364488873872663
0.269069,-0.040368071264124936,-0.1601708327371733,0.6962360573873898,0.009818944572347272,0.05058483861258009,-0.010280219349104284,0.05748814457234727,-0.0031048128994028553
0.2695345,-0.04143322639012775,-0.19856922927106585,0.628597878290846,0.0020987930270615677,0.016888483584912017,-0.0008327138566782937,0.04961297602300009,-0.002026982995938523
0.27,-0.04024826909671257,-0.2574224125397463,0.5584942245473188,-0.008173557076544916,-0.005403837028666175,0.0010426407535329358,0.03796595058237949,-0.005948425435684133
0.2704655,-0.05657316033618463,-0.30678597568924626,0.46142765000394553,-0.02317563805815001,-0.008740498059884607,-0.005614803453177012,0.01809830616346919,-0.011841626817219475
0.270931,-0.07441497734091407,-0.3106457916736868,0.412334697816336,-0.030089252146310915,-0.00199117382139665,-0.013039074853971933,0.007712955336419135,-0.016111799789104216
0.2713966,-0.1115749717146909,-0.29422739849462826,0.31857181302338583,-0.03558778433245358,0.01973034291891264,-0.02522832089006189,-0.006277520503958879,-0.03207161528144341
0.2718621,-0.13177629796249862,-0.2493353580830058,0.258248159838854,-0.03390432654855712,0.041334634232775655,-0.027472931268590507,-0.013853080531492963,-0.03908602271434533
0.2723276,-0.14293179282020937,-0.14371318648230477,0.18464963559560588,-0.027503154178082034,0.0728724508610183,-0.02053924759531581,-0.017476429959481114,-0.034273818745717256
0.2727931,-0.14643334527675314,-0.06944225500825817,0.1264671117300165,-0.024932428339481255,0.08707530986416984,-0.0209812,-0.02670456752099017,-0.026632911402209386
0.2732586,-0.1433351917035046,-0.028133828257878968,0.043100681045611745,-0.02343665555192837,0.07949730252574354,-0.03859855535052931,-0.03577012264536043,-0.02062780386773198
0.2737241,-0.14362134486287736,-0.029139703278401558,-0.0013350715389153882,-0.02326563482781807,0.06375279139280723,-0.054075636806132144,-0.039339503111291155,-0.02013595304740163
0.2741897,-0.15136745786362907,0.0030026756037880072,-0.0663354943503973,-0.01968104381378821,0.06308180067096691,-0.06208140178924512,-0.0419657005591391,-0.020244000223655637
0.2746552,-0.1654055492380055,0.06315246769479275,-0.13497090845146956,-0.012974592301662093,0.08631566769479276,-0.0448552153845424,-0.042884427693111724,-0.019472744613776558
0.2751207,-0.1715807125544993,0.08461405642554341,-0.18671575711397,-0.008077385902381693,0.11146495100254922,-0.022393575911085727,-0.04338519743679667,-0.018383402563203328
0.2755862,-0.1785253074607925,0.07363699337491732,-0.23080979457262826,-0.004709213219886786,0.12594040692652664,-0.014573843764845332,-0.04265200986427927,-0.019151781955629384
0.2760517,-0.19821440133680884,0.0548855684943629,-0.272844307726519,-0.001896485523313025,0.12390894593069915,-0.025980970652648032,-0.039995498269213156,-0.022433251053330105
0.2765172,-0.2277557735100253,0.02951937951979329,-0.3184873457321682,0.0003948883455975684,0.11823492749782058,-0.046563429160940674,-0.037983336251089704,-0.024219636251089707
0.2769828,-0.24079383257408768,0.0017689870125297252,-0.347530917318639,-0.0005448188162913639,0.11348735413417325,-0.056574894385725605,-0.039653718816291365,-0.02578229185647808
0.2774483,-0.24002574430821508,-0.026217837365353033,-0.3663823281283592,-0.003935508220654582,0.10249847757036856,-0.05910286554581031,-0.04283936019847648,-0.026856108861643017
0.2779138,-0.23192587667959932,-0.058643632314773826,-0.3787072009337377,-0.005117317298899626,0.07358171771092484,-0.06779835978920012,-0.044226217298899625,-0.027999280830100167
0.2783793,-0.2163448708271179,-0.11302508812379107,-0.39049860120734553,-0.005479880684958031,0.01721238108854032,-0.07853955634191542,-0.047117063179005034,-0.02516467847182943
0.2788448,-0.20091074726543184,-0.14810430902250923,-0.38912295517231654,-0.004160436503035287,-0.010246901115624596,-0.06697110048659663,-0.04986419143205347,-0.018712602300082246
0.2793103,-0.18007871641972728,-0.17217498465461356,-0.3831154083655734,-0.004351335147248479,-0.0095674,-0.03959585087409561,-0.05230710107434085,-0.012788964159871356
0.2797759,-0.13612457372024708,-0.20099104532188744,-0.3666998656994591,-0.003195299249860345,-0.027784184123266227,-0.013142414149711812,-0.05679121581483326,-0.008412886142936947
0.2802414,-0.10762922255819708,-0.20711624836805165,-0.3531179730582346,-0.0013311070184190655,-0.05867643319930266,-0.012476591544558968,-0.06091910970694848,-0.009478138846617678
0.2807069,-0.08281569462221584,-0.16724190493333874,-0.3219549738622147,0.004615675057795662,-0.08455017923999886,-0.020888226805886662,-0.06498467053777841,-0.013571692906681997
0.2811724,-0.08280986658549874,-0.11701759157968059,-0.2936871597529057,0.011516643886800338,-0.05255799423170264,-0.022308422680745957,-0.0648068507373458,-0.01960264375581307
0.2816379,-0.09730390201758482,-0.04129262559762791,-0.2341232835146332,0.022148702106993396,0.004794215908126723,-0.025394476524657986,-0.0615353827868146,-0.03719262343063772
0.2821034,-0.11561467526608647,-0.018373914654769,-0.20002596486975235,0.025299651506411974,0.007265252661390364,-0.029328710079144536,-0.05905692661390364,-0.04753309886716616
0.282569,-0.14569904729792216,0.00499622897351211,-0.17239578194563013,0.024749703950190927,-0.05271780625583029,-0.03172640062660069,-0.05240250423747466,-0.04716995833130746
0.2830345,-0.15956076760396057,0.02295309111006422,-0.16978096335929654,0.023646851248049126,-0.0915393816596665,-0.03114772572638206,-0.047842177454966044,-0.04164203982205155
0.2835,-0.17761865897219878,0.05626911090295363,-0.16698128381396823,0.02154713328818226,-0.06970196460436444,-0.024708462772126953,-0.04602234405137327,-0.03618262300953199
0.2839655,-0.1965453308790757,0.07937394760110703,-0.1525275984157664,0.015717129204411383,0.01816224685692751,-0.012508221424203114,-0.0447913071715446,-0.03337360805668384
0.284431,-0.20611763474848982,0.0772441115328401,-0.11810337618447198,0.004061545368979152,0.17899215431854834,-0.003407752427034636,-0.040569289908764926,-0.0323607655514493
0.2848966,-0.20563975061680975,0.07433268344642655,-0.05231724964146878,-0.007705780242873581,0.3543938660837468,-0.0025726241942988647,-0.031793762253758316,-0.0328312724359135
0.2853621,-0.19993470500233018,0.08864103835141092,-0.006043614116054211,-0.015727751726066237,0.4489877359978344,-0.005593599595600601,-0.02590740351953237,-0.031287700741398895
0.2858276,-0.1894209865039528,0.1235897635353343,0.03298154835812293,-0.013712763051157113,0.3407280249296561,-0.007378210440925691,-0.022332809065466055,-0.027875556353833892
0.2862931,-0.17292400730757546,0.17327039688783394,0.06451844511133217,-0.0019249819335507923,0.08204836253604418,-0.007569781970078028,-0.021006072955117038,-0.0256809
0.2867586,-0.15382436237022887,0.21408944826786827,0.07103946530964077,0.008484645568758978,-0.06571488695234652,-0.008125170811945097,-0.022194804496847464,-0.025841516380704074
0.2872241,-0.1380215577354976,0.23080830509432904,0.061918188345863566,0.012405185525448274,-0.05938352446742564,-0.006985894326094587,-0.02415594268136948,-0.02660992925542906
0.2876897,-0.12910294267281447,0.20935127739449497,0.0286750821465981,0.013888222605505042,-0.05005342998551304,-0.0037533189956539138,-0.02586332140859226,-0.02895983940318713
0.2881552,-0.1153193370190076,0.17542455637979598,-0.04254506648004862,0.024916141754066434,-0.10093622225334667,-0.000561912386312988,-0.0279514246560165,-0.03493405523676581
0.2886207,-0.11247853998034403,0.155503160306853,-0.14032093006278923,0.022306521578488277,-0.14509349027045196,-0.012807849325325589,-0.03437514412175889,-0.03612542687942446
0.2890862,-0.11284325937937037,0.13799699894393724,-0.24213691937883672,0.0184144782609994,-0.1371104402171829,-0.020229338198093947,-0.033777879471339596,-0.03645472652170018
0.2895517,-0.08247643585872293,0.13637972848753718,-0.41872614757522253,0.006588480209275053,-0.12313369971201833,-0.017933612001935335,-0.03061454287656958,-0.03395387178916811
0.2900172,-0.07068695370148703,0.12118309044274139,-0.6440283212939821,0.007158915798487576,-0.1309087858838745,-0.014137086281922081,-0.02411804228358117,-0.029863489711441562
0.2904828,-0.019060721484859454,0.06412253004338,-0.9111164258940987,-0.0012531217140415406,-0.10776637452920405,-0.008096594196717015,-0.016715214654611378,-0.02838410467127122
0.2909483,-0.013467003580162767,0.05396384734099244,-1.1569506863011962,-0.00022507719879378846,-0.0932483309066376,-0.004636186077704141,-0.01376718836627105,-0.02607945241624795
0.2914138,-0.026148479722471685,0.038833126156779654,-1.3316291802456715,0.00405061098970944,-0.08018226176089588,-0.002532258901029056,-0.014223898103517924,-0.029344107391336798
0.2918793,-0.018379464528837566,0.02647386753266684,-1.4521153657255976,0.00037519443649076126,-0.06732051403034883,-0.003141838213030657,-0.008426191675462262,-0.03190581285274896
0.2923448,-0.012065742318810581,0.016835270853446348,-1.540830731283428,-2.2577344371257826e-06,-0.0643744406384556,-0.004907842068271568,-0.00274508520063579,-0.032954910986479465
0.2928103,-0.004550034178642808,0.016950171381128393,-1.5793950291256151,0.0018790170422483086,-0.061421665639889836,-0.007361288698990246,0.0015381485223245756,-0.03261960577889703
0.2932759,0.00917389836082127,0.031238162032663597,-1.6012031729084966,0.005586199873909328,-0.0540422337956658,-0.009087497593598795,0.006063499495637314,-0.03166056683478757
0.2937414,0.022043068817310964,0.04902493396058545,-1.5884626993429225,0.006471724459670316,-0.05051330305745879,-0.009595290827623632,0.009996069425412105,-0.030306324459670315
0.2942069,0.034605542667130125,0.060241463472917166,-1.5594492502016963,0.004078855326374738,-0.050214194415796845,-0.010492616752609474,0.012987155842031578,-0.02791345532637474
0.2946724,0.048295043862739175,0.06275824200305034,-1.5161856954427981,-0.0021123790493176647,-0.0512322138835771,-0.0105745,0.01714252920793089,-0.02381267079206911
0.2951379,0.06520568702784266,0.05590602677890545,-1.4602852475872474,-0.011170413806748101,-0.05040224456075983,-0.0105745,0.020823051464133883,-0.01949247353203142
0.2956034,0.0832942659109213,0.044335210600400445,-1.3993453428968707,-0.01884353323565562,-0.044578213034794374,-0.009584236376956053,0.022631541043508053,-0.01633190913086816
0.296069,0.09968661692692184,0.03724365747958527,-1.3429420290838687,-0.028442508463460917,-0.036691579864634186,-0.008539552320264666,0.02330676789392282,-0.015523511451920094
0.2965345,0.12814990442394433,0.023816809942449446,-1.2514654217799812,-0.043556843050101386,-0.026779841419921083,-0.007930369720623597,0.024549390838129213,-0.01640975139688202
0.297,0.16029585741287192,-0.00990591795136083,-1.1475764497574708,-0.05701695245307676,-0.017730909433654053,-0.009419930188781983,0.024709933260757325,-0.02625181924596108
0.2974655,0.1748009989474856,-0.04135624431728669,-1.0822356729648765,-0.060270451200733356,-0.013664035999083302,-0.010775554666972232,0.02376095574400216,-0.035198940802016736
0.297931,0.18153616654681698,-0.07239643456815802,-1.0000184877189167,-0.05738480343064369,-0.009409544116772429,-0.008984922058386214,0.021901909679474963,-0.03769199828467815
0.2983966,0.17968418781282963,-0.0859291927398447,-0.9102955863174027,-0.050078092610775275,-0.0058417731634496034,-0.004821470658216801,0.020079312144147224,-0.030057863268992076
0.2988621,0.17898856552846368,-0.0901030922282817,-0.8454600582527566,-0.04632154991473372,-0.005563507671479094,-0.003012703514848176,0.018131453700353666,-0.024492553429581898
0.2993276,0.1850889792867507,-0.10152490443289966,-0.756572139410518,-0.04325863395281643,-0.006392981394868878,-0.0018156762789737755,0.01581809964199946,-0.02456777942808796
0.2997931,0.19197243782219145,-0.10424875684901895,-0.7043150439508528,-0.04115376625807516,-0.005539,-0.0016807994171047704,0.014148948105590503,-0.026640751311514266
0.3002586,0.20399432825515565,-0.0718731094723038,-0.6155992855340253,-0.036768601933284975,-0.0018559019332849785,-0.0008967503222141631,0.011907667671933618,-0.03147415587810265
0.3007241,0.2101656914691726,-0.0027305110349144946,-0.5574041881099006,-0.034160519537365035,0.0013240207752201797,-0.0010816984695565975,0.011022135265285697,-0.03445873145584132
0.3011897,0.21451696809348134,0.11987541746652,-0.4535313031759816,-0.030646520233703366,0.00788670057358268,-0.0024253478597779806,0.009659752140222019,-0.041416042596953015
0.3016552,0.21247514273979906,0.17120837773652506,-0.3781311009278895,-0.02686830329243241,0.014048380759188761,-0.003920597676735697,0.007182674177747884,-0.045353374758563963
0.3021207,0.2104859914118687,0.17791711424435255,-0.32886460615779506,-0.022627706954433197,0.019882568642217706,-0.00435460320456335,0.003454931085129046,-0.0451988726647408
0.3025862,0.20476053818681386,0.1361587619872838,-0.26180127350064547,-0.019673326555087713,0.02538012655508771,-0.001410187454635001,0.0009678089260385008,-0.039658057057193
0.3030517,0.19829702864172175,0.08999045682241638,-0.2070147416745487,-0.020904488694379258,0.02661128869437926,0.0021293578527339365,-0.0004172026375702332,-0.03534898956967259
0.3035172,0.18978188479635102,0.04179669545378397,-0.14265400604645243,-0.024248420283117463,0.025636170250735196,0.009678543731620071,-0.002069948746324014,-0.03145512150441118
0.3039828,0.18657619587078847,0.02256248550536252,-0.10405724247211688,-0.025658978414798198,0.025379712080888347,0.016089997977791308,-0.003352239595558261,-0.02991637248533009
0.3044483,0.1864411149942701,0.012043339527392966,-0.0497542473024895,-0.028749464822772363,0.0253452,0.018032612244883416,-0.005617774704620603,-0.027320014994270114
0.3049138,0.18575636598315642,0.014234666915675816,-0.013049676739650493,-0.029571212593378433,0.0253452,0.007623807150539874,-0.006987354322297385,-0.026635265983156412
0.3053793,0.17853984809342535,0.01822915033089686,0.031193648440143842,-0.027442938551757765,0.025949575055149478,-0.006212711085852936,-0.009030625165448431,-0.025764686172494854
0.3058448,0.16743776928887247,0.014313588530536044,0.08239593518794928,-0.02100815212909718,0.02877072113750462,-0.012313907677781885,-0.01107419440410642,-0.025100861516672828
0.3063103,0.15619468293666974,0.0002369648372581043,0.14716729667548537,-0.014496029534368219,0.03200513575085659,-0.015743273573875966,-0.010749265285224806,-0.030164443003426352
0.3067759,0.15072498957644606,-0.011819956806498473,0.2054357330711706,-0.011325352986040522,0.03410951499365478,-0.021930682223707188,-0.009495170012690434,-0.038585570398173064
0.3072414,0.15023535449454417,-0.019079796385325584,0.2546969158178172,-0.012497710236411405,0.034775563483632504,-0.02920709763264865,-0.0075121820218233245,-0.045156528774602224
0.3077069,0.15090599204705338,-0.023032046970409486,0.29034011432472173,-0.014920431855101977,0.03577915221734704,-0.0348857584632664,-0.0061740637102039525,-0.04508311411632569
0.3081724,0.1552000064844861,-0.029508492197242407,0.31889964033888135,-0.0142672,0.0370596438175112,-0.03982754651966466,-0.0051682438175112,-0.041251123950067844
0.3086379,0.1624587084536668,-0.035691899131888034,0.3406759064154909,-0.0142672,0.036790800037744,-0.045338803962625414,-0.004899400037743998,-0.03708400532140936
0.3091034,0.17855036618039782,-0.04219948433897173,0.37553490310267723,-0.01629525728058197,0.035686078949204704,-0.058185143547701296,-0.002825685438836058,-0.03114724824497559
0.309569,0.19212889165336774,-0.04539434753288593,0.409081775609468,-0.016934248953969323,0.032650916087126065,-0.07096488184242573,-0.001547702092061358,-0.027792494373180727
0.3100345,0.1896701342423451,-0.04661869864184937,0.45111814426629904,-0.0163311964900141,0.035968202215664526,-0.08389500443669606,-0.0008392,-0.02493481268179297
0.3105,0.18389676214840364,-0.047146011125306996,0.47027392676626,-0.015293888874693006,0.0410231973225889,-0.08991560577048478,-0.0008470355498772025,-0.023713713299263212
0.3109655,0.1641080820643182,-0.04732970650094584,0.486078204277878,-0.016586761045086783,0.05802088934456237,-0.0904631152612717,-0.0008392,-0.02448703702348923
0.311431,0.13018899251546762,-0.04781610879362929,0.4949539874441434,-0.01758241343806169,0.07723506411680142,-0.07856526344804225,0.0002869510856704203,-0.025953922231690983
0.3118966,0.09087000946704088,-0.047837,0.5001320612187486,-0.01702307984765642,0.09458061465710524,-0.0603169450382076,0.001087055424257868,-0.026467484880429295
0.3123621,0.06149216115731437,-0.047546879938777854,0.504030637492845,-0.016372559877555704,0.11203468006417537,-0.045188383667422484,-0.0008558540061358529,-0.025794856635735032
0.3128276,0.04619542176895845,-0.04821645756885542,0.5096336696106928,-0.019076393922138554,0.13130156309333071,-0.027163173373837973,-0.004458745413132527,-0.026177269724578314
0.3132931,0.041656231964888865,-0.04955845918972477,0.5144997207089804,-0.0209672597636732,0.14069482132342448,-0.015301563308575173,-0.006377682835921576,-0.025520589358535586
0.3137586,0.036369057074008136,-0.048156660183700066,0.5172500496023184,-0.0206455,0.1376575337918143,-0.011029750433562245,-0.008453750397681642,-0.023456651157164325
0.3142241,0.030879382353299057,-0.04295600177944116,0.515516468111568,-0.0206455,0.1263893401699296,-0.019553149729088334,-0.010187331888431876,-0.021867577824639176
0.3146897,0.02312217005734644,-0.03842026329714004,0.5118139295854351,-0.022397947672173613,0.10969789665162652,-0.03338830027438069,-0.009654621772952007,-0.021674398947723186
0.3151552,0.0141610009121304,-0.03494827232836694,0.5070421051252528,-0.024538151781088702,0.08847027545451765,-0.03510310803648522,-0.008941216072970432,-0.019147864291881728
0.3156207,0.005735261392358375,-0.03458974367686896,0.5044979238265087,-0.0250095,0.0719678757283629,-0.016312535430978825,-0.008198913739340959,-0.01588971816061781
0.3160862,-0.0014612155721945661,-0.036371400635747966,0.5030685038144878,-0.0250095,0.060332457311101595,0.0019533904637805293,-0.0068039509536219475,-0.017653433687380992
0.3165517,-0.006693454897918037,-0.03577342533772582,0.4994806520263549,-0.0250095,0.05345574138384684,0.010923019934112814,-0.0059069880065887185,-0.025726011146739326
0.3170172,-0.0114695181704007,-0.033612488591555,0.4858904998250758,-0.02688337427229667,0.04828069517858652,0.015697379093710145,-0.006257175242567777,-0.03444220017492418
