Time,Rectus Femoris right,Rectus Femoris left,Hamstrings right,Hamstrings left,TibilaisÂ Anterior right,TibilaisÂ Anterior left,Gastrocnemius right,Gastrocnemius left
0.0,-0.002654387922850272,0.0009885169341641961,-0.0001860448339883261,-0.00037569078349625076,0.007705504145195959,-0.011828433288816055,0.004049302928849458,-0.0009268729743272054
0.0004655,-0.0025274816468587287,0.0010114327573129474,0.00011198265592538506,-0.00036349866299258544,0.00812518911408392,-0.011568571623672357,0.00437410091073118,-0.0008982290588350705
0.000931,-0.002400850659613646,0.0010342734292786598,0.0004101971668552746,-0.0003512703573097486,0.008545263938982896,-0.01130959113878617,0.004698766623409352,-0.0008699687743784873
0.0013966,-0.0022745132238024637,0.0010570345629410474,0.0007085634762966729,-0.00033900500254431895,0.00896567326708075,-0.011051530656544772,0.005023258116540457,-0.0008420981657980358
0.0018621,-0.0021484875382721774,0.00107971177017885,0.0010070463497587627,-0.0003267016891860898,0.009386361569137781,-0.010794428795959224,0.005347533472386272,-0.0008146231694548611
0.0023276,-0.002022791732137278,0.0011023006631590642,0.0013056105511616803,-0.0003143594616001325,0.00980727315465367,-0.01053832396004037,0.005671550818239383,-0.0007875496101204121
0.0027931,-0.0018974438589267112,0.001124796855631985,0.0016042208532163146,-0.0003019773175235875,0.010228352187102416,-0.010283254323250265,0.005995268338818446,-0.0007608831978843096
0.0032586,-0.0017724618907748308,0.0011471959642315103,0.0019028420477804424,-0.00028955420757770267,0.0106495426992273,-0.010029257819035676,0.00631864428862561,-0.0007346295250818799
0.0037241,-0.0016478637126609746,0.001169493609780152,0.0022014389561850057,-0.00027708903479562103,0.011070788608388022,-0.009776372127450078,0.006641637004258522,-0.0007087940632428484
0.0041897,-0.0015236671167019847,0.0011916854185982054,0.0024999764395244725,-0.00026458065416639536,0.011492033731952246,-0.009524634662870323,0.006964204916669368,-0.000683382160062645
0.0046552,-0.0013998897965016486,0.0012137670238165405,0.002798419408905326,-0.00025202787219568936,0.011913221802723787,-0.009274082561813918,0.007286306563363512,-0.00065839903639775
0.0051207,-0.0012765493415607375,0.0012357340666924684,0.0030967328356468113,-0.0002394294464836025,0.012334296484399784,-0.009024752670862661,0.0076079006005303415,-0.0006338497832864788
0.0055862,-0.0011536632317510297,0.0012575821979281614,0.00339488176142813,-0.00022678408532003714,0.012755201387049215,-0.008776681534698188,0.007928945815099057,-0.0006097393589965863
0.0060517,-0.0010312488318564566,0.001279307078991102,0.0036928313083763554,-0.0002140904472980093,0.01317588008260522,-0.008529905384254828,0.008249401136712227,-0.0005860725861010479
0.0065172,-0.0009093233861842772,0.0013009043834360517,0.003990546689089441,-0.00020134714094528503,0.013596276120363822,-0.008284460124995008,0.008569225649610037,-0.0005628541485833435
0.0069828,-0.0007879040132489836,0.0013223697982280307,0.00428799321658881,-0.0001885527243747122,0.014016333042481656,-0.00804038132531228,0.008888378604418327,-0.0005400885889735354
0.0074483,-0.0006670077005314342,0.0013436990250657982,0.0045851363141961475,-0.00017570570495360207,0.014435994399465437,-0.007797704205066808,0.009206819429833516,-0.0005177803055163769
0.0079138,-0.0005466512993155358,0.001364887781705324,0.004881941525329165,-0.00016280453899250342,0.014855203765645968,-0.0075564636242578505,0.009524507744197646,-0.0004959335493726433
0.0083793,-0.0004268515196046148,0.0013859318032827476,0.005178374523211279,-0.00014984763145369713,0.015273904754629518,-0.007316694071837478,0.00984140336695681,-0.0004745524218548175
0.0088448,-0.0003076249251194649,0.0014068268436363226,0.005474401120490297,-0.00013683333567971964,0.015692041034719405,-0.007078429654669353,0.010157466329996475,-0.00045364087169820467
0.0093103,-0.00018898792837990168,0.0014275686766268706,0.0057699872787612665,-0.00012375995314219782,0.016109556344300707,-0.006841704086636058,0.01047265688884742,-0.000433202692368497
0.0097759,-7.095678587151919e-05,0.0014481530974562863,0.006065099117988761,-0.00011062573321125176,0.01652639450718108,-0.006606550677898114,0.0107869355337564,-0.00041324151940675075
0.0102414,4.645240670080134e-05,0.0014685759239836617,0.0063597029258238465,-9.742887294569758e-05,0.01694249944788065,-0.006373002324307588,0.011100263000615887,-0.0003937608278126934
0.0107069,0.00016322371907121554,0.0014888329980386205,0.006653765166811043,-8.416751690426301e-05,0.01735781520686402,-0.006141091496978993,0.011412600281747625,-0.0003747639294672419
0.0111724,0.0002793413909817928,0.0015089201867314707,0.00694725249148054,-7.083975697801216e-05,0.01777228595570756,-0.005910850232020005,0.011723908636535139,-0.0003562539705950879
0.0116379,0.00039478983666079646,0.0015288333837598048,0.0072401317453209355,-5.744363224416027e-05,0.018185856012194926,-0.005682310120424328,0.012034149601900803,-0.0003382339292681891
0.0121034,0.0005095536492093425,0.0015485685107111751,0.007532369977627707,-4.3977128841441994e-05,0.018598469855333945,-0.00545550229812888,0.012343285002623543,-0.00032070661295099007
0.012569,0.0006236176048955198,0.001568121518361471,0.007823934450222591,-3.0438179867177686e-05,0.019010072140287708,-0.0052304574362372494,0.012651276961493665,-0.0003036746560881794
0.0130345,0.0007369666673551437,0.0015874883879686205,0.008114792646039006,-1.6824665296162813e-05,0.019420607713212742,-0.005007205731411167,0.01295808790930169,-0.00028714051773577474
0.0135,0.000849585991698371,0.0016066651325612358,0.008404912277568618,-3.134411921486605e-06,0.019830021625997018,-0.004785776896431615,0.013263680594658335,-0.0002711064792363059
0.0139655,0.0009614609285214353,0.0016256477982218088,0.008694261295164178,1.0634806682632912e-05,0.020238259150890624,-0.004566200150931058,0.013568018093643157,-0.0002555746419388508
0.014431,0.0010725770278227945,0.0016444324653640662,0.00898280789519387,2.4485270175930558e-05,0.02064526579502208,-0.004348504212298219,0.01387106381927936,-0.0002405469249646597
0.0148966,0.001182920042823007,0.001663015250004097,0.009270520528042508,3.841931144504593e-05,0.02105098731479367,-0.004132717286756766,0.014172781530832356,-0.0002260250630190914
0.0153621,0.0012924759336877074,0.0016813923050248787,0.009557367905955245,5.243931657431849e-05,0.021455369730149738,-0.003918867060619188,0.01447313534292954,-0.00021201060425057815
0.0158276,0.0014012308711531213,0.001699559821433841,0.009843319010719588,6.65477247944142e-05,0.02185835933871242,-0.0037069806917171236,0.014772089734498818,-0.00019850490815732555
0.0162931,0.001509171240053621,0.0017175140296131239,0.010128343101181696,8.074702840878318e-05,0.022259902729779815,-0.003497084801009314,0.015069609557523258,-0.00018550914354244997
0.0167586,0.0016162836427508994,0.0017352512005622022,0.010412409720593086,9.503977269795724e-05,0.02265994679818188,-0.0032892054643683223,0.015365660045609334,-0.00017302428651824644
0.0172241,0.0017225549024643707,0.001752767647132553,0.010695488703783904,0.00010942855580170572,0.023058438757989703,-0.0030833682045470945,0.015660206822366293,-0.0001610511185602713
0.0176897,0.0018279720665024361,0.0017700597252540294,0.010977550184159158,0.00012391602857908182,0.02345532615607428,-0.002879597983326387,0.015953215909594393,-0.00014959022461191182
0.0181552,0.0019325224093942688,0.001787123835152612,0.011258564600514468,0.00013850489444640574,0.023850556885511222,-0.0026779191938440367,0.01624465373528008,-0.00013864199124010587
0.0186207,0.0020361934359217617,0.0018039564225591997,0.011538502703668213,0.00015319790919324426,0.024244079198828403,-0.0024783556531070123,0.01653448714139648,-0.00012820660484286455
0.0190862,0.0021389728840513086,0.0018205539799091112,0.011817335562907242,0.0001679978807764577,0.024635841721093926,-0.002280930594687129,0.01682268339150782,-0.00011828404990924276
0.0195517,0.002240848727765089,0.0018369130475319863,0.012095034572243576,0.00018290766909239602,0.025025793462842116,-0.0020856666616012806,0.01710921017817667,-0.00010887410733239316
0.0200172,0.002341809179791573,0.001853030214831784,0.01237157145647964,0.00019793018572733835,0.025413883832835507,-0.0018925858993770002,0.017394035630172777,-9.997635277632992e-05
0.0204828,0.002441842694235004,0.001868902121456604,0.01264691827707973,0.00021306839368628622,0.025800062650660864,-0.0017017097493041292,0.01767712831948256,-9.159015509701982e-05
0.0209483,0.002540937969103659,0.0018845254584580694,0.012921047437845643,0.00022832530710023522,0.026184280159157445,-0.0015130590418733457,0.01795845726811821,-8.371467481841358e-05
0.0214138,0.0026390839487367397,0.0018998969694400383,0.013193931690394574,0.0002437039909120642,0.026566487036675496,-0.0013266539904022612,0.018237991954725592,-7.634886266402669e-05
0.0218793,0.0027362698261298043,0.0019150134516964419,0.013465544139437865,0.00025920756054118835,0.026946634409163114,-0.0011425141848497922,0.018515702320990302,-6.949145814467608e-05
0.0223448,0.0028324850451586724,0.0019298717573380693,0.013735858247859502,0.0002748391815271317,0.027324673862079357,-0.0009606585858194746,0.01879155877784163,-6.314098820297727e-05
0.0228103,0.002927719302701764,0.0019444687944081543,0.014004847841593584,0.0002906020691521818,0.02770055745213158,-0.0007811055187523804,0.01906553221145458,-5.729576591520214e-05
0.0232759,0.0030219625506608346,0.001958801527986647,0.014272487114300184,0.0003064994880433042,0.028074237718834785,-0.0006038726683102693,0.01933759398905031,-5.195388925109257e-05
0.0237414,0.0031152049978800736,0.0019728669812830693,0.014538750631839042,0.0003225347517535098,0.028445667695890655,-0.0004289770729495903,0.019607715964495547,-4.7113239892218e-05
0.0242069,0.0032074371119635062,0.001986662236717855,0.014803613336540617,0.00033871122232288813,0.028814800922383876,-0.00025643511968692287,0.019875870483701485,-4.277148210945424e-05
0.0246724,0.003298649620990647,0.0020001844369920887,0.015067050551274165,0.0003550323098195355,0.029181591453793315,-8.62625390564331e-05,0.020142030389822714,-3.8926061700149635e-05
0.0251379,0.0033888335151303507,0.00201343078614555,0.015329037983312711,0.00037150147186062245,0.0295459938728156,8.152559974010489e-05,0.020406169028256746,-3.557420498553292e-05
0.0256034,0.0034779800481527985,0.002026398550602976,0.015589551727995128,0.0003881222131138577,0.02990796329999874,0.00024691489349018845,0.02066826025144471,-3.271291786890656e-05
0.026069,0.0035660807388396116,0.002039085060208435,0.01584856827218609,0.0004048980847796111,0.030267455404183522,0.0004098916094338613,0.020928278423474014,-3.0338984955158016e-05
0.0265345,0.003653127372292099,0.0020514877092477255,0.01610606449753511,0.00042183268405396416,0.030624426412750587,0.0005704426895329167,0.02118619842448375,-2.8448968732107314e-05
0.027,0.0037391120011377142,0.0020636039574586755,0.01636201768353643,0.00043892965357295575,0.030978833121671254,0.0007285557545456139,0.021441995654873657,-2.7039208814192913e-05
0.0274655,0.003824026946634863,0.0020754313310292266,0.016616405510391834,0.0004561926808382953,0.03133063290536035,0.0008842191079065619,0.021695646039317486,-2.6105821248980074e-05
0.027931,0.003907864799676295,0.0020869674235831754,0.016869206061678764,0.00047362549762481823,0.03167978372632957,0.0010374217394115012,0.021947126030581552,-2.564469788695747e-05
0.0283966,0.0039906184216913785,0.0020982098971534394,0.017120397826826166,0.0004912318793699702,0.03202624414463977,0.0011881533287068033,0.022196412613149256,-2.565150581506877e-05
0.0288621,0.0040722809454476,0.0021091564831427203,0.01736995970340058,0.0005090156445456237,0.03236997332715059,0.0013364042485835906,0.02244348330665234,-2.6121686854406324e-05
0.0293276,0.004152845775751677,0.0021198049832714385,0.017617870999205053,0.0005269806540125504,0.032710931056565466,0.0014821655680764551,0.022688316169109754,-2.705045712247562e-05
0.0297931,0.004232306590050635,0.0021301532705128197,0.017864111434193454,0.0005451308103578927,0.03304907774027006,0.0016254290553668147,0.022930889799974895,-2.8432806660423423e-05
0.0302586,0.004310657338933222,0.002140199290015015,0.018108661142203004,0.000563470057215994,0.03338437441896175,0.0017661871804909807,0.023171183342992074,-3.0263499125608254e-05
0.0307241,0.004387892246532021,0.002149941060010138,0.01835150067250777,0.0005820023785729601,0.03371678277506798,0.001904433117853041,0.023409176488862884,-3.253707154987656e-05
0.0311897,0.004464005810826633,0.0021593766727101096,0.018592610991196006,0.0006007317980553252,0.03404626514095098,0.0020401607485426724,0.02364484947772311,-3.524783416388892e-05
0.0316552,0.004538992803848302,0.002168504295189195,0.018831973482374198,0.0006196623782032033,0.03437278450689645,0.0021733646624580273,0.023878183101430632,-3.8389870287818795e-05
0.0321207,0.00461284827178641,0.002177322170253138,0.01906956994920069,0.0006387982197282965,0.034696304528883656,0.002304040160233878,0.024109158705664872,-4.1957036288724526e-05
0.0325862,0.0046855675349972824,0.002185828617294764,0.019305382614751624,0.000658143460757138,0.03501678953613431,0.0024321832549752667,0.02433775819183802,-4.594296160487462e-05
0.0330517,0.004757146187915709,0.0021940220331359314,0.019539394122721907,0.0006777022760599433,0.03533420453843763,0.0025577906737969816,0.024563964018818368,-5.034104883728856e-05
0.0335172,0.004827580098869636,0.002201900892855708,0.019771587537963667,0.0006974788762654492,0.03564851523324883,0.002680859859169229,0.02478775920446595,-5.5144473908739805e-05
0.0339828,0.004896865409798416,0.002209463750604615,0.020001946346864717,0.0007174775070621183,0.03595968801255835,0.0028013889700699204,0.025009127326980473,-6.0346186290453076e-05
0.0344483,0.004964998535875005,0.0022167092404047975,0.020230454457569335,0.0007377024483860956,0.03626768996952901,0.0029193768829440347,0.025228052526061563,-6.593890929671112e-05
0.0349138,0.00503197616503248,0.0022236360769359595,0.020457096200043632,0.0007581580135962949,0.03657248890489834,0.0030348231924705576,0.025444519503881255,-7.1915140447567e-05
0.0353793,0.005097795257395317,0.0022302430563068843,0.020681856325987777,0.0007788485486369981,0.03687405333314325,0.0031477282121375465,0.0256585135258687,-7.826715189983616e-05
0.0358448,0.005162453044615979,0.0022365290568123605,0.020904720008597222,0.0007997784311883493,0.03717235248840453,0.0032580929746259075,0.025870020421307347,-8.498699094652025e-05
0.0363103,0.005225947029117558,0.002242493039675318,0.021125672842175022,0.000820952069805118,0.03746735633016821,0.0033659192320024886,0.026079026583745033,-9.206648058479202e-05
0.0367759,0.005288274983243401,0.00224813404977398,0.021344700841597234,0.0008423739030441145,0.037759035548701206,0.003471209455723104,0.026285518971217746,-9.949722015264529e-05
0.0372414,0.00534943494831489,0.002253451216353837,0.021561790441633186,0.0008640483985806294,0.03804736157023812,0.003573966836446111,0.02648948510628798,-0.00010727058603428818
0.0377069,0.005409425233598714,0.0022584437537242373,0.02177692849612236,0.0008859800523142772,0.03833230656191677,0.0036741952836571636,0.026690913075898704,-0.00011537773243433529
0.0381724,0.0054682444151850735,0.002263110961939387,0.02199010227700952,0.0009081733874646222,0.03861384343645975,0.003771899425105782,0.026889791531043948,-0.00012380959222083653
0.0386379,0.005525891334778407,0.00226745222746355,0.022201299473239646,0.000930632953656971,0.03889194585660042,0.003867084606054391,0.027086109686257024,-0.00013255687783716847
0.0391034,0.005582365098402196,0.0022714670238202245,0.022410508189514247,0.0009533633259987179,0.03916658823925119,0.003959756888340496,0.02727985731891734,-0.0001416100822828045
0.039569,0.005637665075019475,0.002275154912225083,0.022617716944910868,0.0009763691041466324,0.03943774575941286,0.0040499230492526935,0.027471024768376803,-0.00015095948016297315
0.0400345,0.005691790895070627,0.002278515542202443,0.022822914671367427,0.0009996549113654837,0.03970539435382365,0.004137590580221253,0.02765960293490657,-0.00016059512880720763
0.0405,0.005744742448930019,0.002281548652185064,0.023026090712033268,0.0010232253935783984,0.03996951072434695,0.004222767685324039,0.027845583278465185,-0.00017050686945678569
0.0409655,0.0057965198852829814,0.0022842540700970526,0.023227234819488646,0.0010470852184093498,0.040230072341097003,0.0043054632796086,0.028028957817289285,-0.00018068432852105326
0.041431,0.005847123609424641,0.002286631713919693,0.023426337153834267,0.001071239074218178,0.040487057445301754,0.004385686987231274,0.028209719126308312,-0.00019111691890262122
0.0418966,0.005896554281482025,0.00228868159224002,0.023623388280652483,0.0010956916691285319,0.040740445051902115,0.0044634491394142245,0.028387860335385016,-0.00020179384139141837
0.0423621,0.005944812814560888,0.0022904038047819966,0.023818379168841667,0.0011204477300491339,0.040990214951887136,0.004538760772221306,0.028563375127383578,-0.00021270408612757746
0.0428276,0.005991900372818682,0.0022917985429201588,0.024011301188325233,0.00114551200168876,0.04123634771436442,0.004611633624153726,0.028736257736067257,-0.00022383643413312243
0.0432931,0.0060378183694651385,0.0022928660901756098,0.02420214610763694,0.0011708892455653394,0.04147882468836528,0.0046820801335665,0.028906502943827284,-0.00023517945891241468
0.0437586,0.006082568464691983,0.0022936068226942588,0.024390906091384255,0.0011965842390095711,0.04171762800438406,0.0047501134359068135,0.029074106079244617,-0.00024672152812130584
0.0442241,0.006126152563533317,0.002294021209707188,0.024577573697591896,0.001222601774163457,0.041952740575651355,0.004815747360775489,0.0292390630144859,-0.0002584508053049341
0.0446897,0.006168572813658331,0.0022941098139730395,0.02476214187492786,0.0012489466569741458,0.04218414609914041,0.0048789964288128785,0.029401370162534912,-0.0002703552517040924
0.0451552,0.006209831603098012,0.0022938732922022902,0.024944603959814588,0.001275623706183469,0.04241182905630653,0.0049398758484105664,0.029561024474260518,-0.00028242262813008863
0.0456207,0.006249931557907591,0.002293312395463291,0.0251249536734279,0.00130263775231355,0.042635774713559185,0.004998401512250312,0.02971802343532216,-0.00029464049690800854
0.0460862,0.006288875539766437,0.0022924279695699253,0.025303185118586466,0.0013299936366488667,0.042855969122466996,0.005054589993671684,0.029872365062913606,-0.00030699622388828413
0.0465517,0.0063266666435171474,0.0022912209554507416,0.025479292776534396,0.0013576962102151552,0.04307239911969601,0.005108458542869896,0.030024047902345724,-0.0003194769805264569
0.0470172,0.006363308194645594,0.0022896923894994087,0.02565327150361935,0.0013857503327555519,0.043285052326682075,0.005160025082925376,0.030173071023468855,-0.00033206974603101663
0.0474828,0.006398803746703651,0.0022878434039063232,0.025825116527868616,0.0014141608717043867,0.04349391714903877,0.005209308205666667,0.030319434016935404,-0.00034476130957918625
0.0479483,0.006433157078676429,0.0022856752269711893,0.025994823445465373,0.0014429327011590447,0.04369898277570281,0.0052563271673683075,0.030463136990303567,-0.0003575382726005182
0.0484138,0.0064663721922957945,0.0022831891833963803,0.026162388217127432,0.0014720707008503227,0.04390023917781978,0.0053011018842853705,0.03060418056398358,-0.00037038705112815945
0.0488793,0.006498453309302002,0.002280386694560887,0.026327807164390777,0.0015015797551117013,0.04409767710737344,0.00534365292802638,0.030742565867028854,-0.0003832938782176364
0.0493448,0.006529404868655292,0.0022772692787746416,0.02649107696580032,0.00153146475184796,0.04429128809556263,0.005384001520766294,0.030878294532774932,-0.00039624480643299945
0.0498103,0.006559231523699285,0.0022738385515129952,0.026652194653010407,0.0015617305815035444,0.04448106445092978,0.005422169530301268,0.03101136869433003,-0.000409225710400156
0.0502759,0.006587938139277975,0.002270096225631118,0.026811157606797784,0.0015923821360311087,0.04466699925724559,0.005458179464946836,0.03114179097992144,-0.00042222228942720907
0.0507414,0.006615529788808103,0.002266044111558086,0.026967963552989933,0.0016234243078606355,0.044849086371154964,0.0054920544682811765,0.03126956450810243,-0.0004352200701916037
0.0512069,0.006642011751308628,0.0022616841174703762,0.027122610558311673,0.0016548619888695482,0.04502732041958902,0.005523818313735048,0.03139469288282464,-0.00044820440949387035
0.0516724,0.006667389508388996,0.002257018249444492,0.02727509702615308,0.0016867000693542192,0.0452016967969483,0.005553495399029989,0.03151718018838136,-0.00046116049707773337
0.0521379,0.006691668741197838,0.0022520486115884314,0.0274254216922619,0.0017189434370032757,0.04537221166206197,0.005581110740466351,0.031637030984226884,-0.0004740733585163357
0.0526034,0.006714855327333726,0.002246777406151682,0.02757358362036353,0.0017515969758730985,0.045538861934927795,0.005606689967062676,0.03175425029967747,-0.000486927858164305
0.053069,0.006736955337719577,0.002241206933613429,0.027719582197711895,0.001784665565365905,0.04570164529323752,0.005630259314548003,0.03186884362849897,-0.0004997087021753587
0.0535345,0.006757975033442267,0.002235339592748662,0.027863417130574327,0.0018181540792108078,0.04586056016869222,0.00565184561920866,0.03198081692338652,-0.0005124004415851123
0.054,0.006777920862558983,0.0022291778806718707,0.028005088439653797,0.001852067384448237,0.04601560574311218,0.005671476311591194,0.032090176590341524,-0.0005249874754587133
0.0544655,0.006796799456871854,0.002222724392858037,0.028144596455451643,0.0018864103404181254,0.046166781944345654,0.005689179410063103,0.03219692948295109,-0.0005374540541028939
0.054931,0.006814617628672332,0.002215981823140649,0.028281941813573835,0.0019211877977522568,0.04631408944198097,0.005704983514233081,0.032301082896575364,-0.000549784282342004
0.0553966,0.006831382367456854,0.002208952963686507,0.02841712544998383,0.0019564045973711913,0.04645752964286622,0.005718917798232484,0.03240264456244784,-0.0005619621228575701
0.0558621,0.0068471008366152745,0.002201640704947137,0.028550148596204927,0.001992065569486186,0.04659710468644108,0.005731012003859753,0.03250162264169381,-0.000573971399590907
0.0563276,0.0068617803700935865,0.002194048035586682,0.028681012774475108,0.002028175532606538,0.046732817439885076,0.00574129643358954,0.03259802571927206,-0.0005857958012083018
0.0567931,0.006875428469032462,0.0021861780423861944,0.02880971979285742,0.002064739292552775,0.046864671493087214,0.005749801943448312,0.03269186279784461,-0.0005974188846282663
0.0572586,0.006888052798383068,0.002178033910124307,0.028936271740308918,0.00210176164147613,0.04699267115344135,0.005756559935758308,0.032783143291579234,-0.000608824078610346
0.0577241,0.006899661183501673,0.0021696189214343133,0.029060670981711216,0.002139247356884727,0.04711682144047191,0.005761602351751749,0.03287187701988915,-0.0006199946874049575
0.0581897,0.0069102616067244615,0.002160936456637717,0.029182920152865787,0.0021772012006768884,0.04723712808029441,0.005764961664057265,0.03295807420111415,-0.0006309138944637156
0.0586552,0.006919862203924043,0.0021519899935543486,0.029303022155457128,0.00221562791818199,0.04735359749991539,0.0057666708690605195,0.033041745446147415,-0.000641564766209699
0.0591207,0.006928471261049091,0.0021427831072891607,0.029420980151986898,0.002254532237209255,0.04746623682137597,0.005766763479141015,0.033122901752011685,-0.0006519302558670922
0.0595862,0.006936097210648539,0.0021333194699958034,0.029536797560682223,0.0022939188671048803,0.0475750538557431,0.005765273514787065,0.033201554495388606,-0.0006619932073496269
0.0600517,0.006942748628381781,0.002123602850617101,0.029650478050381048,0.0023337924978178715,0.04768005709695235,0.005762235496590882,0.033277715426104686,-0.0006717363592072264
0.0605172,0.006948434229516255,0.002113637114602522,0.02976202553539743,0.0023741577989749465,0.04778125571550555,0.005757684437125735,0.03335139666057703,-0.0006811423486302289
0.0609828,0.006953162865413825,0.002103426223602727,0.02987144417036944,0.002415019418964867,0.04787865955202651,0.005751655832707133,0.0334226106752219,-0.0006901937155105426
0.0614483,0.006956943520007292,0.0020929742351412767,0.02997873834509224,0.0024563819840325335,0.04797227911067739,0.005744185655039989,0.03349137029982864,-0.0006988729065590591
0.0619138,0.006959785306268391,0.002082285302263567,0.030083912679338482,0.0024982500973831675,0.04806212555243846,0.005735310342753777,0.03355768871090157,-0.0007071622794786331
0.0623793,0.0069616974626686,0.002071363673163042,0.030186972017668345,0.0025406283382969027,0.04814821068825322,0.005725066792827743,0.03362157942497209,-0.0007150441071919181
0.0628448,0.006962689349633999,0.0020602136907847276,0.03028792142423112,0.002583521261254091,0.048230546972040746,0.005713492351908305,0.03368305629188314,-0.0007225005821233318
0.0633103,0.006962770445995453,0.002048839792406136,0.030386766177560358,0.0026269333950716188,0.048309147493576954,0.0057006248075208875,0.03374213348804785,-0.0007295138205344087
0.0637759,0.006961950345435261,0.0020372465091955754,0.030483511765364395,0.0026708692420505296,0.048384025971246,0.00568650237917847,0.03379882550968441,-0.0007360658669117793
0.0642414,0.006960238752931418,0.0020254384657479056,0.030578163879314297,0.002715333277135231,0.04845519674466294,0.005671163709389235,0.0338531471660286,-0.0007421386984069956
0.0647069,0.006957645481200623,0.0020134203795977926,0.03067072840983121,0.002760329947084558,0.04852267476716892,0.005654647854565672,0.033905113572525555,-0.0007477142293274073
0.0651724,0.006954180447141066,0.002001197060710504,0.030761211440875236,0.002805863669654937,0.04858647559819991,0.005636994275837605,0.03395474014400238,-0.0007527743156772774
0.0656379,0.006949853668276083,0.0019887734109503004,0.0308496192447379,0.0028519388327958926,0.04864661539553085,0.005618242829771522,0.03400204258782328,-0.0007573007597483053
0.0661034,0.006944675259199734,0.0019761544235264877,0.030935958276840238,0.0028985597938581023,0.04870311090739717,0.0055984337589986485,0.034047036897029294,-0.0007612753147587068
0.066569,0.006938655428025362,0.0019633451824172025,0.031020235170538684,0.002945730878814194,0.04875597946449605,0.005577607682754114,0.0340897393434645,-0.0007646796895399753
0.0670345,0.006931804472838168,0.0019503508617710176,0.03110245673194107,0.002993456381492466,0.048805238971869724,0.005555805587329576,0.03413016647089082,-0.0007674955532704274
0.0675,0.006924132778152778,0.0019371767252864725,0.031182629934735334,0.003041740562823697,0.048850907900673854,0.005533068816441619,0.03416833508809326,-0.0007697045402546103
0.0679655,0.006915650811376787,0.0019238281255696498,0.03126076191503378,0.0030905876501011948,0.04889300527983392,0.00550943906151823,0.034204262261977314,-0.0007712882547476305
0.068431,0.006906369119281179,0.0019103105034699369,0.03133685996623612,0.0031400018362542532,0.04893155068759321,0.0054849583519057015,0.03423796531066019,-0.0007722282758234457
0.0688966,0.006896298324478519,0.0018966293873941306,0.03141093153391475,0.0031899872791351807,0.04896656424295579,0.005459669044998229,0.034269461796557425,-0.0007725061622861465
0.0693621,0.006885449121909713,0.0018827903925990556,0.03148298421072605,0.0032405481008200565,0.04899806659702823,0.005433613816292555,0.034298769519466504,-0.0007721034576232346
0.0698276,0.006873832275340168,0.0018687992204628843,0.03155302573135163,0.003291688386923386,0.04902607892426336,0.0054068356493699255,0.034325906509649,-0.0007710016949998828
0.0702931,0.0068614586138660534,0.0018546616577353517,0.03162106396747333,0.0033434121859268347,0.049050622913609704,0.005379377825807657,0.03435089102091318,-0.0007691824022931334
0.0707586,0.00684833902843143,0.0018403835757670568,0.031687106922786236,0.003395723508522211,0.04907172075956991,0.005351283915022535,0.034373741523699125,-0.0007666271071649565
0.0712241,0.006834484468356886,0.0018259709297180412,0.03175116272805348,0.0034486263269688715,0.04908939515317133,0.00532259776404827,0.03439447669816862,-0.0007633173421730639
0.0716897,0.0068199059378803335,0.0018114297577458206,0.031813239636206865,0.003502124574465714,0.04910366927285233,0.005293363487249196,0.034413115427302424,-0.0007592346499183329
0.0721552,0.006804614492710551,0.001796766180173042,0.031873346017497306,0.0035562221445378955,0.04911456677526751,0.005263625455972384,0.0344296767900074,-0.0007543605882276784
0.0726207,0.006788621236593994,0.0017819863986349184,0.03193149035469902,0.0036109228904384057,0.04912211178601538,0.005233428288140289,0.034444180054236086,-0.0007486767353711781
0.0730862,0.006771937317895381,0.0017670966952065927,0.03198768123837145,0.003666230624564592,0.04912632889029189,0.0052028168377860505,0.03445664467012142,-0.0007421646953122348
0.0735517,0.006754573926192541,0.001752103431510566,0.03204192736218244,0.003722149117889732,0.04912724312347323,0.005171836184533541,0.03446709026312917,-0.0007348061029895224
0.0740172,0.006736542288886002,0.0017370130478043214,0.03209423751829627,0.0037786820994097038,0.049124879961631396,0.005140531623024261,0.03447553662723061,-0.0007265826296294313
0.0744828,0.006717853667823794,0.0017218320620482695,0.03214462059282976,0.003835833255604796,0.04911926531198607,0.005108948652293218,0.03448200371809789,-0.0007174759880876876
0.0749483,0.00669851935594201,0.0017065670689541518,0.03219308556137954,0.003893606229916685,0.04911042550329587,0.005077132965095955,0.03448651164632428,-0.0007074679382187848
0.0754138,0.0066785506739216296,0.0016912247390140365,0.03223964148462336,0.003952004622240582,0.04909838727619235,0.005045130437188901,0.03448908067067116,-0.000696540292271836
0.0758793,0.006657958966862202,0.0016758118175100318,0.03228429750399817,0.004011031988432554,0.04908317777345983,0.0050129871165652175,0.03448973119134363,-0.0006846749203114229
0.0763448,0.006636755600972992,0.0016603351235048556,0.0323270628374573,0.004070691839831987,0.04906482453026408,0.0049807492126483326,0.03448848374329638,-0.0006718537556619953
0.0768103,0.006614951960282265,0.0016448015488133754,0.032367946775309075,0.0041309876427991854,0.04904335546433257,0.004948463085445316,0.034485358989571495,-0.000658058800374348
0.0772759,0.006592559443365412,0.0016292180569552294,0.032406958676139,0.004191922818268026,0.04901879886608898,0.004916175234662349,0.03448037771466955,-0.0006432721307126858
0.0777414,0.006569589460092656,0.0016135916820886299,0.0324441079628176,0.0042535007413136445,0.048991183388744385,0.004883932288784564,0.034473560817955655,-0.0006274759026607661
0.0782069,0.006546053428397095,0.0015979295279254361,0.03247940411859603,0.004315724740735045,0.048960538038347184,0.004851780994122634,0.03446492930710152,-0.0006106523574455947
0.0786724,0.006521962771063887,0.0015822387666275842,0.03251285668329133,0.004378598098652556,0.04892689216379408,0.004819768203828513,0.034454504291564846,-0.0005927838270771339
0.0791379,0.006497328912541463,0.001566526637684949,0.0325444752495634,0.004442124050119999,0.0488902754468042,0.004787940866882769,0.03444230697610693,-0.0005738527399024718
0.0796034,0.006472163275775699,0.0015508004467747183,0.03257426945928533,0.0045063057827514534,0.04885071789185834,0.004756346017055933,0.034428358654349456,-0.0005538416261728848
0.080069,0.006446477279068058,0.0015350675646023514,0.03260224900000879,0.0045711464363624625,0.04880824981610553,0.004725030761846235,0.034412680702371204,-0.0005327331236222157
0.0805345,0.006420282332958785,0.0015193354257241854,0.03262842360152589,0.00463664910262555,0.0487629018392395,0.0046940422713960765,0.0343952945723453,-0.0005105099830549692
0.081,0.006393589837136309,0.0015036115273517443,0.03265280303252863,0.0047028168247398965,0.048714704873347676,0.0046634277673895524,0.03437622178621758,-0.0004871550739425197
0.0814655,0.006366411177374048,0.001487903428137798,0.032675397097367075,0.004769652597115045,0.04866369011273599,0.004633234511933305,0.034355483929426354,-0.00046265139002581206
0.081931,0.006338757722495855,0.0014722187469442113,0.032696215632907186,0.004837159365068517,0.048609889023732804,0.004603509796422925,0.03433310264466378,-0.00043698205492292535
0.0823966,0.006310640821371374,0.0014565651615916144,0.032715268505489066,0.004905340024537214,0.04855333333447535,0.004574300930397107,0.034309099625678866,-0.00041013032773986365
0.0828621,0.006282071799942528,0.0014409504075909233,0.032732565607986444,0.004974197421802528,0.04849405502468186,0.004545655230381718,0.03428349661112194,-0.0003820796086829261
0.0833276,0.0062530619582823604,0.0014253822768567294,0.03274811685696814,0.005043734353229067,0.048432086315412806,0.004517620008725962,0.03425631537843032,-0.0003528134446709958
0.0837931,0.006223622567687408,0.0014098686164025842,0.032761932189962026,0.005113953565016953,0.0483674596588243,0.004490242562432808,0.034227577737754714,-0.0003223155349460766
0.0842586,0.00619376486780473,0.0013944173270182157,0.03277402156282216,0.0051848577529676875,0.0483002077279172,0.004463570161985881,0.03419730552592607,-0.00029056973668039536
0.0847241,0.0061635000637946784,0.0013790363619287152,0.03278439494719945,0.0052564495622636,0.04823036340628506,0.004437650040175046,0.03416552060046242,-0.0002575600705783777
0.0851897,0.006132839323530477,0.0013637337254357516,0.03279306232811607,0.005328731587260951,0.04815795977786448,0.004412529380922941,0.034132244833615655,-0.00022327072647179317
0.0856552,0.00610179377483565,0.0013485174715408793,0.032800033701643756,0.005401706371296785,0.04808303011669106,0.004388255308114724,0.034097500106458685,-0.00018768606890635917
0.0861207,0.006070374502760345,0.0013333957025510172,0.03280531907268613,0.005475376406509616,0.048005607876663976,0.00436487487443329,0.03406130830301385,-0.00015079064271808422
0.0865862,0.006038592546897583,0.001318376567666174,0.032808928452864684,0.005549744133674031,0.0479257266813226,0.0043424350502021805,0.03402369130442399,-0.0001125691785976227
0.0870517,0.00600645889874049,0.0013034682615495011,0.03281087185850827,0.00562481194204925,0.04784342031363828,0.004320982712238407,0.033984670983167896,-7.300659864090739e-05
0.0875172,0.005973984499081548,0.0012886790228797515,0.03281115930874568,0.0057005821692416745,0.047758722705825,0.004300564632717358,0.033944269197322095,-3.20880218843204e-05
0.0879828,0.005941180235454888,0.0012740171328862178,0.03280980082370085,0.005777057101081446,0.04767166792917262,0.004281227468051936,0.0339025077848713,1.0201230177344974e-05
0.0884483,0.005908056939622625,0.0012594909138662176,0.03280680642278989,0.005854238971512994,0.04758229018390649,0.004263017747788067,0.033859408558070125,5.3875628091887015e-05
0.0889138,0.005874625385106226,0.0012451087276851938,0.03280218612311918,0.005932129962499596,0.04749062378907743,0.004245981863518685,0.033814993297859294,9.894942897142829e-05
0.0893793,0.005840896284763873,0.0012308789742594948,0.03279594993798351,0.006010732203941922,0.047396703172486274,0.004230166057818313,0.033769283748339735,0.0001454366710366525
0.0898448,0.00580688028841474,0.0012168100900218943,0.03278810787546344,0.006090047773610542,0.047300562860647134,0.004215616413200342,0.033722301611308576,0.0001933511681853268
0.0903103,0.005772587980511084,0.0012029105463699024,0.03277866993712098,0.006170078697092398,0.04720223746879403,0.004202378841099106,0.03367406854086088,0.0002427065045868964
0.0907759,0.005738029877858998,0.0011891888480969183,0.03276764611679268,0.006250826947751208,0.04710176169093568,0.004190499070878859,0.033624606138060974,0.00029351602930494385
0.0912414,0.005703216427388635,0.0011756535318062638,0.03275504639947928,0.00633229444670182,0.046999170289963324,0.004180022638871736,0.033573935945687326,0.00034579285094931317
0.0917069,0.005668158003974622,0.0011623131643081392,0.032740880760330965,0.006414483062798518,0.04689449808781605,0.004170994877446788,0.03352207944305449,0.00039954983235970977
0.0921724,0.005632864908307383,0.0011491763409995452,0.03272515916372713,0.006497394612637357,0.04678777995570818,0.004163460904112141,0.033469058040915746,0.0004547995853225944
0.0926379,0.005597347364816018,0.0011362516842272135,0.03270789156244943,0.006581030860572593,0.04667905080442273,0.004157465610652361,0.033414893076449716,0.0005115544653231984
0.0931034,0.005561615519643344,0.001123547841633593,0.032689087896946786,0.006665393518747343,0.04656834557467493,0.00415305365230306,0.0333596058083341,0.000569826566334491
0.093569,0.0055256794386736715,0.0011110734844859377,0.03266875809469088,0.006750484247138659,0.04645569922754945,0.004150269436964822,0.03330321741190961,0.0006296277156449361
0.0940345,0.005489549105613829,0.0010988373059885536,0.032646912069620185,0.006836304653617253,0.04634114673501469,0.004149157114458501,0.033245748974436905,0.0006909694687268794
0.0945,0.0054532344201279415,0.0010868480195782716,0.032623559721670775,0.006922856294022164,0.04622472307051777,0.004149760565823978,0.033187221490449316,0.0007538631041474163
0.0949655,0.005416745196026417,0.0010751143572032226,0.03259871093639159,0.007010140672250693,0.04610646319966353,0.004152123392664448,0.033127655857203626,0.0008183196185236074
0.095431,0.00538009115950957,0.0010636450675850088,0.032572375584641905,0.007098159240363903,0.04598640207098083,0.004156288906538343,0.033067072870231404,0.000884349721523918
0.0958966,0.005343281947466293,0.0010524489144643752,0.03254456352236846,0.007186913398708047,0.045864574606779375,0.004162300118400971,0.033005493218992814,0.0009519638309177781
0.0963621,0.005306327105828142,0.001041534674830496,0.032515284590459645,0.007276404496052236,0.0457410156941,0.004170199728097983,0.032942937482634826,0.001021172067675164
0.0968276,0.005269236087979154,0.0010309111371339945,0.03248454861467369,0.007366633829742683,0.04561576017576094,0.004180030113912761,0.032879426125855184,0.0010919842511181131
0.0972931,0.005232018253221748,0.0010205870994838136,0.03245236540563787,0.007457602645873928,0.04548884284150259,0.0041918333221698375,0.03281497949487358,0.0011644098941260867
0.0977586,0.005194682865298955,0.0010105713678280484,0.032418744758915416,0.007549312139477477,0.0453602984192328,0.004205651056896436,0.032749617813511114,0.001238458198397098
0.0982241,0.005157239090973269,0.0010008727541188484,0.03238369645513677,0.007641763454728365,0.045230161566374466,0.004221524669544208,0.03268336117937904,0.0013141380497665206
0.0986897,0.005119695998662326,0.0009915000744614923,0.0323472302601915,0.0077349576851701955,0.04509846686131727,0.0042394951487732735,0.03261622956017767,0.0013914580135854949
0.0991552,0.005082062557131591,0.0009824621472477332,0.032309355925477325,0.00782889587395925,0.04496524879497536,0.004259603110300629,0.03254824279010629,0.0014704263301608487
0.0996207,0.005044347634244223,0.0009737677912735129,0.03227008318820234,0.007923579014128311,0.04483054176245289,0.004281888786815003,0.03247942056638466,0.001551050910258454
0.1000862,0.005006559995768245,0.0009654258238411506,0.032229421771736336,0.008019008048870858,0.04469438005481975,0.004306392017960211,0.032409782445886756,0.0016333393306719381
0.1005517,0.004968708304241102,0.0009574450588461267,0.03218738138600742,0.008115183871846286,0.04455679785099975,0.004333152240389032,0.03233934784188687,0.0017172988298586888
0.1010172,0.0049308011178917045,0.0009498343048485895,0.032143971727940146,0.008212107327506844,0.04441782920977365,0.004362208477889653,0.0322681360209184,0.001802936303645091
0.1014828,0.004892846889619951,0.0009426023631297262,0.03209920248193185,0.008309779211446973,0.04427750806189995,0.004393599331586681,0.032196166099745266,0.001890258301002945
0.1019483,0.004854853966033768,0.000935758025733149,0.03205308332036455,0.008408200270775695,0.04413586820235614,0.004427362970218781,0.03212345704244583,0.001979271019899008
0.1024138,0.0048168305865436255,0.0009293100734914507,0.0320056239041502,0.0085073712045127,0.043992943282703076,0.004463537120495005,0.03205002765760927,0.0020699803032196143
0.1028793,0.004778784882514497,0.0009232672740380969,0.031956833883307785,0.008607292664008715,0.0438487668035755,0.004502159057531871,0.03197589659564391,0.002162391634772328
0.1033448,0.004740724876475179,0.0009176383798048327,0.03190672289757078,0.0087079652533907,0.04370337210730118,0.004543265595373287,0.03190108234619741,0.0022565101353666027
0.1038103,0.004702658481384888,0.0009124321260047952,0.031855300577023925,0.008809389530032378,0.043556792370651375,0.004586893077595369,0.03182560323568794,0.0023523405589754294
0.1042759,0.00466459349995703,0.0009076572286015288,0.031802576542767816,0.008911566005050513,0.043409060597724994,0.00463307736799822,0.031749477424945806,0.002449887288979983
0.1047414,0.004626537624039999,0.0009033223822641144,0.031748560407610024,0.009014495143827364,0.043260209612968864,0.004681853841386657,0.031672722906964185,0.0025491543344992812
0.1052069,0.004588498434054836,0.0008994362583086249,0.03169326177678114,0.009118177366559612,0.04311027205433643,0.004733257374441926,0.03159535750475793,0.0026501453268068785
0.1056724,0.004550483398489537,0.0008960075026261305,0.031636690248674236,0.009222613048834052,0.042959280366586944,0.004787322336686363,0.03151739886932863,0.00275286351583663
0.1061379,0.004512499873449798,0.0008930447335974688,0.031578855415606365,0.009327802522230224,0.04280726679472726,0.004844082581543009,0.03143886447773445,0.0028573117667795387
0.1066034,0.00447455510226593,0.0008905565399950043,0.031519766864600784,0.009433746074950173,0.04265426337759819,0.004903571437492139,0.03135977163126294,0.002963492556773691
0.107069,0.004436656215155627,0.0008885514788715934,0.031459434178188875,0.009540443952475405,0.04250030194160748,0.0049658216993267125,0.03128013745370517,0.0030714079716892585
0.1075345,0.004398810228942281,0.0008870380734369691,0.03139786693523067,0.009647896358251118,0.04234541409461128,0.005030865619508733,0.031199978889729852,0.00318105970301055
0.108,0.004361024046828463,0.0008860248109217548,0.03133507471175305,0.009756103454397716,0.04218963121994592,0.005098734899628554,0.03111931270335595,0.003292449044817048
0.1084655,0.00432330445822416,0.0008855201404293162,0.03127106708180448,0.0098650653624496,0.04203298447061177,0.0051694606819691815,0.031038155476522684,0.003405576890865367
0.108931,0.004285658138629365,0.0008855324707756548,0.031205853618325202,0.009974782164121152,0.041875504763610766,0.005243073541177666,0.030956523607756015,0.003520443731774043
0.1093966,0.004248091649570521,0.000886070168317557,0.0311394438940317,0.010085253902099732,0.04171722277443905,0.005319603476045691,0.030874433310930958,0.0036370496523130485
0.1098621,0.004210611438590352,0.0008871415547692078,0.031071847482314084,0.01019648058086553,0.041558168931736104,0.005399079901401487,0.030791900614129314,0.003755394328799911
0.1103276,0.004173223839290539,0.0008887549050074844,0.03100307395814539,0.010308462167537912,0.041398373412091474,0.005481531640115236,0.03070894135859264,0.0038754770266043056
0.1107931,0.004135935071426708,0.0008909184448661507,0.030933132899001334,0.010421198592747934,0.04123786613501012,0.005566986915220148,0.030625571197770186,0.003997296597762992
0.1112586,0.004098751241055132,0.0008936403489191786,0.03086203388578941,0.010534689751536591,0.04107667675803708,0.0056554733421513995,0.030541805596461503,0.004120851478706956
0.1117241,0.004061678340730561,0.0008969287382534319,0.030789786503785894,0.010648935504278268,0.04091483467204216,0.005747017921105181,0.03045765983005347,0.004246139688102624
0.1121897,0.0040247222497545145,0.0009007916782309713,0.030716400343579465,0.010763935677628822,0.040752368996665365,0.005841647029520122,0.030373148983851125,0.004373158824808976
0.1126552,0.003987888734473408,0.0009052371762412525,0.03064188500201993,0.010879690065497667,0.04058930857592324,0.00593938641468341,0.030288287952501682,0.004501906065952404
0.1131207,0.003951183448625826,0.0009102731794435034,0.03056625008317063,0.010996198430043123,0.0404256819739765,0.0060402611864639995,0.030203091439510985,0.004632378165121108
0.1135862,0.0039146119337382735,0.0009159075724995848,0.03048950519926289,0.011113460502690267,0.04026151747105887,0.006144295810175379,0.030117573956851596,0.004764571450680813
0.1140517,0.00387817961956869,0.0009221481752976547,0.0304116599716508,0.011231475985170356,0.040096843059566956,0.0062515140995704,0.030031749824661527,0.004898481824213539
0.1145172,0.003841891824597044,0.0009290027406669706,0.03033272403176464,0.011350244550580887,0.039931686440311094,0.0063619392099707696,0.029945633171032614,0.005034104759081135
0.1149828,0.0038057537565622736,0.0009364789520841783,0.030252707022061263,0.011469765844465237,0.039766075018927,0.006475593631533808,0.029859237931887342,0.0051714352991152615
0.1154483,0.003769770513044859,0.0009445844213714493,0.03017161859696981,0.011590039485910697,0.03960003590244811,0.006592499182659121,0.029772577850942804,0.005310468057435455
0.1159138,0.003733947082094301,0.0009533266863868472,0.030089468423831537,0.011711065068663675,0.039433595896038724,0.006712677003537849,0.029685666479760363,0.005451197215396904
0.1163793,0.00369828834290078,0.0009627132087073125,0.030006266183832547,0.011832842162260717,0.03926678149988813,0.006836147549847107,0.02959851717787939,0.005593616521669524
0.1168448,0.0036627990665102574,0.0009727513713046703,0.02992202157292868,0.01195537031317389,0.03909961890626603,0.0069629305865922765,0.02951114311303355,0.005737719291449884
0.1173103,0.0036274839165822844,0.0009834484762150746,0.02983674430276186,0.012078649045969007,0.03893213399673954,0.007093045182099722,0.02942355726144793,0.005883498405807513
0.1177759,0.003592347450189757,0.0009948117422023083,0.029750444101567554,0.012202677864475056,0.03876435233955181,0.007226509702162533,0.0293357724082152,0.0060309463111670614
0.1182414,0.0035573941186598378,0.001006848302415365,0.029663130715073063,0.012327456252963125,0.038596299187162245,0.007363341804341839,0.02924780114774904,0.006180055018927804
0.1187069,0.0035226282684552423,0.0010195652020407496,0.02957481390738639,0.01245298367733295,0.03842799947394807,0.00750355843242625,0.02915965588431287,0.006330816105221878
0.1191724,0.003488054142095085,0.0010329693959499446,0.029485503461875635,0.012579259586305206,0.03825947781406711,0.007647175811051951,0.029071348832621996,0.006483220710812645
0.1196379,0.0034536758791144585,0.0010470677463424955,0.02939520918203887,0.012706283412617581,0.03809075849948146,0.007794209440485965,0.028982892018517076,0.006637259541134497
0.1201034,0.0034194975170619216,0.0010618670203851811,0.029303940892364627,0.012834054574222566,0.03792186549814204,0.007944674091575123,0.02889429727970684,0.006792922866475381
0.120569,0.00338552299253406,0.0010773738878477506,0.029211708439183182,0.012962572475484886,0.03775282245233405,0.008098583800863281,0.028805576266578033,0.006950200522303269
0.1210345,0.0033517561422463206,0.001093594918735723,0.029118521691508675,0.013091836508376394,0.03758365267718316,0.008255951865879331,0.028716740443070588,0.007109081909737727
0.1215,0.003318200704139311,0.001110536580920774,0.029024390541872128,0.013221846053666275,0.03741437915932246,0.008416790840598517,0.02862780108761611,0.00726955599616769
0.1219655,0.003284860318519757,0.0011282052377692465,0.028929324907145153,0.013352600482104347,0.03724502455572,0.008581112531079597,0.02853876929413798,0.007431611316016534
0.122431,0.0032517385292353523,0.0011466071457693512,0.028833334729353854,0.013484099155595213,0.03707561119266664,0.00874892799128034,0.028449655973111342,0.007595235971655424
0.1228966,0.0032188387848826965,0.0011657484521576502,0.028736429976482375,0.013616341428361035,0.03690616106492411,0.008920247519053787,0.02836047185268108,0.007760417634465897
0.1233621,0.0031861644400475444,0.0011856351925454511,0.028638620643265274,0.013749326648090683,0.03673669583503268,0.009095080652327716,0.028271227479835844,0.007927143546052588
0.1238276,0.0031537187565765707,0.0012062732885457779,0.028539916751967702,0.01388305415707293,0.036567236832777954,0.009273436165469632,0.028181933221636007,0.008095400519606928
0.1242931,0.0031215049048798414,0.001227668545401612,0.028440328353152154,0.014017523293311391,0.03639780505481572,0.0094553220658396,0.028092599266493202,0.00826517494142259
0.1247586,0.003089525965263167,0.0012498266496161398,0.028339865526430343,0.014152733391618785,0.0362284211644539,0.009640745590533172,0.028003235625499043,0.008436452772563397
0.1252241,0.0030577849292895078,0.001272753166585754,0.02823853838119857,0.01428868378468809,0.03605910549158995,0.009829713203316543,0.027913852133800522,0.008609219550684319
0.1256897,0.003026284701168574,0.0012964535382365865,0.028136357057354774,0.01442537380413813,0.03588987803280228,0.010022230591756037,0.027824458452019273,0.008783460392006125
0.1261552,0.002995028099173734,0.0013209330806653581,0.02803333172599518,0.014562802781531102,0.035720758451593664,0.010218302664543953,0.02773506406771177,0.008959159993444231
0.1266207,0.0029640178570853487,0.0013461969817853432,0.027929472590088218,0.014700970049359564,0.03555176607878464,0.01041793354902271,0.027645678296867458,0.00913630263489214
0.1270862,0.002933256625659614,0.0013722502989782488,0.027824789885123304,0.014839874942000382,0.0353829199130545,0.010621126588909137,0.027556310285441477,0.009314872181659885
0.1275517,0.002902746974122003,0.0013990979567528082,0.02771929387973192,0.014979516796633167,0.03521423862162726,0.010827884342220704,0.027466969010918642,0.009494852087067797
0.1280172,0.0028724913916843633,0.001426744744410889,0.027612994876278642,0.015119894954120658,0.03504574054109964,0.011038208579405396,0.02737766328390514,0.009676225395195845
0.1284828,0.002842492289084746,0.0014551953137219077,0.02750590321141972,0.01526100875984845,0.03487744367840796,0.011252100281676796,0.02728840174974428,0.009858974743788733
0.1289483,0.002812752000149026,0.001484454176606359,0.027398029256627023,0.015402857564521597,0.034709365711930326,0.011469559639555921,0.027199192890152574,0.010043082367316849
0.1294138,0.0027832727833733578,0.0015145257028292682,0.027289383418675425,0.015545440724915656,0.03454152399272055,0.01169058605162121,0.027110045024872284,0.010228530100193114
0.1298793,0.0027540568235265165,0.0015454141177043894,0.027179976140091745,0.015688757604580016,0.03437393554586974,0.01191517812346799,0.02702096631333651,0.010415299380145697
0.1303448,0.0027251062332711495,0.0015771234998100006,0.027069817899563392,0.015832807574491563,0.0342066170719915,0.012143333666878628,0.026931964756342484,0.010603371251746504
0.1308103,0.002696423054802959,0.0016096577787171565,0.02695891921230496,0.01597759001365705,0.034039584948826515,0.012375049699204504,0.026843048197728793,0.010792726370095236
0.1312759,0.0026680092615068546,0.001643020732731281,0.026847290630380823,0.016123104309662694,0.03387285523296236,0.012610322442960864,0.02675422432605192,0.010983345004658815
0.1317414,0.0026398667596291094,0.0016772159866479909,0.026734942742982003,0.016269349859169713,0.033706443661664025,0.012849147325635496,0.0266655006762575,0.011175207043265868
0.1322069,0.002611997389964572,0.0017122470095240598,0.026621886176655524,0.016416326068354567,0.03354036565481107,0.013091518979712096,0.02657688463134137,0.011368291996255877
0.1326724,0.0025844029295580165,0.0017481171124644403,0.026508131595484718,0.016564032353292676,0.03337463631693686,0.013337431242909164,0.026488383423995995,0.011562579000782615
0.1331379,0.002557085093418708,0.001784829446426289,0.02639368970121911,0.016712468140284407,0.03320927043936587,0.01358687715863512,0.026400004138237763,0.011758046825271257
0.1336034,0.002530045536247258,0.0018223870000409477,0.02627857123335269,0.016861632866121943,0.03304428250244494,0.013839848976660334,0.02631175371101126,0.01195467387402865
0.134069,0.002503285854173856,0.001860792597454847,0.026162786969149487,0.017011525978295666,0.03287968667786487,0.01409633815400657,0.026223638933766783,0.012152438192005992
0.1345345,0.002476807586506939,0.0019000488961903046,0.026046347723615422,0.01716214693513851,0.0327154968310685,0.014356335356054342,0.0261356664540077,0.012351317469713163
0.135,0.0024506122174913756,0.001940158385027192,0.025929264349415577,0.01731349520590669,0.03255172652374197,0.014619830457868598,0.026047842776804324,0.012551289048283927
0.1354655,0.002424701178075224,0.0019811233819064583,0.025811547736736197,0.017465570270795164,0.03238838901638558,0.014886812545743065,0.025960174266271285,0.01275232992469105
0.135931,0.0023990758476841465,0.0020229460318564826,0.02569320881309088,0.017618371620886253,0.032225497270961655,0.015157269918963595,0.025872667147005778,0.012954416757110407
0.1363966,0.0023737375560025547,0.0020656283049432385,0.02557425854307087,0.01777189875802964,0.03206306395361669,0.015431190091790758,0.025785327505484755,0.013157525870433052
0.1368621,0.002348687584760559,0.002109171994245244,0.025454707928039704,0.017926151194652153,0.031901101437475224,0.015708559795661898,0.025698161291419833,0.013361633261924126
0.1373276,0.002323927169525809,0.0021535787138542537,0.025334568005772766,0.01808112845349563,0.03173962180550327,0.01598936498161277,0.02561117431906937,0.013566714607027519
0.1377931,0.0022994575014993017,0.0021988498969026478,0.025213849850042457,0.018236830067281138,0.03157863685343879,0.016273590822918748,0.025524372268507727,0.013772745265314988
0.1382586,0.0022752797293142412,0.0022449867936184505,0.025092564570149956,0.01839325557829774,0.03141815809278693,0.016561221717955505,0.025437760686852145,0.013979700286578507
0.1387241,0.0022513949608370613,0.0022919904694089,0.024970723310404393,0.018550404537913873,0.03125819675387744,0.016852241293278936,0.02535134498944804,0.014187554417064555
0.1391897,0.0022278042649697214,0.0023398618029734763,0.024848337249550316,0.018708276506009452,0.03109876378898184,0.017146632406923934,0.025265130461013856,0.014396282105849006
0.1396552,0.0022045086734524245,0.0023886014844472945,0.02472541760014433,0.018866871050326726,0.030939869875487823,0.01744437715192155,0.02517912225674688,0.014605857511351268
0.1401207,0.002181509182665926,0.0024382100135757444,0.02460197560788188,0.019026187745738037,0.030781525419128423,0.017745456860033943,0.025093325403391178,0.014816254507986275
0.1405862,0.0021588067554326185,0.002488687697921255,0.02447802255087534,0.019186226173428897,0.030623740557263763,0.018049852105706466,0.02500774480026909,0.01502744669295288
0.1410517,0.0021364023228155767,0.002540034651103063,0.024353569738885073,0.019346985919994956,0.030466525162213143,0.01835754271023594,0.024922385220277555,0.015239407393157047
0.1415172,0.002114296785914758,0.0025922507910708693,0.024228628512505377,0.019508466576451604,0.030309888844635657,0.018668507746154302,0.02483725131085074,0.015452109672268262
0.1419828,0.0020924910176595398,0.0026453358384132654,0.024103210242307972,0.019670667737155135,0.030153840956957587,0.018982725541826524,0.02475234759489061,0.015665526337907413
0.1424483,0.0020709858645967917,0.002699289314701814,0.0239773263279456,0.01983358899863439,0.029998390596845125,0.019300173686261555,0.024667678471667252,0.01587962994896431
0.1429138,0.0020497821486736706,0.002754110540871688,0.02385098819721869,0.019997229958331822,0.02984354661072095,0.019620829034134975,0.024583248217690673,0.016094392823043008
0.1433793,0.002028880669014343,0.0028097986356397688,0.023724207305107867,0.020161590213252815,0.029689317597323364,0.019944667711021897,0.02449906098755587,0.016309787044033
0.1438448,0.002008282203689839,0.0028663525139611245,0.023596995132775134,0.020326669358522065,0.029535711911306363,0.020271665118838465,0.024415120814762867,0.0165257844698043
0.1443103,0.001987987511480251,0.0029237708855247967,0.023469363186536158,0.020492466985845885,0.029382737666879072,0.020601795941490177,0.024331431612513246,0.016742356740024354
0.1447759,0.0019679973336284933,0.0029820522532898255,0.02334132299680605,0.0206589826818792,0.0292304027414827,0.02093503415072509,0.024247997174484635,0.01695947528409464
0.1452414,0.0019483123955848466,0.003041194912062447,0.02321288611702096,0.02082621602649617,0.02907871477950316,0.021271353012189863,0.02416482117558444,0.0171771113292047
0.1457069,0.0019289334087415069,0.0031011969471153897,0.023084064122537454,0.020994166590963387,0.028927681196017282,0.021610725091686322,0.024081907172684016,0.01739523590850123
0.1461724,0.001909861072156371,0.003162056232850181,0.022954868609511632,0.02116283393601464,0.02877730918057071,0.021953122261626302,0.02399925860533419,0.017613819869369694
0.1466379,0.0018910960742652826,0.003223770431503371,0.02282531119375977,0.021332217609826544,0.028627605700985288,0.02229851570768224,0.023916878796462933,0.017832833881825924
0.1471034,0.0018726390945819718,0.003286336991897582,0.02269540350960196,0.021502317145894415,0.028478577507194146,0.022646875935631083,0.02383477095305578,0.01805224844701506
0.147569,0.0018544908053849168,0.00334975314823827,0.022565157208690272,0.02167313206080811,0.028330231135102614,0.022998172778389035,0.023752938166819552,0.01827203390581505
0.1480345,0.0018366518733903498,0.00341401591895709,0.022434583958822626,0.0218446618519279,0.028182572910473356,0.02335237540323464,0.0236713834148297,0.0184921604475419
0.1485,0.0018191229614106317,0.0034791221056027096,0.022303695442743483,0.022016905994960846,0.028035608952834034,0.023709452319217793,0.02359010956016141,0.018712598118753622
0.1489655,0.0018019047299972135,0.0035450682917799355,0.02217250335693233,0.022189863941438442,0.02788934517940603,0.02406937138475214,0.023509119352504704,0.01893331683214992
0.149431,0.0017849978390673865,0.003611850842137958,0.022041019410380745,0.022363535116096754,0.027743787309052702,0.024432099815388412,0.023428415428763488,0.019154286375564336
0.1498966,0.0017684029495140306,0.0036794659014085388,0.021909255323358766,0.022537918914160366,0.027598940866245637,0.024797604191766104,0.023348000313638474,0.019375476421045618
0.1503621,0.001752120724797547,0.003747909393494946,0.021777222826171342,0.022713014698531566,0.027454811185047445,0.025165850467740926,0.023267876420194126,0.019596856534024865
0.1508276,0.0017361518325191595,0.0038171770206124668,0.02164493365790562,0.022888821796886293,0.027311403413109697,0.025536803978685674,0.02318804605040986,0.019818396182564937
0.1512931,0.0017204969459747694,0.0038872642624813098,0.021512399565169805,0.023065339498678374,0.02716872251568448,0.025910429449962108,0.023108511395716017,0.020040064746688416
0.1517586,0.001705156745688529,0.003958166375572744,0.021379632300824496,0.02324256705205386,0.027026773279648,0.02628669100556151,0.023029274537515167,0.020261831527780497
0.1522241,0.0016901319209252938,0.004029878392409327,0.021246643622707458,0.023420503660677397,0.026885560317534595,0.026665552176911647,0.022950337447689602,0.02048366575806296
0.1526897,0.0016754231711811345,0.004102395120920081,0.02111344529235265,0.02359914848047287,0.026745088071579336,0.027046975911847734,0.022871701989096282,0.02070553661013548
0.1531552,0.0016610312076510779,0.0041757111438514545,0.020980049073704585,0.023778500616280587,0.026605360817767224,0.027430924583745287,0.02279336991605048,0.020927413206580415
0.1536207,0.0016469567546732859,0.004249820818234894,0.020846466731828744,0.023958559118433295,0.026466382669887014,0.027817360000812703,0.022715342874799815,0.021149264629627258
0.1540862,0.001633200551148891,0.004324718274911846,0.020712710031618894,0.02413932297925329,0.0263281575835875,0.028206243415541774,0.022637622403990237,0.02137105993087273
0.1545517,0.0016197633519367295,0.004400397418116967,0.020578790736501873,0.024320791129472746,0.026190689360433873,0.02859753553431428,0.022560209935125516,0.02159276814105252
0.1550172,0.0016066459292222249,0.004476851925120359,0.020444720607140397,0.0245029624345792,0.026053981651961638,0.02899119652716314,0.022483106793021696,0.021814358279860446
0.1554828,0.0015938490738596886,0.004554075245929632,0.020310511400134255,0.024685835691088228,0.025918037963725344,0.029387186037686176,0.022406314196257788,0.022035799365810765
0.1559483,0.0015813735966873153,0.004632060603052606,0.020176174866720204,0.024869409622745038,0.02578286165933934,0.02978546319311077,0.0223298332576239,0.02225706042613912
0.1564138,0.0015692203298141598,0.004710800991321503,0.02004172275147064,0.025053682876656574,0.025648455964507537,0.030185986614507415,0.0222536649845679,0.022478110506737585
0.1568793,0.001557390127878403,0.004790289177779444,0.019907166790991113,0.025238654019355777,0.025514823971039297,0.030588714427150308,0.022177810279641566,0.022698918682119068
0.1573448,0.0015458838692762246,0.0048705177016300566,0.01977251871261653,0.025424321532799367,0.02538196864084863,0.030993604271022906,0.022102269940947297,0.0229194540654061
0.1578103,0.0015347024573606118,0.0049514788742510306,0.01963779023310575,0.025610683810300745,0.02524989280993396,0.031400613311466784,0.02202704466258621,0.023139685818338987
0.1582759,0.0015238468216094503,0.00503316477927239,0.019502993057334102,0.025797739152399506,0.025118599192335767,0.031809698249971756,0.021952135035108573,0.02335958316129808
0.1587414,0.0015133179187622507,0.00511556727272028,0.01936813887698335,0.02598548576266936,0.02498809038406945,0.032220815335105416,0.02187754154596731,0.023579115383334737
0.1592069,0.0015031167339248747,0.005198677983227057,0.019233239369228404,0.026173921743466347,0.024858368867030984,0.03263392037357997,0.0218032645799754,0.023798251852205556
0.1596724,0.0014932442816416342,0.0052824883123084735,0.01909830619542018,0.026363045091619228,0.024729437012872838,0.03304896874145421,0.021729304419767816,0.024016962024404155
0.1601379,0.00148370160693413,0.005366989434708783,0.01896335099976392,0.026552853694064144,0.02460129708684783,0.03346591539546839,0.021655661246268738,0.02423521545518474
0.1606034,0.001474489786306215,0.0054521722988145685,0.018828385407992452,0.026743345323425455,0.024473951251618477,0.03388471488450975,0.02158233513916478,0.0244529818085714
0.161069,0.0014656099287144715,0.0055380276271381375,0.01869342102603392,0.026934517633544798,0.024347401571029284,0.03430532136120632,0.02150932607738483,0.024670230867346883
0.1615345,0.001457063176503597,0.005624545916871347,0.0185584694386738,0.027126368154960147,0.024221650013839285,0.03472768859364666,0.02143663393958723,0.024886932543014648
0.162,0.0014488507063061102,0.005711717440510658,0.0184235422082111,0.02731889429033668,0.024096698457412163,0.03515176997722289,0.02136425850465502,0.025103056885727535
0.1624655,0.0014409737299057813,0.005799532246554251,0.018288650873108905,0.027512093309851257,0.02397254869136131,0.035577518546594335,0.02129219945220004,0.025318574094176347
0.162931,0.0014334334950642032,0.005887980160272004,0.018153806946639428,0.027705962346532446,0.023849202421147103,0.03600488698776885,0.021220456363076845,0.025533454525431418
0.1633966,0.001426231286309914,0.005977050784549116,0.01801902191552378,0.027900498391558254,0.023726661271624018,0.0364338276502989,0.021149028719907474,0.025747668704730053
0.1638621,0.0014193684256894941,0.006066733500804106,0.01788430723856679,0.02809569828951397,0.02360492679053529,0.03686429255958922,0.021077915907618164,0.02596118733520279
0.1643276,0.001412846273480077,0.006157017469981995,0.01774967434528705,0.028291558733612887,0.023484000451953244,0.03729623342931293,0.0210071172139893,0.026173981307531374
0.1647931,0.001406666228862722,0.00624789163362343,0.017615134634542444,0.028488076260882865,0.023363883659663624,0.037729601673932606,0.020936631830219925,0.026386021709531762
0.1652586,0.0014008297305561268,0.006339344715010542,0.017480699473151458,0.02868524724732207,0.023244577750492632,0.03816434842132265,0.02086645885150838,0.02659727983565576
0.1657241,0.0013953382574101825,0.006431365220390324,0.017346380194510517,0.028883067903027287,0.023126083997575632,0.038600424525489056,0.020796597277650576,0.026807727196405565
0.1661897,0.0013901933289589,0.006523941440276307,0.017212188097207686,0.029081534267298422,0.02300840361356686,0.03903778057938245,0.020727046013657546,0.027017335527655985
0.1666552,0.0013853965059322535,0.006617061450829326,0.017078134443633115,0.02928064220372272,0.0228915377537901,0.039476366927800065,0.020657803870393846,0.02722607679987973
0.1671207,0.0013809493907265074,0.006710713115318085,0.01694423045858654,0.029480387395242218,0.022775487519330943,0.039916133680372196,0.020588869565238383,0.02743392322727151
0.1675862,0.0013768536278326124,0.006804884085660235,0.016810487327882144,0.029680765339208028,0.022660253960072006,0.04035703072462839,0.02052024172276923,0.027640847276766918
0.1680517,0.001373110904222273,0.006899561804044655,0.016676916196951014,0.02988177134242493,0.022545838077672742,0.040799007739138554,0.020451918875473922,0.027846821676952467
0.1685172,0.001369722949691318,0.0069947335046355585,0.016543528169441348,0.03008340051619002,0.0224322408284959,0.04124201420672396,0.020383899464486637,0.028051819426863536
0.1689828,0.001366691537160026,0.007090386215359071,0.016410334305816482,0.03028564777132953,0.022319463126482513,0.04168599942773305,0.020316181840353685,0.028255813804667674
0.1694483,0.0013640184829300929,0.007186506759772816,0.0162773456219509,0.03048850781323814,0.0222075058459772,0.042130912533376794,0.020248764263828534,0.02845877837623118
0.1699138,0.0013617056468979468,0.0072830817590190736,0.016144573087724386,0.030691975136925547,0.022096369824505486,0.04257670249911832,0.020181644906697604,0.028660687003567564
0.1703793,0.0013597549327241268,0.007380097633861961,0.016012027625614607,0.030896044022075343,0.021986055865504582,0.04302331815811159,0.020114821852637955,0.02886151385316673
0.1708448,0.0013581682879584525,0.007477540606809067,0.015879720109288543,0.031100708528121447,0.02187656474100894,0.043470708214683934,0.020048293098107888,0.029061233404204197
0.1713103,0.0013569477041207119,0.0075753967043179216,0.01574766136219334,0.0313059624893474,0.021767897194291612,0.043918821257857295,0.01998205655327131,0.029259820456629688
0.1717759,0.001356095216736599,0.0076736517590875976,0.01561586215614718,0.03151179951001383,0.021660053942462308,0.04436760577490289,0.01991611004295667,0.029457250139134517
0.1722414,0.001355612905328633,0.0077722914124357285,0.01548433320993087,0.03171821295951935,0.021553035679022902,0.044817010164923905,0.019850451307651076,0.029653497916997163
0.1727069,0.0013555028933618075,0.00787130111676115,0.01535308518788098,0.031925195967600205,0.02144684307638088,0.04526698275246071,0.01978507800453006,0.029848539599806385
0.1731724,0.0013557673481437251,0.007970666138092325,0.015222128698485366,0.032132741419573826,0.021341476788321042,0.0457174718011129,0.019719987708523408,0.030042351349061195
0.1736379,0.0013564084806789978,0.008070371558721654,0.015091474292982047,0.03234084195163135,0.02123693745243566,0.04616842552717265,0.019655177913417206,0.030234909685646936
0.1741034,0.001357428545477709,0.008170402279925715,0.014961132463962449,0.03254948994618412,0.021133225692513163,0.04661979211326361,0.019590646032992362,0.03042619149718654
0.174569,0.0013588298403177735,0.0082707430247714,0.014831113643980216,0.03275867752726876,0.0210303421208852,0.04707151972197959,0.019526389402199584,0.0306161740452661
0.1750345,0.0013606147059610602,0.008371378341007915,0.014701428204166726,0.03296839655601552,0.02092828734073177,0.04752355650951738,0.01946240527837089,0.030804834972533675
0.1755,0.0013627855258231821,0.008472292604044503,0.01457208645285449,0.03317863862618393,0.020827061948344005,0.04797585063929772,0.019398690842467606,0.030992152309670323
0.1759655,0.0013653447255968926,0.00857347002001382,0.014443098634209643,0.03338939505976999,0.020726666535344024,0.04842835029556884,0.019335243200364824,0.031178104482231957
0.176431,0.0013682947728290578,0.008674894628920777,0.014314474926874581,0.033600656902688666,0.020627101690861002,0.04888100369698676,0.019272059384172324,0.031362670317360584
0.1768966,0.0013716381764511934,0.008776550307876725,0.01418622544262183,0.03381241492053522,0.02052836800366261,0.049333759110166464,0.01920913635359194,0.031545829050363294
0.1773621,0.0013753774862635645,0.008878420774418814,0.014058360225020092,0.03402465959442895,0.020430466064240694,0.049786564863198,0.019146470997311444,0.03172756033115722
0.1778276,0.0013795152923728484,0.008980489589914285,0.013930889248113384,0.034237381116942356,0.020333396466849937,0.05023936935912117,0.019084060134434932,0.03190784423057843
0.1782931,0.0013840542245833675,0.009082740163049512,0.01380382241511406,0.03445056938811907,0.020237159811498276,0.050692121089353004,0.019021900515949538,0.032086661246552524
0.1787586,0.0013889969517418995,0.009185155753403491,0.013677169557110486,0.03466421401158351,0.020141756705887602,0.05114476864706216,0.018959988826228298,0.03226399231012456
0.1792241,0.001394346181036085,0.009287719475105548,0.013550940431790054,0.03487830429074551,0.02004718776730324,0.05159726074048494,0.018898321684568762,0.03243981879134562
0.1796897,0.0014001046572464683,0.009390414300576907,0.013425144722178192,0.03509282922510311,0.01995345362445062,0.05204954620617797,0.018836895646766792,0.03261412250501303
0.1801552,0.001406275161952211,0.00949322306435577,0.013299792035393906,0.03530777750664687,0.019860554919237435,0.052501574022202624,0.018775707206724994,0.032786885716261045
0.1806207,0.0014128605126905555,0.00959612846700551,0.013174891901422424,0.035523137516369006,0.019768492308499516,0.052953293321236015,0.018714752798095032,0.032958091145998576
0.1810862,0.0014198635620701141,0.009699113079105474,0.013050453771905368,0.03573889732088064,0.019677266465668537,0.053404653403603404,0.018654028795953036,0.03312772197619018
0.1815517,0.0014272871968380807,0.009802159345323878,0.012926487018948921,0.03595504466914032,0.01958687808237957,0.05385560375022652,0.018593531518507282,0.033295761854976604
0.1820172,0.0014351343369014675,0.009905249588572194,0.012803000933950336,0.03617156698929706,0.019497327870016363,0.0543060940354818,0.018533257228837488,0.03346219490163044
0.1824828,0.0014434079343024645,0.010008366014240386,0.012680004726443123,0.03638845138565084,0.01940861656119219,0.05475607413996212,0.018473202136665045,0.03362700571134271
0.1829483,0.0014521109721480209,0.010111490714512292,0.01255750752296128,0.03660568463573327,0.019320744911163982,0.055205494163135624,0.01841336240015358,0.033790179359835734
0.1834138,0.0014612464634937415,0.010214605672760361,0.012435518365922814,0.03682325318751136,0.019233713699177563,0.05565430443589432,0.01835373412773924,0.033951701407797595
0.1838793,0.0014708174501821846,0.010317692768018949,0.01231404621253284,0.03704114315671695,0.019147523729741996,0.05610245553298548,0.01829431337999012,0.03411155790513344
0.1843448,0.0014808270016356592,0.010420733779535337,0.012193099933706472,0.03725934032430487,0.01906217583383131,0.05654989828531855,0.018235096171494165,0.034269735395028735
0.1848103,0.0014912782136036157,0.010523710391397557,0.012072688313011688,0.037477830134042975,0.018977670870012172,0.05699658379214062,0.01817607847277495,0.034426220917819425
0.1852759,0.0015021742068647551,0.010626604197238074,0.011952820045632357,0.037696597690237615,0.01889400972549649,0.05744246343307353,0.018117256212234735,0.03458100201466401
0.1857414,0.0015135181258839954,0.010729396705012313,0.011833503737351495,0.03791562775559812,0.018811193317118124,0.05788748888000614,0.01805862527812421,0.03473406673101251
0.1862069,0.0015253131374244756,0.010832069341850945,0.011714747903554739,0.0381349047492442,0.018729222592233245,0.058331612108835695,0.018000181520538405,0.03488540361986748
0.1866724,0.001537562429114808,0.010934603458984794,0.01159656096825404,0.0383544127448599,0.018648098529543997,0.05877478541105221,0.017941920753438402,0.03503500174483276
0.1871379,0.0015502692079718274,0.011036980336741132,0.011478951263131403,0.03857413546899777,0.01856782213984538,0.059216961405160196,0.017883838756698505,0.03518285068294563
0.1876034,0.0015634366988791365,0.011139181189610013,0.011361927026602534,0.03879405629953652,0.01848839446669548,0.05965809304793232,0.017825931278178553,0.035328940527288584
0.188069,0.0015770681430218158,0.011241187171379272,0.01124549640290015,0.03901415826429547,0.018409816587009232,0.06009813364548994,0.017768194035821017,0.03547326188937687
0.1885345,0.0015911667962777293,0.011342979380336661,0.011129667441176626,0.03923442403980856,0.018332089611576025,0.06053703686420598,0.017710622719772424,0.0356158059013181
0.189,0.001605735927565956,0.011444538864537553,0.011014448094625562,0.039454835950261107,0.01825521468550157,0.06097475674142575,0.017653212994528513,0.03575656421773993
0.1894655,0.0016207788171529525,0.01154584662713654,0.01089984621962181,0.03967537596659217,0.01817919298857483,0.06141124769600147,0.017595960501102417,0.035895529017481935
0.189931,0.0016362987549171338,0.011646883631781187,0.010785869574879361,0.03989602570576577,0.018104025735561056,0.061846464538636355,0.017538860859215,0.036032693005047696
0.1903966,0.0016522990385726217,0.011747630808066071,0.010672525820626532,0.04011676643021403,0.018029714176422355,0.06228036248203388,0.017481909669506406,0.036168049411813466
0.1908621,0.0016687829718529496,0.011848069057045212,0.010559822517797801,0.040337579047455885,0.017956259596467246,0.06271289715084774,0.01742510251576764,0.03630159199699026
0.1913276,0.00168575386265553,0.01194817925680087,0.010447767127241804,0.040558444109894766,0.017883663316430747,0.06314402459142794,0.017368434967191027,0.036433315048336724
0.1917931,0.001703215021147729,0.01204794226806676,0.010336367008945052,0.04077934181479941,0.017811926692486418,0.06357370128135793,0.017311902580638198,0.0365632133826208
0.1922586,0.001721169757835425,0.012147338939903609,0.010225629421271105,0.04100025200447149,0.01774105111619183,0.06400188413877773,0.017255500902924083,0.03669128234582884
0.1927241,0.0017396213815949815,0.012246350115425112,0.010115561520215047,0.041221154166604025,0.01767103801436881,0.06442853053148773,0.017199225473115465,0.03681751781312115
0.1931897,0.0017585731976696279,0.012344956637572319,0.010006170358673249,0.041442027434834626,0.017601888848919757,0.06485359828582805,0.0171430718248424,0.036941916188533694
0.1936552,0.001778028505631304,0.01244313935493456,0.009897462885728455,0.04166285058949701,0.017533605116581252,0.0652770456953287,0.01708703548862074,0.03706447440442674
0.1941207,0.001797990597309077,0.012540879127615057,0.009789445945950275,0.0418836020585744,0.017466188348616116,0.06569883152912487,0.017031111994184153,0.037185189920681844
0.1945862,0.0018184627546852915,0.01263815683313928,0.009682126278711203,0.042104259918857946,0.017399640110444994,0.06611891504013238,0.016975296872823734,0.037304060723649515
0.1950517,0.0018394482477606757,0.012734953372404134,0.00957551051751824,0.042324801897313136,0.017333962001218433,0.06653725597297763,0.01691958565973371,0.03742108532485043
0.1955172,0.001860950332389662,0.012831249675665976,0.009469605189360361,0.0425452053726571,0.017269155653330318,0.0669538145716765,0.016863973896361635,0.0375362627594333
0.1959828,0.0018829722480872416,0.012927026708565293,0.009364416714072081,0.04276544737714945,0.017205222731873568,0.067368551587057,0.016808457132761672,0.037649592584392794
0.1964483,0.0019055172158086993,0.013022265478185963,0.009259951403713686,0.04298550459859933,0.017142164934038886,0.06778142828392139,0.016753030929949456,0.03776107487655096
0.1969138,0.0019285884357036107,0.013116947039146752,0.009156215461968804,0.043205353382591336,0.01707998398845737,0.06819240644794355,0.016697690862257135,0.037870710230305825
0.1973793,0.001952189084845508,0.013211052499722771,0.009053214983560154,0.043424969734932435,0.017018681654487722,0.06860144839229865,0.016642432519686952,0.03797849975515074
0.1978448,0.0019763223149386402,0.013304563027994497,0.008950955953684413,0.04364432932432231,0.016958259721448703,0.0690085169640229,0.016587251510261705,0.03808444507296849
0.1983103,0.0020009912500032743,0.013397459858021921,0.008849444247467107,0.04386340748524927,0.016898720007797446,0.0694135755501026,0.016532143462370263,0.03818854831510427
0.1987759,0.0020261989840409875,0.013489724296041342,0.008748685629438422,0.044082179221113925,0.016840064360254103,0.06981658808329302,0.01647710402710628,0.038290812119221924
0.1992414,0.002051948578681406,0.013581337726682205,0.00864868575303076,0.044300619207582936,0.016782294652873276,0.07021751904766917,0.016422128880598186,0.038391239625947836
0.1997069,0.0020782430608118447,0.013672281619201318,0.008549450160098815,0.044518701796175154,0.016725412786062543,0.0706163334839107,0.016367213726328583,0.038489834475307114
0.2001724,0.002105085420191287,0.013762537533731722,0.008450984280462849,0.04473640101808196,0.016669420685548202,0.07101299699432397,0.01631235429744119,0.038586600802956394
0.2006379,0.002132478607050125,0.013852087127543329,0.008353293431475832,0.04495369058822393,0.016614320301288347,0.07140747574760321,0.016257546359033554,0.03868154323621768
0.2011034,0.0021604255296770814,0.013940912161312425,0.008256382817614968,0.04517054390954527,0.016560113606333218,0.07179973648333447,0.01620278571043371,0.03877466688991752
0.201569,0.0021889290519947,0.014028994505396982,0.008160257530098212,0.04538693407754734,0.0165068025956326,0.07218974651624502,0.01614806818745898,0.038865977362035654
0.2020345,0.002217991991124802,0.014116316146114692,0.008064922546526231,0.04560283388506218,0.01645438928479001,0.07257747374020262,0.016093389664655164,0.03895548072916716
0.2025,0.0022476171149452746,0.01420285919202056,0.007970382730550283,0.04581821582726698,0.016402875708763212,0.07296288663196904,0.016038746057514448,0.03904318354180191
0.2029655,0.0022778071396395575,0.01428860588018086,0.0078766428315665,0.04603305210693998,0.016352263920510562,0.07334595425471242,0.015984133324670503,0.03912909281942526
0.203431,0.0023085647272401656,0.014373538582440176,0.007783707484436974,0.04624731463995844,0.016302555989582565,0.07372664626128339,0.01592954747006929,0.0392132160454436
0.2038966,0.002339892483167582,0.014457639811678245,0.007691581209238051,0.04646097506103874,0.01625375400065794,0.07410493289725861,0.015874984545114174,0.03929556116193859
0.2043621,0.0023717929537658495,0.014540892228053284,0.007600268411036177,0.04667400472971896,0.016205860052023374,0.07448078500375588,0.015820440650783897,0.039376136564253705
0.2048276,0.002404268623836174,0.014623278645228412,0.007509773379691596,0.046886374736583615,0.016158876253996018,0.07485417402002348,0.015765911939721967,0.03945495109541674
0.2052931,0.0024373219141698567,0.014704782036577714,0.0074201002896901475,0.04709805590973007,0.01611280472728772,0.07522507198580683,0.01571139461829592,0.039532014040401714
0.2057586,0.0024709551790818717,0.014785385541368459,0.00733125320000336,0.047309018821476014,0.01606764760130979,0.07559345154349435,0.01565688494862494,0.03960733512023398
0.2062241,0.0025051707039464026,0.01486507247091582,0.007243236053976983,0.047519233795307175,0.01602340701241704,0.07595928594004481,0.015602379250574217,0.03968092448594199
0.2066897,0.0025399707027356578,0.014943826314706378,0.007156052679248035,0.047728670913064215,0.01598008510208969,0.07632254902869842,0.01554787390371457,0.0397527927123595
0.2071552,0.0025753573155632785,0.015021630746486521,0.007069706787690423,0.04793730002236764,0.015937684015051704,0.07668321527047467,0.01549336534924566,0.03982295079178194
0.2076207,0.002611332606233647,0.015098469630311823,0.006984201975389108,0.048145090744279646,0.01589620589732392,0.07704125973546025,0.015438850091881293,0.039891410127480535
0.2080862,0.002647898559798383,0.015174327026553313,0.006899541722642825,0.04835201248120174,0.015855652894210513,0.07739665810389161,0.01538432470169519,0.03995818252707795
0.2085517,0.0026850570801213117,0.015249187197856489,0.006815729393995252,0.04855803442500656,0.01581602714821723,0.07774938666703665,0.01532978581592574,0.04002328019578929
0.2090172,0.0027228099874531853,0.015323034615048955,0.006732768238294571,0.048763125565402535,0.015777330796900135,0.0780994223278803,0.01527523014073828,0.04008671572953228
0.2094828,0.002761159016017444,0.015395853962992527,0.006650661388781316,0.04896725469852965,0.015739565970643583,0.07844674260161841,0.015220654452943544,0.04014850210791079
0.2099483,0.0028001058116083133,0.015467630146375737,0.00656941186320437,0.04917039043578441,0.01570273479036635,0.07879132561596398,0.015166055601671096,0.040208652687075935
0.2104138,0.0028396519292025373,0.01553834829544271,0.00648902256396499,0.04937250121287213,0.015666839365154926,0.07913315011126948,0.0151114305099966,0.04026718119246924
0.2108793,0.002879798830586046,0.015607993771654328,0.00640949627828871,0.04957355529908446,0.015631881789823093,0.07947219544046823,0.015056776176521914,0.040324101711452356
0.2113448,0.00292054788199685,0.015676552173277715,0.0063308356784249915,0.049773520806799657,0.015597864142397295,0.079808441568838,0.015002089676907205,0.04037942868582779
0.2118103,0.002961900351785451,0.01574400934089995,0.006253043321874418,0.049972365701203024,0.015564788481527616,0.08014186907358933,0.01494736816535448,0.04043317690425496
0.2122759,0.003003857408094052,0.01581035136286189,0.006176121651643272,0.0501700578102243,0.015532656843824608,0.08047245914328087,0.014892608876042032,0.04048536149456572
0.2127414,0.003046420116555871,0.015875564580607918,0.006100072996525251,0.0503665648346889,0.015501471241122571,0.08080019357706397,0.014837809124509512,0.04053599791598333
0.2132069,0.0030895894380158625,0.015939635593947378,0.0060248995714101555,0.05056185435867901,0.01547123365767053,0.08112505478375856,0.01478296630899331,0.04058510195124847
0.2136724,0.0031333662262741585,0.01600255126622351,0.005950603477619264,0.05075589386010048,0.015441946047252844,0.08144702578076198,0.014728077911712068,0.04063268969865576
0.2141379,0.0031777512258535307,0.016064298729385727,0.005877186703267165,0.050948650721450786,0.015413610330242244,0.08176609019279261,0.014673141500102132,0.04067877756400411
0.2146034,0.003222745069792153,0.01612486538896116,0.005804651123649738,0.05114009224078339,0.015386228390588856,0.08208223225046973,0.014618154728002788,0.04072338225246437
0.215069,0.0032683482774629236,0.016184238928921547,0.005732998501657965,0.05133018564286341,0.015359802072749148,0.08239543678873075,0.014563115336791112,0.04076652076036785
0.2155345,0.003314561252420584,0.016242407316441665,0.005662230488217232,0.051518898090509316,0.01533433317855899,0.08270568924508709,0.014508021156466206,0.04080821036691925
0.216,0.003361384280277855,0.01629935880654566,0.005592348622751729,0.05170619669611549,0.015309823464055128,0.08301297565771858,0.014452870106682609,0.04084846862583783
0.2164655,0.0034088175266117834,0.01635508194663763,0.005523354333673534,0.05189204853334975,0.015286274636249288,0.08331728266340634,0.01439766019773269,0.04088731335693036
0.216931,0.003456861034901485,0.01640956558091303,0.005455248938896028,0.052076420649019906,0.015263688349859235,0.08361859749530354,0.014342389531477906,0.04092476263759936
0.2173966,0.003505514724498448,0.016462798854647437,0.0053880336463711705,0.052259280075103234,0.015242066204000993,0.08391690798054266,0.014287056302228837,0.04096083479429009
0.2178621,0.0035547783886305815,0.01651477121835911,0.00532170955465025,0.05244059384093205,0.01522140973884649,0.0842122025376776,0.014231658797574,0.040995548393879575
0.2183276,0.0036046516924411603,0.016565472431841942,0.005256277653467664,0.05262032898552836,0.015201720432250732,0.08450447017395808,0.01417619539915743,0.04102892223501102
0.2187931,0.003655134171063846,0.016614892568065462,0.0051917388243472905,0.05279845257008048,0.015182999696352685,0.08479370048243363,0.014120664583405053,0.04106097533937692
0.2192586,0.003706225227734953,0.016663022016938665,0.005128093841231015,0.052974931690553985,0.0151652488741538,0.08507988363888348,0.014065064922199817,0.041091726942954064
0.2197241,0.003757924131944127,0.016709851488934696,0.005065343371128908,0.053149733490429424,0.015148469236078264,0.08536301039856864,0.014009395083505608,0.04112119648719353
0.2201897,0.0038102300176245723,0.01675537201857363,0.005003487974790637,0.05332282517355854,0.015132661976518783,0.085643072092802,0.013953653831939965,0.041149403610168764
0.2206552,0.0038631418813839615,0.016799574967760807,0.00494252810739762,0.05349417401713104,0.015117828210371836,0.08592006062533289,0.013897840029295687,0.041176368137684584
0.2211207,0.0039166585807771164,0.016842452028978327,0.004882464119275464,0.053663747384743034,0.015103968969566185,0.08619396846854276,0.013841952635011595,0.04120211007435024
0.2215862,0.003970778832621547,0.016883995228327352,0.004823296256626213,0.05383151273955846,0.015091085199588393,0.08646478865944966,0.013785990706592657,0.041226649594619864
0.2220517,0.004025501211356884,0.016924196928418837,0.004765024662279898,0.05399743765755432,0.015079177756009003,0.08673251479551942,0.01372995339997981,0.04125000703380431
0.2225172,0.004080824147449237,0.016963049831110386,0.004707649376464871,0.05416148984084044,0.015068247401012973,0.0869971410302818,0.013673839969869749,0.041272202879059236
0.2229828,0.0041367459258414745,0.017000546980086784,0.004651170337596368,0.054323637131044857,0.015058294799937828,0.08725866206875033,0.013617649769985028,0.04129325776035474
0.2234483,0.0041932646844504195,0.017036681763281908,0.004595587383082743,0.05448384752275556,0.015049320517822882,0.08751707316264457,0.01356138225329481,0.04131319244143245
0.2239138,0.004250378412711931,0.017071447915139756,0.004540900250148792,0.05464208917700981,0.015041325015972737,0.08777237010541414,0.013505036972186532,0.041332027810755935
0.2243793,0.004308084950174848,0.017104839518712535,0.004487108576675567,0.05479833043482224,0.01503430864853821,0.08802454922706379,0.013448613578588696,0.041349784872460105
0.2248448,0.0043663819851447695,0.01713685100759393,0.004434211902056088,0.05495253983074378,0.015028271659117716,0.08827360738877978,0.013392111824044883,0.041366484737305496
0.2253103,0.004425267053378612,0.017167477167685914,0.004382209668066332,0.05510468610644273,0.015023214177382066,0.08851954197735894,0.013335531559739022,0.04138214861364281
0.2257759,0.004484737536830902,0.01719671313879766,0.004331101219750854,0.055254738224300215,0.015019136215725558,0.08876235089944184,0.013278872736471818,0.04139679779839319
0.2262414,0.004544790662452722,0.01722455441607529,0.004280885806322392,0.055402665381011636,0.01501603766594607,0.08900203257555182,0.01322213540458818,0.04141045366804954
0.2267069,0.00460542350104424,0.017250996851261306,0.004231562582074741,0.05554843702118591,0.015013918295956804,0.08923858593394193,0.01316531971385547,0.04142313766970421
0.2271724,0.004666632966161683,0.01727603665378253,0.0041831306073081866,0.05569202285093392,0.015012777746532176,0.08947201040425136,0.013108425913292254,0.04143487131210851
0.2276379,0.004728415813079625,0.017299670391665262,0.004135588849266699,0.05583339285143748,0.015012615528090316,0.08970230591097357,0.01305145435094727,0.041445676156769605
0.2281034,0.004790768637809404,0.0173218949922765,0.0040889361830861145,0.05597251729248993,0.015013431017514461,0.08992947286673952,0.012994405473628338,0.041455573809090394
0.228569,0.004853687876174475,0.01734270774288983,0.004043171392752482,0.0561093667459999,0.015015223455015506,0.09015351216541978,0.012937279826580992,0.04146458590955854
0.2290345,0.004917169802943449,0.017362106291074764,0.003998293172069748,0.05624391209944986,0.015017991941037806,0.09037442517505034,0.012880078053116547,0.04147273412499069
0.2295,0.004981210531021573,0.017380088644908306,0.00395430012563597,0.05637612456930178,0.015021735433210247,0.09059221373058804,0.012822800894189407,0.04148004013983812
0.2299655,0.005045806010701358,0.017396653173007634,0.003911190769827275,0.056505975714342786,0.0150264527433445,0.09080688012650215,0.012765449187923267,0.04148652564755994
0.230431,0.005110952028973037,0.01741179860438315,0.003868963533788786,0.056633437448963764,0.01503214253448223,0.09101842710920893,0.012708023869085946,0.041492212342069956
0.2308966,0.0051766442088955165,0.01742552402811149,0.0038276167604317972,0.056758482056364246,0.015038803317992896,0.09122685786935739,0.012650525968512422,0.04149712190926317
0.2313621,0.005242878009028431,0.01743782889282877,0.0037871487074365084,0.056881082201676585,0.015046433450723717,0.09143217603397463,0.012592956612475713,0.04150127601862755
0.2318276,0.005309648722925877,0.017448713006045023,0.003747557548259715,0.05700121094500236,0.015055031132203224,0.09163438565848044,0.012535317022005166,0.041504696314946535
0.2322931,0.005376951478692386,0.017458176533281394,0.0037088413731469127,0.057118841754353514,0.015064594401899868,0.09183349121857996,0.01247760851215182,0.041507404410097586
0.2327586,0.005444781238601635,0.01746621999703239,0.0036709981901483692,0.05723394851849079,0.015075121136537079,0.09202949760204499,0.012419832491200631,0.041509421874951755
0.2332241,0.005513132798778388,0.017472844275555847,0.0036340259261387715,0.05734650555965207,0.015086609047466212,0.09222241010039278,0.012361990459829419,0.04151077023137926
0.2336897,0.005582000788944086,0.017478050601493777,0.0035979224278401374,0.0574564876461632,0.015099055678098836,0.09241223440047201,0.01230408401021454,0.041511470944365456
0.2341552,0.005651379672226543,0.017481840560327394,0.003562685462847692,0.057563870004924404,0.01511245840139978,0.09259897657596433,0.012246114825083382,0.04151154541424162
0.2346207,0.005721263745034108,0.01748421608866979,0.0035283127206584748,0.05766862833376499,0.01512681441744228,0.09278264307881016,0.012188084676713973,0.04151101496903462
0.2350862,0.005791647136994664,0.017485179472399654,0.003494801813702457,0.0577707388136599,0.01514212075102646,0.09296324073056675,0.012129995425882301,0.0415099008569393
0.2355517,0.005862523810959827,0.017484733344639458,0.003462150278375969,0.057870178120801315,0.015158374249362432,0.09314077671370649,0.012071849020758274,0.041508224238916945
0.2360172,0.005933887563074674,0.0174828806835814,0.003430355576077236,0.05796692343851858,0.015175571579819034,0.09331525856286371,0.012013647495751458,0.04150600618142328
0.2364828,0.006005732022913378,0.01747962481016434,0.003399415094243818,0.05806095246903995,0.015193709227739322,0.09348669415603832,0.011955392970307921,0.04150326764926883
0.2369483,0.006078050653681069,0.017474969385604982,0.0033693261473917444,0.058152243445089465,0.015212783494323735,0.0936550917057648,0.011897087647659572,0.041500029498614414
0.2374138,0.006150836752482334,0.01746891840878663,0.003340085978156112,0.05824077514131206,0.015232790494581852,0.09382045975025533,0.011838733813527302,0.041496312470103894
0.2378793,0.0062240834506567064,0.017461476213508888,0.0033116917583328825,0.058326526885520015,0.015253726155353567,0.09398280714452492,0.011780333834779355,0.041492137182136436
0.2383448,0.006297783714181536,0.017452647465601653,0.003284140589921604,0.05840947856975347,0.015275586213400447,0.0941421430515065,0.01172189015804628,0.04148752412428003
0.2388103,0.006371930344142606,0.01744243715990689,0.0032574295061687615,0.05848961066114763,0.015298366213568063,0.09429847693316266,0.011663405308293824,0.041482493650827686
0.2392759,0.006446515977272861,0.017430850617131614,0.0032315554726114375,0.05856690421259927,0.015322061507020143,0.09445181854160116,0.011604881887355227,0.041477065974497525
0.2397414,0.006521533086559559,0.0174178934805755,0.0032065153881209564,0.05864134087322529,0.015346667249545455,0.09460217791019992,0.011546322572424389,0.04147126116027767
0.2402069,0.0065969739819201345,0.017403571712736578,0.003182306085946185,0.058712902898606194,0.015372178399938544,0.09474956534474743,0.011487730114511449,0.0414650991194164
0.2406724,0.006672830810946992,0.017387891591798352,0.0031589243347561395,0.05878157316080735,0.015398589718455426,0.09489399141460318,0.011429107336862301,0.041458599603557925
0.2411379,0.006749095559721447,0.017370859708001736,0.0031363668396815546,0.058847335158171116,0.0154258957653456,0.09503546694388273,0.011370457133343639,0.04145178219902381
0.2416034,0.006825760053696936,0.0173524829599052,0.0031146302433550472,0.05891017302487265,0.015454090899461875,0.09517400300267129,0.011311782466795043,0.04144466632124006
0.242069,0.0069028159586515935,0.017332768550536552,0.003093711126949512,0.05897007154023241,0.015483169276949808,0.09530961089826846,0.011253086367349781,0.04143727120930981
0.2425345,0.0069802547817102815,0.017311723983439685,0.003073606011214366,0.05902701613777844,0.015513124850018671,0.09544230216646675,0.011194371930725856,0.041429615920731494
0.243,0.007058067872436101,0.01728935705861978,0.0030543113575092367,0.05908099291405178,0.015543951365796007,0.09557208856286559,0.01113564231648904,0.041421719326262464
0.2434655,0.007136246423991389,0.017265675868390458,0.003035823568834672,0.0591319886371489,0.015575642365267766,0.09569898205422252,0.011076900746289631,0.04141360010492789
0.243931,0.00721478147436817,0.017240688793126336,0.00301813899085943,0.05917999075499528,0.015608191182306021,0.09582299480984303,0.011018150502074834,0.041405276739174865
0.2443966,0.007293663907688027,0.017214404496924594,0.003001253912943893,0.059224987403344545,0.01564159094278619,0.09594413919301173,0.010959394924278705,0.04139676751017143
0.2448621,0.007372884455571313,0.017186831923179175,0.0029851645691591163,0.05926696741349783,0.015675834563795673,0.09606242775246844,0.010900637409991623,0.04138809049325014
0.2453276,0.0074524336985756405,0.017157980290071352,0.002969867139301027,0.05930592031973821,0.015710914752935807,0.09617787321393513,0.010841881411111235,0.04137926355349551
0.2457931,0.007532302067703552,0.017127859085980458,0.002955357749899267,0.059341836366474686,0.01574682400771906,0.09629048847170023,0.010783130432476765,0.041370304341474394
0.2462586,0.007612479845979275,0.01709647806481867,0.0029416324752201835,0.05937470651509011,0.01578355461506338,0.09640028658026863,0.010724388029988539,0.04136123028910801
0.2467241,0.00769295717009441,0.017063847241293888,0.0029286873382634725,0.059404522450487336,0.01582109865088557,0.09650728074608561,0.010665657808714528,0.04135205860568418
0.2471897,0.0077737240321223726,0.01702997688610484,0.0029165183117519783,0.059431276587327185,0.01585944797979559,0.09661148431934294,0.01060694342098561,0.04134280627400789
0.2476552,0.007854770281301313,0.016994877521072677,0.0029051213191141857,0.059454962075951606,0.0158985942548937,0.0967129107858753,0.010548248564481291,0.041333490046687967
0.2481207,0.007936085625885223,0.01695855991421333,0.0028944922354589286,0.05947557280798487,0.01593852891767241,0.09681157375915442,0.010489576980307504,0.041324126442557514
0.2485862,0.00801765963506285,0.016921035074755147,0.0028846268885418707,0.05949310342160548,0.01597924319802519,0.09690748697238806,0.01043093245106813,0.04131473174322551
0.2490517,0.008099481740943975,0.01688231424810614,0.002875521059723338,0.0595075493064812,0.016020728114363746,0.09700066427073029,0.010372318798931843,0.041305321989757
0.2495172,0.008181541240612582,0.016842408910775417,0.002867170484917074,0.059518906608359755,0.016062974473845745,0.09709111960360965,0.010313739883695796,0.04129591297947917
0.2499828,0.008263827298246321,0.01680133076525314,0.0028595708555295405,0.059527172233307606,0.01610597287271464,0.09717886701718235,0.010255199600847628,0.04128652026291047
0.2504483,0.008346328947301675,0.01675909173485331,0.002852717819389367,0.05953234385159022,0.0161497136967532,0.09726392064691786,0.010196701879627183,0.04127715914080988
0.2509138,0.008429035092764147,0.01671570395852366,0.0028466069816665785,0.05953441990118738,0.016194187121852315,0.09734629471032517,0.010138250681089263,0.04126784466134296
0.2513793,0.00851193451346272,0.016671179785626693,0.002841233905781237,0.059533399590938264,0.016239383114696523,0.09742600349982866,0.010079849996168651,0.041258591617361375
0.2518448,0.008595015864447792,0.016625531770695978,0.0028365941143011263,0.059529282903311886,0.016285291433567623,0.09750306137580196,0.010021503843748546,0.041249414543792
0.2523103,0.008678267679431724,0.016578772668171596,0.0028326830898281075,0.05952207059679923,0.016331901629267766,0.09757748275976837,0.00996321626873346,0.04124032771513157
0.2527759,0.008761678373291181,0.016530915427118528,0.0028294962758727673,0.059511764207924395,0.016379203046163145,0.09764928212777552,0.009904991340127555,0.041231345143042705
0.2532414,0.008845236244630331,0.01648197318593167,0.002827029077716947,0.059498366052872356,0.01642718482334939,0.09771847400395219,0.00984683314911931,0.04122248057404678
0.2537069,0.00892892947840398,0.016431959267031105,0.0028252768632637468,0.05948187922873148,0.016475835895939605,0.09778507295425493,0.009788745807173344,0.04121374748730893
0.2541724,0.00901274614859967,0.016380887171551048,0.0028242349638745823,0.059462307614348675,0.016525144996475935,0.0978490935804125,0.00973073344413015,0.04120515909251076
0.2546379,0.009096674220977702,0.016328770574025823,0.0028238986751928513,0.05943965587079516,0.01657510065646523,0.09791055051407573,0.009672800206314499,0.041196728327806555
0.2551034,0.00918070155586801,0.016275623317076195,0.0028242632579537903,0.0594139294414408,0.016625691208039448,0.09796945841118043,0.009614950254653247,0.041188467857859366
0.255569,0.009264815911022696,0.016221459406099224,0.0028253239387801103,0.05938513455163541,0.01667690478574111,0.09802583194653054,0.00955718776280322,0.041180390071954086
0.2560345,0.00934900494452301,0.016166293003964795,0.0028270759109630225,0.05935327820799596,0.016728729328434184,0.09807968580860787,0.009499516915289953,0.04117250708218537
0.2565,0.009433256217739501,0.016110138425721846,0.002829514335228285,0.05931836819729941,0.016781152581340462,0.09813103469461487,0.009441941905657966,0.04116483072171878
0.2569655,0.009517557198344016,0.016053010133317277,0.0028326343404869543,0.05928041308498158,0.01683416209820152,0.09817989330575581,0.009384466934633328,0.04115737254312389
0.257431,0.009601895263372203,0.01599492273033044,0.002836431024570558,0.059239422213243284,0.0168877452435661,0.09822627634276195,0.009327096208299166,0.04115014381677829
0.2578966,0.00968625770233514,0.015935890956726043,0.002840899454950456,0.05919540569876486,0.016941889195202776,0.09827019850166599,0.009269833936284793,0.04114315552934165
0.2583621,0.009770631720378717,0.015875929683628155,0.0028460346694412094,0.05914837443003099,0.016996580946637557,0.09831167446983109,0.009212684329969089,0.04113641838229905
0.2588276,0.009855004441489379,0.015815053908118045,0.0028518316768878513,0.05909834006426769,0.017051807309816147,0.09835071892223944,0.00915565160069869,0.04112994279057335
0.2592931,0.00993936291174481,0.015753278748058413,0.002858285457836985,0.05904531502399394,0.017107554917890344,0.09838734651804523,0.00909873995802151,0.041123738881206885
0.2597586,0.010023694102608168,0.015690619436946475,0.0028653909651917106,0.05898931249319108,0.017163810228128136,0.09842157189739582,0.009041953607936097,0.041117816492113275
0.2602241,0.010107984914264435,0.015627091318798355,0.0028731431248504463,0.05893034641309356,0.017220559524946884,0.09845340967852481,0.008985296751157154,0.04111218517090055
0.2606897,0.010192222178997453,0.015562709843067051,0.002881536836329758,0.058868431477605176,0.017277788923068842,0.09848287445512,0.008928773581397648,0.04110685417376686
0.2611552,0.010276392664606185,0.015497490559596205,0.002890566973371377,0.05880358312834485,0.017335484370798203,0.09850998079396896,0.008872388283667782,0.04110183246447004
0.2616207,0.010360483077858706,0.015431449113611809,0.0029002283845336353,0.058735817549326504,0.017393631653418635,0.09853474323288372,0.008816145032591236,0.04109712871337222
0.2620862,0.010444480067982384,0.015364601240753816,0.0029105158937675966,0.05866515166127757,0.017452216396710254,0.09855717627890626,0.008760047990739091,0.04109275129656038
0.2625517,0.010528370230188653,0.015296962762149598,0.0029214243009781883,0.05859160311560139,0.017511224070584877,0.0985772944067951,0.008704101306981982,0.041088708295043484
0.2630172,0.010612140109230775,0.01522854957953107,0.0029329483825707007,0.05851519028798946,0.01757063999283832,0.098595112057793,0.008648309114861107,0.041085007494027
0.2634828,0.010695776202992977,0.01515937767039726,0.002945082891983022,0.05843593227169046,0.017630449333018487,0.09861064363867524,0.008592675530978783,0.041081656382265234
0.2639483,0.010779264966109361,0.015089463083223936,0.0029578225602039997,0.0583538488704437,0.017690637116407885,0.0986239035210767,0.008537204653409262,0.04107866215149213
0.2644138,0.010862592813611013,0.015018821932721848,0.002971162096278342,0.05826896059108582,0.017751188228119198,0.09863490604109697,0.008481900560130543,0.04107603169593101
0.2648793,0.010945746124599741,0.014947470395145034,0.002985096187798453,0.058181288635839754,0.017812087417302353,0.09864366549918101,0.008426767307477975,0.04107377161188393
0.2653448,0.01102871124594691,0.014875424703650563,0.0029996195013836037,0.05809085489429611,0.017873319301461483,0.09865019616027339,0.008371808928620382,0.04107188819740136
0.2658103,0.011111474496015853,0.014802701143710927,0.003014726683146816,0.057997681935097065,0.01793486837088002,0.09865451225424374,0.008317029432059492,0.04107038745203314
0.2662759,0.011194022168406462,0.014729316048580276,0.0030304123591498216,0.05790179299733376,0.017996718993152118,0.09865662797658066,0.008262432800153336,0.04106927507666123
0.2667414,0.011276340535720507,0.01465528579481554,0.003046671135846448,0.05780321198166785,0.01805885541781841,0.09865655748935113,0.008208022987664276,0.041068556473415244
0.2672069,0.011358415853346253,0.014580626797853371,0.0030634976005147804,0.05770196344118873,0.01812126178110408,0.09865431492242191,0.008153803920332214,0.041068236745671276
0.2676724,0.011440234363260948,0.01450535550764378,0.0030808863216784236,0.0575980725720176,0.01818392211075701,0.0986499143749389,0.008099779493473517,0.04106832069813463
0.2681379,0.011521782297849645,0.014429488404341216,0.0030988318495172307,0.05749156520366946,0.018246820330983828,0.09864336991706045,0.008045953570606123,0.04106881283700703
0.2686034,0.011603045883738776,0.01435304199405376,0.0031173287162678475,0.057382467789184134,0.01830994026748144,0.09863469559193878,0.007992329982101318,0.04106971737023867
0.269069,0.011684011345642852,0.014276032804651015,0.0031363714366144466,0.05727080739503671,0.01837326565256158,0.09862390541794491,0.007938912523862638,0.04107103820786539
0.2695345,0.01176466491022261,0.014198477381631212,0.0031559545080700464,0.05715661169083767,0.01843678013036577,0.09861101339113043,0.00788570495603237,0.04107277896243081
0.27,0.011844992809952935,0.01412039228404804,0.0031760724113488363,0.05703990893883263,0.018500467262167957,0.09859603348791995,0.007832711001726148,0.04107494294949339
0.2704655,0.011924981286998936,0.014041794080497537,0.0031967196107299325,0.05692072798321119,0.01856431053176205,0.09857897966802728,0.0077799343457961075,0.04107753318821747
0.270931,0.01200461659709858,0.013962699345165447,0.0032178905544130326,0.05679909823923441,0.01862829335093135,0.09855986587758808,0.007727378633623063,0.04108055240204769
0.2713966,0.012083885013450356,0.013883124653935305,0.003239579674866456,0.056675049682190254,0.0186923990649968,0.09853870605250153,0.007675047469938139,0.041084003019465506
0.2718621,0.01216277283060453,0.013803086580557464,0.0032617813891680633,0.05654861283618639,0.01875661095844087,0.098515514121973,0.0076229444176742515,0.041087887174826566
0.2723276,0.012241266368356502,0.01372260169287915,0.003284490099339585,0.05641981876278979,0.01882091226060377,0.09849030401224976,0.007571072996847839,0.041092206709277754
0.2727931,0.012319351975640812,0.013641686549135616,0.003307700192674874,0.056288699049522564,0.018885286151448622,0.09846308965054118,0.007519436683471214,0.04109696317175258
0.2732586,0.012397016034424273,0.013560357694302264,0.003331406042062648,0.05615528579822339,0.01894971576739195,0.0984338849691147,0.007468038908495918,0.041102157820043755
0.2737241,0.012474244963596717,0.01347863165650759,0.003355602006304236,0.05601961161328414,0.01901418420719587,0.09840270390955927,0.007416883056787502,0.041107791621951925
0.2741897,0.012551025222857854,0.013396524943506594,0.0033802824304268934,0.05588170958977122,0.019078674537918203,0.09836956042720883,0.007365972466132118,0.04111386525650941
0.2746552,0.012627343316598724,0.013314054039214325,0.003405441645993201,0.0557416133014411,0.019143169800916585,0.09833446849571872,0.007315310426275298,0.04112037911527791
0.2751207,0.012703185797776406,0.013231235400298993,0.0034310739714070817,0.055599356788659716,0.01920765301790264,0.09829744211178894,0.007264900177993242,0.04112733330371912
0.2755862,0.012778539271780638,0.013148085452834088,0.0034571737122169187,0.05545497454623535,0.019272107197042036,0.09825849530002823,0.007214744912196923,0.041134727642637745
0.2760517,0.012853390400291058,0.013064620589008792,0.0034837351614162566,0.05530850151117433,0.0193365153390964,0.09821764211795397,0.007164847769069234,0.041142561669696605
0.2765172,0.012927725905123854,0.01298085716389592,0.003510752599742542,0.05515997305036882,0.019400860443602865,0.09817489666112299,0.007115211837235379,0.04115083464100464
0.2769828,0.01300153257206659,0.012896811492276561,0.003538220295974317,0.05500942494822593,0.01946512551508712,0.09813027306838887,0.007065840152966662,0.041159545532779056
0.2774483,0.013074797254699901,0.012812499845520532,0.003566132507227272,0.0548568933942467,0.019529293569305654,0.09808378552728192,0.0070167356994177725,0.04116869304308363
0.2779138,0.013147506878204651,0.012727938448521726,0.0035944834792495245,0.05470241497056348,0.01959334763951303,0.09803544827950754,0.006967901405897635,0.04117827559364548
0.2783793,0.01321964844315312,0.012643143476687472,0.003623267446716489,0.05454602663944376,0.019657270782749765,0.0979852756265583,0.006919340147173879,0.04118829133175277
0.2788448,0.013291209029282628,0.0125581310529809,0.003652478633525666,0.0543877657307682,0.019721046086146547,0.0979332819354346,0.0068710547428108976,0.04119873813223595
0.2793103,0.013362175799249972,0.012472917245015395,0.0036821112530916584,0.054227669929490206,0.019784656673240444,0.097879481644469,0.006823047956541454,0.04120961359953477
0.2797759,0.01343253600236495,0.012387518062200103,0.003712159508641692,0.05406577726308411,0.01984808571029901,0.09782388926924852,0.00677532249567175,0.041220915069853925
0.2802414,0.013502276978301269,0.01230194945293539,0.003742617593511901,0.05390212608898855,0.01991131641264833,0.09776651940862965,0.006727881010519803,0.041232639613409755
0.2807069,0.013571386160783122,0.012216227301857136,0.0037734796914445988,0.053736755082051356,0.019974332051001333,0.09770738675083981,0.00668072609388696,0.04124478403677071
0.2811724,0.013639851081245779,0.012130367427128695,0.003804739976886763,0.05356970322198175,0.02003711595778268,0.09764650607965841,0.006633860280562285,0.041257344885294096
0.2816379,0.013707659372468553,0.012044385577779386,0.00383639261528992,0.053401009780815197,0.020099651533446724,0.09758389228067058,0.006587286046859537,0.041270318445661466
0.2821034,0.013774798772178576,0.011958297431088304,0.003868431763411629,0.053230714310396166,0.020161922252784906,0.09751956034758563,0.0065410058101864005,0.04128370074851476
0.282569,0.013841257126623725,0.011872118590012241,0.0039008515696187782,0.05305885662988355,0.020223911671219057,0.09745352538861192,0.006495021928645576,0.04129748757119499
0.2830345,0.013907022394113176,0.011785864580656459,0.003933646174192916,0.05288547681328345,0.02028560343107698,0.09738580263287955,0.006449336700667295,0.04131167444058488
0.2835,0.013972082648524042,0.011699550849786954,0.003966809709637872,0.052710615177013476,0.02034698126784683,0.09731640743690187,0.006403952364672815,0.04132625663605675
0.2839655,0.014036426082772682,0.011613192762382938,0.0040003363009899805,0.05253431226750267,0.020408029016406905,0.09724535529106634,0.006358871098768433,0.04134122919252654
0.284431,0.014100041012249362,0.01152680559922811,0.004034220066131246,0.05235660884883058,0.020468730617227513,0.09717266182614497,0.006314095020469544,0.041356586903614545
0.2848966,0.014162915878215053,0.011440404554539414,0.004068455116105817,0.05217754589040877,0.02052907012254197,0.09709834281981332,0.0062696261864542855,0.04137232432491318
0.2853621,0.014225039251159186,0.011354004733631892,0.004103035555440143,0.05199716455470781,0.020589031702483867,0.0970224142031675,0.006225466592346397,0.04138843577736181
0.2858276,0.014286399834117156,0.011267621150618289,0.004137955482467176,0.05181550618503212,0.020648599651188062,0.09694489206722766,0.006181618172526869,0.04140491535072834
0.2862931,0.01434698646594629,0.011181268726142012,0.00417320898965497,0.05163261229334497,0.020707758392852844,0.09686579266941693,0.0061380827999740414,0.04142175690719709
0.2867586,0.014406788124558983,0.011094962285142068,0.004208790163940006,0.05144852454814556,0.020766492487760687,0.096785132440005,0.006094862286131769,0.04143895408506205
0.2872241,0.014465793930111567,0.01100871655464868,0.0042446930870655465,0.05126328476240015,0.02082478663825489,0.09670292798850484,0.0060519583808052845,0.04145650030252439
0.2876897,0.014523993148147429,0.010922546161608421,0.004280911835925299,0.05107693488152887,0.02088262569466937,0.09661919611001164,0.006009372772084337,0.0414743887615928
0.2881552,0.014581375192692836,0.010836465630737806,0.004317440482912635,0.05088951697145038,0.020939994661208553,0.09653395379147245,0.0059671070862931976,0.041492612452084784
0.2886207,0.014637929629303896,0.010750489382404532,0.004354273096275591,0.05070107320668637,0.020996878701774458,0.09644721821787502,0.005925162887967146,0.04151116415572701
0.2890862,0.014693646178063126,0.01066463173053573,0.004391403740477847,0.05051164585852807,0.021053263145737734,0.09635900677834398,0.005883541679855096,0.04153003645035236
0.2895517,0.014748514716524198,0.010578906880552689,0.004428826476565845,0.050321277283267435,0.0211091334936494,0.09626933707213277,0.0058422449029479845,0.04154922171419112
0.2900172,0.014802525282603512,0.010493328927331689,0.004466535362542221,0.05013000991049539,0.02116447542288994,0.09617822691450016,0.005801273936532643,0.04156871213025367
0.2904828,0.014855668077417531,0.010407911853190628,0.004504524453745664,0.049937886231469726,0.021219274793252123,0.09608569434245973,0.005760630098270892,0.04158849969080168
0.2909483,0.014907933468064932,0.010322669525901102,0.004542787803237353,0.04974494878755504,0.02127351765245401,0.09599175762039046,0.005720314644303617,0.04160857620190492
0.2914138,0.014959311990352867,0.010237615696725592,0.004581319462194106,0.04955124015873704,0.021327190241578274,0.0958964352454968,0.005680328769379601,0.04162893328808033
0.2918793,0.015009794351466866,0.010152763998479376,0.004620113480308389,0.049356802952213175,0.021380279000433926,0.09579974595310577,0.005640673607008915,0.041649562397010224
0.2923448,0.01505937143258402,0.01006812794361675,0.004659163906195327,0.04916167979106129,0.02143277057283644,0.0957017087217892,0.005601350229640638,0.041670454804335955
0.2928103,0.01510803429142913,0.0099837209223412,0.004698464787806879,0.04896591330298793,0.021484651811802046,0.09560234277829996,0.005562359648864686,0.04169160161852381
0.2932759,0.01515577416477365,0.00989955620073914,0.004738010172853313,0.048769546109157194,0.021535909784651957,0.09550166760231078,0.005523702815637513,0.04171299378579952
0.2937414,0.0152025824708771,0.009815646918936995,0.004777794109232133,0.04857262081310122,0.021586531778022038,0.09539970293094521,0.00548538062053141,0.04173462209514779
0.2942069,0.015248450811870639,0.009732006089281453,0.0048178106454645694,0.048375179989712844,0.02163650530277364,0.09529646876309003,0.005447393894007108,0.04175647718337335
0.2946724,0.015293370976082465,0.00964864659454287,0.004858053831139763,0.04817726617432093,0.021685818098801317,0.0951919853634792,0.005409743406709411,0.041778549540220006
0.2951379,0.015337334940304719,0.009565581186142012,0.004898517717366742,0.047978921851849,0.021734458139733206,0.09508627326653928,0.005372429869785506,0.041800829513544406
0.2956034,0.015380334872001659,0.009482822482400415,0.004939196357234285,0.04778018944605733,0.021782413637520176,0.09497935327998758,0.005335453935225638,0.04182330731454098
0.296069,0.015422363131458975,0.009400382966814815,0.004980083806278716,0.04758111130886895,0.021829673046909977,0.09487124648817372,0.00529881619622574,0.04184597302301437
0.2965345,0.015463412273874195,0.00931827498635621,0.005021174122959671,0.047381729709780045,0.02187622506980284,0.09476197425515541,0.005262517187571635,0.04186881659269549
0.297,0.015503475051388212,0.009236510749794235,0.00506246136914386,0.047182086825355116,0.02192205865948518,0.09465155822749943,0.005226557386044339,0.04189182785659695
0.2974655,0.015542544415058033,0.009155102326047515,0.005103939610596843,0.04698222472880704,0.02196716302473821,0.09454002033679894,0.005190937210846021,0.041914996532403215
0.297931,0.015580613516770899,0.00907406164256068,0.0051456029174828345,0.046782185379662236,0.02201152763381838,0.0944273828018989,0.005155657024046128,0.04193831222789068
0.2983966,0.015617675711100024,0.00899340048370872,0.005187445364872594,0.04658201061351084,0.022055142218306737,0.09431366813082297,0.005120717131047168,0.04196176444637226
0.2988621,0.015653724557102303,0.008913130489229296,0.0052294610332594285,0.04638174213184188,0.022097996776824384,0.0941988991223973,0.005086117781069621,0.04198534259216122
0.2993276,0.01568875382005838,0.008833263152683582,0.0052716440090833806,0.04618142149196358,0.022140081578611234,0.09408309886756835,0.005051859167655433,0.042009035976048506
0.2997931,0.015722757473155522,0.008753809819946145,0.005313988385263633,0.045981090097009215,0.022181387166965497,0.09396629075041309,0.005017941429189528,0.042032833820788054
0.3002586,0.015755729699113773,0.00867478168772435,0.0053564882617392,0.04578078918602935,0.022221904362541695,0.09384849844884073,0.0049843646494387465,0.042056725266584535
0.3007241,0.01578766489175572,0.008596189802107666,0.005399137746017906,0.04558055982417177,0.02226162426650533,0.0937297459349869,0.004951128858107558,0.04208069937657782
0.3011897,0.015818557657520202,0.008518045057147294,0.00544193095373369,0.045380442892950935,0.022300538263542606,0.09361005747530167,0.004918234031409937,0.042104745142318566
0.3016552,0.015848402816920105,0.008440358193466418,0.005484862009212255,0.045180479080608946,0.022338638024723894,0.09348945763033475,0.004885680092656714,0.042128851489229284
0.3021207,0.015877195405944438,0.008363139796901429,0.005527925046045095,0.04498070887257082,0.022375915510219578,0.09336797125422261,0.00485346691285773,0.04215300728204465
0.3025862,0.015904930677404783,0.008286400297174435,0.005571114207671936,0.04478117254199675,0.02241236297186731,0.09324562349388348,0.00482159431133814,0.04217720133022522
0.3030517,0.015931604102226174,0.008210149966597458,0.0056144236479716255,0.044581910140434056,0.022447972955589666,0.09312243978792818,0.004790062056368189,0.042201422393338066
0.3035172,0.01595721137068242,0.008134398918808697,0.005657847531861531,0.044382961488571744,0.022482738303661334,0.09299844586529536,0.00475886986580581,0.04222565918639814
0.3039828,0.01598174839357583,0.008059157107541303,0.005701380035905513,0.04418436616710007,0.02251665215682517,0.09287366774362164,0.004728017407751382,0.04224990038516373
0.3044483,0.01600521130336118,0.007984434325425132,0.005745015348930519,0.04398616350767767,0.022549707956256448,0.09274813172735784,0.0046975043012139695,0.042274134631379634
0.3049138,0.01602759645521377,0.007910240202821966,0.005788747672651896,0.043788392584008434,0.0225818994453748,0.09262186440564289,0.004667330116788308,0.04229835053796144
0.3053793,0.016048900428041194,0.00783658420669468,0.005832571222307474,0.04359109220303027,0.022613220671503176,0.09249489264994704,0.004637494377341828,0.04232253669411441
0.3058448,0.01606912002543846,0.007763475639510773,0.005876480227300494,0.04339430089621774,0.022643665987373555,0.09236724361149523,0.00460799655871092,0.042346681670380484
0.3063103,0.01608825227658607,0.007690923638180724,0.005920468931851398,0.04319805691100053,0.022673230052478968,0.09223894471848137,0.004578836090405655,0.042370774023606984
0.3067759,0.016106294437090576,0.007618937173031487,0.00596453159565843,0.043002398202299785,0.022701907834271524,0.09211002367308348,0.004550012356322124,0.04239480230183072
0.3072414,0.01612324398976695,0.007547525046815513,0.006008662494567032,0.042807362424184474,0.02272969460920605,0.09198050844828923,0.0045215246954615745,0.04241875504907137
0.3077069,0.016139098645362275,0.007476695893755617,0.006052855921247874,0.04261298692165011,0.022756585963629013,0.09185042728454082,0.004493372402655533,0.04244262081002822
0.3081724,0.016153856343220106,0.0074064581786259685,0.0060971061858834065,0.04241930872252224,0.022782577794512437,0.09171980868620715,0.004465554729296108,0.04246638813467525
0.3086379,0.016167515251884933,0.007336820195869484,0.006141407616862726,0.04222636452948764,0.022807666310032407,0.09158868141789134,0.004438070884070738,0.042490045582750165
0.3091034,0.01618007376964616,0.007267790068751827,0.00618575456148453,0.042034190712256295,0.022831848029992056,0.09145707450058055,0.0044109200337006955,0.04251358172813453
0.309569,0.01619153052502104,0.007199375748552187,0.006230141386667876,0.04184282329985754,0.022855119786088802,0.09132501720764546,0.0043841013036827236,0.042536985163123445
0.3100345,0.01620188437717593,0.007131585013790949,0.006274562479670431,0.04165229797307371,0.02287747872202597,0.09119253906069617,0.00435761377903325,0.042560244502584145
0.3105,0.016211134416285175,0.007064425469494324,0.0063190122488138364,0.04146265005701456,0.02289892229346921,0.09105966982530157,0.004331456505034655,0.042583348388003886
0.3109655,0.016219279963826928,0.006997904546496001,0.006363485124215791,0.04127391451383559,0.022919448267848364,0.09092643950657955,0.00430562848798314,0.04260628549142778
0.311431,0.01622632057281513,0.006932029500775772,0.0064079755585283735,0.041086125935602964,0.022939054724005842,0.09079287834466448,0.0042801286959377296,0.04262904451928812
0.3118966,0.016232256027966963,0.006866807412835108,0.006452478027682088,0.04089931853730777,0.022957740051692727,0.09065901681005868,0.00425495605946996,0.042651614216126926
0.3123621,0.01623708634580505,0.006802245187109584,0.006496987031635093,0.04071352615003163,0.022975502950914096,0.09052488559887446,0.004230109472413794,0.04267398336821426
0.3128276,0.016240811774693827,0.00673834955141806,0.006541497095126975,0.04052878221426572,0.02299234243112514,0.09039051562797265,0.004205587792615281,0.04269614080706468
0.3132931,0.016243432794809585,0.00667512705644853,0.006586002768436392,0.040345119773384994,0.02300825781028007,0.09025593803000315,0.00418138984268148,0.0427180754128547
0.3137586,0.016244950118043805,0.006612584075280529,0.0066304986281418956,0.04016257146727925,0.023023248713735966,0.09012118414835213,0.004157514410728134,0.04273977611774451
0.3142241,0.01624536468783964,0.006550726802943995,0.0066749792778851595,0.03998116952614253,0.02303731507301415,0.08998628553200026,0.004133960251125589,0.04276123190910753
