Time,Rectus Femoris right,Rectus Femoris left,Hamstrings right,Hamstrings left,TibilaisÂ Anterior right,TibilaisÂ Anterior left,Gastrocnemius right,Gastrocnemius left
0.0,0.028053215147955654,0.03939117431445588,0.0005472332723999358,-0.006570869682794436,0.06983711390887305,-0.09078677730678435,-0.006080170672045849,0.01932021709620994
0.0004655,0.029552456023650468,0.042042986962352785,0.001477599834718566,-0.0055705690635468675,0.07174408303302603,-0.08805824951937168,-0.006047538846997589,0.02031807478927714
0.000931,0.03106310678101028,0.04468851435599221,0.0024006049285006117,-0.00457045240519581,0.07364729873716849,-0.08533790842707616,-0.006015584553190015,0.021317042721838562
0.0013966,0.03258504859464573,0.047327330037958706,0.0033160632525026487,-0.0035706518265265844,0.07554645680628978,-0.08262613015275509,-0.005984278767997404,0.0223169799586617
0.0018621,0.03411815978761422,0.04995900839442497,0.0042237911472482945,-0.002571299484099062,0.07744125342644041,-0.07992328847637131,-0.005953591387333535,0.023317744905207
0.0023276,0.03566231584325148,0.0525831247946981,0.005123606670696778,-0.0015725275343571276,0.07933138528399479,-0.07722975471203991,-0.005923491219489884,0.024319195344916385
0.0027931,0.03721738941777473,0.055199255730497866,0.006015329673783771,-0.0005744680958056126,0.08121654966482075,-0.07454589758635555,-0.005893945979348017,0.02532118847679048
0.0032586,0.03878325035365481,0.057806978954851894,0.0068987818757994465,0.00042274678872123307,0.08309644455327404,-0.07187208311809146,-0.005864922282975666,0.026323580953236055
0.0037241,0.040359765693755,0.06040587362049745,0.007773786939568862,0.0014189851896763274,0.08497076873094181,-0.0692086744993573,-0.005836385642615737,0.027326228918165267
0.0041897,0.0419467996962339,0.06299552041768594,0.008640170546399935,0.002414115328278643,0.08683922187506583,-0.06655603197829951,-0.005808300462077253,0.02832898804532857
0.0046552,0.043544213850210435,0.06557550171129381,0.00949776047076451,0.0034080056138322363,0.0887015046565821,-0.06391451274342344,-0.0057806300325369845,0.029331713576863552
0.0051207,0.04515186689218854,0.06814540167715179,0.010346386654678274,0.004400524680863822,0.09055731883771757,-0.061284470809613315,-0.005753336528760348,0.03033426036204233
0.0055862,0.046769614823239394,0.0707048064375119,0.011185881281745566,0.005391541426058003,0.092406367369088,-0.05866625690592194,-0.005726381005749968,0.031336482896200786
0.0060517,0.04839731092693904,0.07325330419557811,0.01201607885083554,0.0063809250449701664,0.0942483544862417,-0.056060218365198804,-0.005699723395829985,0.03233823535983317
0.0065172,0.050034805788058495,0.07579048536903116,0.012836816249356685,0.007368545068498161,0.09608298580559572,-0.05346669901562182,-0.005673322506173956,0.0333393716578361
0.0069828,0.051681947312003935,0.07831594272248173,0.013647932826097301,0.008354271399095043,0.09790996841971156,-0.050886039074194554,-0.005647136016783784,0.03433974545888637
0.0074483,0.05333858074500375,0.08082927149878917,0.0144492704636003,0.009337974346706274,0.09972901099186052,-0.04831857504226654,-0.005621120478926816,0.03533921023493746
0.0079138,0.05500454869503958,0.08333006954918457,0.015240673650041434,0.01031952466441579,0.10153982384982935,-0.04576463960313087,-0.005595231314037833,0.03633761930081992
0.0083793,0.0566796911535179,0.08581793746213928,0.016021989550580935,0.011298793583786368,0.1033421190789191,-0.04322456152174844,-0.005569422813092376,0.03733482585393138
0.0088448,0.05836384551767917,0.08829247869092115,0.016793068078159414,0.012275652849880511,0.1051356106140919,-0.04069866554664456,-0.0055436481364575085,0.03833068301400206
0.0093103,0.060056846613741305,0.09075329967978188,0.017553761963709717,0.01324997475594892,0.10692001433122278,-0.038187272314018916,-0.005517859314225941,0.03932504386292166
0.0097759,0.061758526720774504,0.09320000998872063,0.01830392682575734,0.014221632177774243,0.10869504813741736,-0.03569069825410626,-0.005492007247039198,0.04031776148461343
0.0102414,0.06346871559530451,0.0956322224167704,0.019043421239382838,0.01519049860765835,0.11046043206035928,-0.03320925549982107,-0.005466041707405365,0.04130868900494101
0.0107069,0.06518724049664167,0.09804955312375555,0.019772106804520594,0.016156448188041763,0.11221588833665469,-0.030743251797715664,-0.005439911341516731,0.04229767963163319
0.0111724,0.06691392621293318,0.10045162175047141,0.020489848213569056,0.017119355744744293,0.11396114149914346,-0.028292990421277597,-0.005413563671572427,0.0432845866942117
0.0116379,0.06864859508793633,0.10283805153723989,0.02119651331828832,0.01807909681981638,0.11569591846314907,-0.0258587700865894,-0.005386945098610874,0.04426926368390681
0.0121034,0.0703910670485104,0.10520846944079734,0.021891973195961655,0.01903554770399123,0.11741994861163958,-0.02344088487037054,-0.005360000905856577,0.04525156429354518
0.012569,0.07214115963282514,0.10756250624947443,0.022576102214798267,0.019988585468728455,0.1191329638792746,-0.02103962413041956,-0.005332675262585527,0.046231342457394714
0.0130345,0.07389868801928381,0.10989979669662907,0.023248778098555148,0.020938087997840745,0.1208346988353135,-0.018655272428471818,-0.005304911228513224,0.04720845239095078
0.0135,0.07566346505615912,0.11221997957229506,0.023909881990356457,0.02188393401869568,0.12252489076536259,-0.016288109455486605,-0.005276650758709102,0.04818274863064846
0.0139655,0.07743530129193936,0.11452269783300989,0.024559298515689408,0.022826003132985367,0.1242032797519412,-0.013938409959375285,-0.0052478347090409655,0.04915408607348555
0.014431,0.07921400500638313,0.1168075987097845,0.025196915844555873,0.023764175847057024,0.12586960875384817,-0.011606443675180664,-0.005218402842152863,0.050122320016540836
0.0148966,0.08099938224227991,0.11907433381417773,0.0258226257527593,0.024698333601797875,0.12752362368431208,-0.009292475257716636,-0.005188293833979701,0.051087306196372646
0.0153621,0.08279123683791356,0.12132255924243798,0.026436323682306653,0.025628358802067965,0.1291650734879105,-0.00699676421667624,-0.005157445280801737,0.05204890082828198
0.0158276,0.08458937046022523,0.12355193567767302,0.027037908800905,0.02655413484567495,0.13079371021624484,-0.004719564854215528,-0.005125793706841905,0.053006960645424914
0.0162931,0.08639358263867225,0.12576212849000987,0.02762728406053238,0.027475546151885237,0.1324092891023587,-0.002461126205019966,-0.005093274572408718,0.05396134293775871
0.0167586,0.0882036707997784,0.1279528078347056,0.028204356255062492,0.028392478189466205,0.13401156863388866,-0.00022169197885936354,-0.005059822282587142,0.05491190559080652
0.0172241,0.09001943030237111,0.1301236487481701,0.028769036076922883,0.029304817504254652,0.1356003106249359,0.001998499494363466,-0.005025370196479549,0.05585850712422623
0.0176897,0.09184065447350025,0.13227433124186175,0.029321238172766332,0.030212451746246836,0.13717528028664788,0.00419921531706592,-0.004989850636998386,0.05680100673016997
0.0181552,0.09366713464503283,0.1344045403940181,0.029860881198135437,0.03111526969620557,0.1387362462964987,0.00638022807393709,-0.004953194901211862,0.057739264311421366
0.0186207,0.09549866019091854,0.13651396643918176,0.030387887871100767,0.03201316129177995,0.14028298086625782,0.008541315879384538,-0.004915333271243554,0.058673140519298
0.0190862,0.09733501856511993,0.13860230485548253,0.030902185024853302,0.03290601765313327,0.14181525980863646,0.01068226242247382,-0.004876195025726568,0.05960249679130671
0.0195517,0.09917599534020281,0.14066925644963554,0.031403703659232424,0.033793731108074564,0.143332862602602,0.012802857009358652,-0.004835708451812715,0.060527195388539054
0.0200172,0.10102137424658172,0.14271452743961444,0.03189237899117098,0.03467619521668934,0.14483557245735101,0.014902894603200404,-0.004793800857736996,0.06144709943279383
0.0204828,0.10287093721241664,0.14473782953495878,0.03236815050403961,0.03555330479546495,0.14632317637493117,0.016982175861577024,-0.0047503985859376355,0.062362072943413345
0.0209483,0.10472446440415675,0.14673888001467553,0.032830961995872876,0.03642495594090591,0.14779546521150155,0.01904050717138354,-0.004705427026731754,0.06327198087381974
0.0214138,0.10658173426772737,0.14871740180269527,0.03328076162646021,0.03729104605263458,0.14925223373722116,0.02107770068122911,-0.004658810632546718,0.06417668914773728
0.0218793,0.10844252357035576,0.15067312354084683,0.033717501963285136,0.038151473855972534,0.15069328069475438,0.0230935743313383,-0.004610472932707101,0.0650760646950869
0.0223448,0.11030660744303174,0.15260577965931643,0.0341411400262967,0.039006139423997985,0.1521184088563824,0.025087951880967227,-0.004560336548777121,0.06596997548753958
0.0228103,0.11217375942359785,0.1545151104445601,0.03455163733149734,0.039854944199074704,0.15352742507970904,0.02706066293334744,-0.004508323210458336,0.06685829057371566
0.0232759,0.11404375150046372,0.15640086210464202,0.034948959933331754,0.040697791013848024,0.15492014036194854,0.029011542958172747,-0.004454353772042239,0.0677408801140183
0.0237414,0.11591635415693818,0.158262786831974,0.035333078465861485,0.04153458411170368,0.15629636989278314,0.030940433311646323,-0.004398348229417212,0.06861761541508972
0.0242069,0.11779133641617238,0.16010064286343448,0.03570396818271017,0.04236522916668546,0.15765593310577833,0.03284718125410742,-0.004340225737629142,0.06948836896387937
0.0246724,0.11966846588670642,0.16191419453784844,0.03606160899576417,0.04318963330286743,0.15899865372834351,0.034731639965259055,-0.004279904628994757,0.0703530144613137
0.0251379,0.1215475088086115,0.16370321235081298,0.03640598551261342,0.04400770511317674,0.16032435983022625,0.03659366855701985,-0.004217302431766641,0.07121142685555681
0.0256034,0.12342823010021917,0.16546747300685505,0.03673708707271713,0.044819354677663,0.16163288387052677,0.03843313208402487,-0.004152335889348769,0.07206348237485151
0.026069,0.12531039340542843,0.16720675946891175,0.037054907782278726,0.04562449358121039,0.1629240627432191,0.04024990155180198,-0.004084920980061306,0.07290905855992977
0.0265345,0.12719376114158112,0.16892086100512416,0.037359446547814534,0.04642303493068862,0.164197737821164,0.042043853922651406,-0.0040149729374533,0.07374803429598191
0.027,0.12907809454789487,0.17060957323293904,0.03765070710840089,0.04721489337153975,0.16545375499859877,0.04381487211925759,-0.003942406271161745,0.07458028984417275
0.0274655,0.13096315373444223,0.17227269816051421,0.03792869806658436,0.04799998510379777,0.16669196473208783,0.04556284502606294,-0.0038671347883151718,0.07540570687269336
0.027931,0.132848697731664,0.17391004422542497,0.03819343291794036,0.04877822789753873,0.16791222207991818,0.04728766748843385,-0.0037890716154796284,0.07622416848733636
0.0283966,0.1347344845404044,0.17552142633067108,0.03844493007926564,0.04954954110775992,0.1691143867399223,0.04898924030964953,-0.0037081292211444353,0.07703555926158304
0.0288621,0.1366202711824549,0.17710666587798665,0.0386832129153905,0.050313845688687034,0.17029832308571086,0.050667470245744764,-0.003624219438744703,0.07783976526618998
0.0293276,0.1385058137515929,0.17866559079845898,0.03890830976459725,0.051071064207508836,0.1714639002012961,0.05232226999823769,-0.0035372534902172012,0.07863667409826305
0.0297931,0.14039086746510082,0.1801980355804675,0.03912025396263144,0.051821120857539225,0.17261099191408608,0.05395355820477456,-0.0034471420100858838,0.07942617490980675
0.0302586,0.1422751867157512,0.18170384129495995,0.03931908386529315,0.05256394147080703,0.17373947682622895,0.05556125942772391,-0.0033537950700731466,0.08020815843573688
0.0307241,0.14415852512424215,0.1831828556180877,0.03950484286959542,0.05329945353007421,0.17484923834428687,0.057145304140753306,-0.003257122204232694,0.08098251702134479
0.0311897,0.1460406355920678,0.18463493285122706,0.039677579433477515,0.05402758618028328,0.17594016470721846,0.058705628713422144,-0.0031570324345996277,0.0817491446492014
0.0316552,0.14792127035480937,0.1860599339384156,0.03983734709406035,0.05474827023943498,0.17701214901264764,0.060242175393824565,-0.0030534342973530465,0.08250793696549023
0.0321207,0.14980018103583093,0.1874577264812352,0.03998420448443173,0.05546143820889787,0.1780650892413965,0.06175489228931647,-0.0029462358694860055,0.08325879130575901
0.0325862,0.1516771187003656,0.18882818475117377,0.04011821534894869,0.056167024283151484,0.17909888828026033,0.06324373334536067,-0.002835344795977242,0.08400160672007978
0.0330517,0.15355183390997634,0.19017118969949778,0.04023944855704411,0.0568649643589651,0.18011345394300293,0.0647086583225238,-0.0027206683174586187,0.08473628399760828
0.0335172,0.15542407677737707,0.19148662896466662,0.04034797811552478,0.05755519604401424,0.18110869898955087,0.06614963277165875,-0.002602113298371866,0.08546272569053336
0.0339828,0.15729359702160087,0.19277439687731984,0.0404438831793472,0.05823765866493718,0.18208454114336733,0.06756662800730534,-0.002479586255607904,0.08618083613740692
0.0344483,0.15916014402350265,0.19403439446286821,0.04052724806085765,0.05891229327483371,0.18304090310698654,0.06895962107934227,-0.0023529933876217835,0.08689052148584525
0.0349138,0.16102346688158584,0.19526652944171935,0.04059816223748262,0.05957904266020841,0.18397771257569065,0.07032859474292223,-0.00222224060401613,0.08759168971459244
0.0353793,0.1628833144681431,0.19647071622716833,0.040656720357855385,0.060237851347360705,0.18489490224931202,0.07167353742672238,-0.002087233555585829,0.08828425065493649
0.0358448,0.16473943548570208,0.19764687592098376,0.0407030222463646,0.06088866560822387,0.1857924098421436,0.07299444319954174,-0.0019478776648165928,0.08896811601147024
0.0363103,0.1665915785237665,0.19879493630671935,0.04073717290611064,0.061531433465655004,0.1866701780909427,0.07429131173527714,-0.0018040781568299186,0.08964319938219
0.0367759,0.16843949211584328,0.19991483184077968,0.040759282520255506,0.06216610469817809,0.18752815476101292,0.07556414827630856,-0.0016557400907668087,0.09030941627792564
0.0372414,0.17028292479674453,0.20100650364126812,0.04076946645175245,0.06279263084418238,0.1883662926503507,0.07681296359532483,-0.0015027683916024345,0.09096668414109742
0.0377069,0.17212162516015317,0.20206989947464374,0.040767845241441926,0.06341096520557812,0.18918454959184194,0.07803777395561994,-0.0013450678823837279,0.09161492236379398
0.0381724,0.17395534191643974,0.20310497374021355,0.040754544604500745,0.06402106285091223,0.18998288845349476,0.0792386010698896,-0.0011825433168816926,0.09225405230516712
0.0386379,0.17578382395071682,0.2041116874524878,0.04072969542523248,0.06462288061794635,0.19076127713669683,0.08041547205755765,-0.00101509941265005,0.09288399730813797
0.0391034,0.17760682038111708,0.20509000822142662,0.040693433750187684,0.06521637711570065,0.1915196885724854,0.08156841940066124,-0.0008426408844816476,0.09350468271541013
0.039569,0.17942408061727957,0.20603991023060816,0.04064590077960379,0.06580151272596635,0.1922581007158222,0.08269748089832418,-0.0006650724782538936,0.09411603588478556
0.0400345,0.18123535441902922,0.20696137421335217,0.04058724285715551,0.0663782496042907,0.19297649653786492,0.083802699619848,-0.0004822990051542745,0.09471798620377948
0.0405,0.1830403919552324,0.20785438742683396,0.04051761145800768,0.06694655168043762,0.19367486401622971,0.08488412385645099,-0.0002942253762768488,0.09531046510353093
0.0409655,0.18483894386281172,0.20871894362422672,0.04043716317516368,0.06750638465832716,0.1943531961232395,0.08594180707168593,-0.0001007566375804619,0.09589340607200694
0.041431,0.18663076130590064,0.20955504302491135,0.04034605970410359,0.06805771601545699,0.1950114908121569,0.08697580785056833,9.82019948006631e-05,0.09646674466649813
0.0418966,0.1884155960351184,0.21036269228279225,0.04024446782570744,0.06860051500180847,0.19564975100140275,0.08798618984744687,0.0003027450989033702,0.0970304185254037
0.0423621,0.1901932004469444,0.21114190445275793,0.0401325593874597,0.06913475263824059,0.1962679845567636,0.0889730217326479,0.0005129670109485124,0.09758436737930515
0.0428276,0.1919633276431698,0.21189269895532395,0.04001051128293217,0.06966040171437492,0.19686620427159476,0.08993637713792585,0.0007289617890299333,0.09812853306132847
0.0432931,0.19372573149040387,0.21261510153949387,0.03987850542954326,0.0701774367859753,0.19744442784502572,0.09087633460075069,0.0009508231764891655,0.0986628595167957
0.0437586,0.19548016667961235,0.2133091442438728,0.03973672874459231,0.07068583417182633,0.19800267785817632,0.09179297750746343,0.0011786445649857437,0.0991872928121678
0.0442241,0.19722638878566565,0.21397486535606594,0.03958537311956811,0.07118557195011486,0.19854098174839452,0.09268639403533065,0.0014125189572733424,0.0997017811432811
0.0446897,0.1989641543268737,0.2146123093703937,0.039424635392731264,0.07167662995431871,0.19905937178152885,0.09355667709352902,0.0016525389296923468,0.100206274842879
0.0451552,0.20069322082448593,0.2152215269439534,0.039254717319970336,0.07215898976860688,0.19955788502225275,0.09440392426309077,0.0018987965943899426,0.10070072638744186
0.0456207,0.20241334686213405,0.21580257485105822,0.03907582554393176,0.0726326347227552,0.20003656330245828,0.09522823773584083,0.0021513835612793192,0.10118509040331712
0.0460862,0.20412429214519656,0.2163555159360829,0.03888817156142343,0.0730975498865809,0.20049545318774004,0.09602972425235681,0.0024103908997501083,0.10165932367215252
0.0465517,0.2058258175600631,0.2168804190647465,0.03869197168909182,0.07355372206389942,0.20093460594199058,0.09680849503898166,0.0026759091001427016,0.10212338513563411
0.0470172,0.20751768523327815,0.21737735907386235,0.03848744702737244,0.0740011397860065,0.20135407749013098,0.09756466574391884,0.0029480280349995537,0.10257723589953101
0.0474828,0.20919965859054282,0.21784641671958482,0.03827482342271347,0.07443979330468883,0.2017539283790022,0.09829835637243967,0.0032268369201069575,0.10302083923704809
0.0479483,0.21087150241555444,0.21828767862418388,0.03805433142807296,0.07486967458476619,0.20213422373644457,0.099009691221232,0.0035124242753410656,0.1034541605914872
0.0484138,0.21253298290866307,0.21870123722137935,0.03782620626169046,0.07529077729616879,0.2024950332285939,0.0996987988119195,0.0038048778853321296,0.10387716757821733
0.0488793,0.2141838677453239,0.21908719070026877,0.037590687764134836,0.07570309680555296,0.20283643101542348,0.10036581182378104,0.0041042847599610435,0.10428982998595428
0.0493448,0.21582392613432336,0.21944564294788474,0.03734802035363103,0.07610663016745878,0.2031584957045635,0.10101086702570089,0.004410731094702357,0.10469211977734943
0.0498103,0.21745292887575668,0.21977670349041953,0.03709845297966967,0.07650137611501326,0.20346131030343198,0.10163410520738052,0.004724302230827973,0.10508401108888758
0.0502759,0.21907064841873297,0.22008048743315417,0.03684223907490461,0.07688733505018243,0.2037449621697115,0.10223567110984418,0.005045082615485768,0.10546548023009275
0.0507414,0.22067685891878136,0.22035711539912947,0.036579636505344744,0.07726450903357629,0.20400954296021032,0.10281571335527093,0.00537315576166741,0.1058365056820403
0.0512069,0.22227133629493126,0.22060671346659538,0.03631090751884779,0.07763290177381083,0.20425514857814525,0.10337438437618657,0.005708604208079675,0.10619706809517317
0.0516724,0.22385385828643775,0.22082941310527407,0.03603631869192497,0.07799251861643214,0.2044818791188869,0.10391184034404904,0.006051509478933672,0.10654715028642
0.0521379,0.22542420450912165,0.22102535111147087,0.03575614087486692,0.07834336653240848,0.2046898388142075,0.10442824109726151,0.006401952043666498,0.10688673723561158
0.0526034,0.2269821565112917,0.22119466954206668,0.03547064913520214,0.0786854541061965,0.20487913597507418,0.10492375006864713,0.006760011276609952,0.1072158160811929
0.053069,0.2285274978292155,0.2213375156474237,0.035180122699501104,0.07901879152338923,0.20504988293303025,0.10539853421241988,0.00712576541662112,0.10753437611522788
0.0535345,0.23006001404210483,0.22145404180323514,0.03488484489353995,0.07934339055795293,0.20520219598020664,0.10585276393068552,0.007499291526689742,0.10784240877769426
0.054,0.23157949282657975,0.22154440544134815,0.03458510308083899,0.07965926455906046,0.2053361953080054,0.10628661299950616,0.007880665453537413,0.10813990765006615
0.0544655,0.2330857240105754,0.22160876897958834,0.034281188599592304,0.07996642843752802,0.20545200494449725,0.10670025849456204,0.008269961787223779,0.10842686844818263
0.054931,0.23457849962665436,0.2216472997506119,0.03397339669800536,0.08026489865186263,0.20554975269057582,0.1070938807164434,0.008667253820774979,0.10870328901440081
0.0553966,0.2360576139646865,0.22166016992981027,0.03366202646805817,0.08055469319392682,0.20562957005491192,0.10746766311560552,0.009072613509849592,0.10896916930903255
0.0558621,0.23752286362385722,0.22164755646229117,0.03334738077771199,0.08083583157422752,0.20569159218775204,0.10782179221701904,0.009486111432457499,0.10922451140106441
0.0563276,0.23897404756396373,0.22160964098895794,0.03302976620157726,0.08110833480683646,0.2057359578136046,0.10815645754454715,0.00990781674874719,0.10946931945816166
0.0567931,0.24041096715595767,0.22154660977170723,0.03270949295006084,0.08137222539394859,0.20576280916285633,0.10847185154508075,0.01033779716087719,0.10970359973595882
0.0572586,0.24183342623169266,0.22145865361776407,0.03238687479701014,0.08162752731008623,0.20577229190236124,0.10876816951246189,0.010776118872987501,0.1099273605666415
0.0577241,0.2432412311328355,0.2213459678031722,0.03206222900587199,0.08187426598595604,0.2057645550650426,0.1090456095112248,0.011222846551287127,0.1101406123468266
0.0581897,0.2446341907589014,0.22120875199545675,0.03173587625438428,0.08211246829196565,0.20573975097854774,0.10930437230018292,0.0116780432842737,0.11034336752475027
0.0586552,0.24601211661437544,0.2210472101754759,0.03140814055781848,0.08234216252140644,0.20569803519299365,0.10954466125588984,0.01214177054310136,0.11053564058677444
0.0591207,0.247374822854886,0.22086155055847814,0.031079349190791566,0.08256337837330895,0.20563956640784098,0.10976668229600066,0.012614088142112885,0.11071744804322395
0.0595862,0.24872212633239893,0.22065198551438067,0.030749832607666415,0.0827761469349768,0.20556450639793272,0.10997064380256005,0.013095054199552113,0.1108888084135673
0.0600517,0.2500538466394054,0.22041873148728636,0.030419924361560123,0.08298050066420515,0.20547301993873227,0.11015675654524215,0.013584725098472639,0.11104974221095541
0.0605172,0.25136980615207777,0.22016200891425822,0.030089961021980288,0.08317647337118964,0.20536527473079516,0.11032523360456695,0.014083155447858696,0.1112002719261349
0.0609828,0.25266983007237104,0.2198820421433736,0.029760282091109855,0.08336410020013235,0.20524144132350813,0.11047629029511695,0.014590398043974167,0.11134042201075384
0.0614483,0.2539537464690471,0.21957905935108357,0.02943122991876169,0.08354341761055122,0.20510169303812958,0.11061014408877748,0.015106503831955605,0.11147021886007868
0.0619138,0.25522138631760277,0.21925329245890776,0.029103149616024636,0.08371446335829956,0.204946205890165,0.11072701453802249,0.01563152186766521,0.11158969079514129
0.0623793,0.2564725835390845,0.21890497704949627,0.0287763889676233,0.08387727647630354,0.20477515851111086,0.11082712319926753,0.016165499279819678,0.11169886804433508
0.0628448,0.2577071750377791,0.21853435228209273,0.02845129834301451,0.08403189725502531,0.20458873206960065,0.11091069355631042,0.01670848123241095,0.1117977827244796
0.0633103,0.258925000737776,0.21814166080743247,0.0281282306062436,0.084178367222661,0.20438711019198472,0.11097795094387945,0.01726051088743503,0.11188646882137245
0.0637759,0.26012590361840243,0.2177271486821103,0.027807541024584406,0.08431672912508333,0.20417047888237577,0.1110291224713082,0.017821629367945183,0.1119649621698479
0.0642414,0.261309729748541,0.21729106528245112,0.02748958717598712,0.08444702690553937,0.2039390264421909,0.11106443694635487,0.018391875721445735,0.11203330043336066
0.0647069,0.2624763283198431,0.2168336632179173,0.027174728855358418,0.08456930568411444,0.2036929433892198,0.11108412479918404,0.018971286883642947,0.11209152308311308
0.0651724,0.2636255516788565,0.216355198244085,0.026863327979698405,0.08468361173697304,0.20343242237625106,0.11108841800652768,0.019559897642569157,0.11213967137674362
0.0656379,0.2647572553580886,0.21585592917522217,0.026555748492119013,0.08478999247538795,0.20315765810928663,0.11107755001604246,0.02015774060309653,0.11217778833659313
0.0661034,0.2658712981060279,0.21533611779649897,0.026252356264768347,0.0848884964245678,0.2028688472653773,0.11105175567087955,0.020764846151856746,0.11220591872756566
0.066569,0.26696754191614985,0.21479602877586176,0.02595351900068534,0.08497917320229312,0.20256618841011106,0.11101127113448266,0.021381242422582863,0.11222410903459958
0.0670345,0.2680458520549312,0.21423592957560106,0.025659606134609093,0.08506207349736995,0.20224988191478738,0.1109563338156295,0.02200695526188974,0.11223240743976443
0.0675,0.26910609708889793,0.21365609036364316,0.025370988732767105,0.08513724904791001,0.2019201298733106,0.11088718229373119,0.02264200819550921,0.11223086379899846
0.0679655,0.27014814891073075,0.21305678392459582,0.025088039391666657,0.08520475261944568,0.20157713601883642,0.11080405624440351,0.023286422394996144,0.11221952961850151
0.068431,0.27117188276445015,0.21243828557057756,0.0248111321359138,0.08526463798288854,0.20122110564020726,0.11070719636532374,0.023940216644921502,0.11219845803079702
0.0688966,0.27217717726970164,0.21180087305185896,0.024540642315084467,0.08531695989233955,0.20085224549821368,0.11059684430238627,0.024603407310568294,0.11216770377047658
0.0693621,0.27316391444516064,0.2111448264673438,0.024276946499672544,0.08536177406276008,0.20047076374172074,0.11047324257616968,0.025276008306146146,0.11212732314963986
0.0698276,0.2741319797310757,0.21047042817491582,0.024020422376140074,0.08539913714751289,0.200076869823697,0.11033663450872769,0.025958031063540127,0.11207737403304249
0.0702931,0.2750812620109679,0.20977796270167542,0.023771448641095153,0.08542910671578285,0.19967077441718376,0.11018726415071638,0.026649484501609467,0.11201791581296416
0.0707586,0.2760116536325029,0.20906771665409016,0.02353040489462331,0.08545174122988727,0.1992526893312416,0.11002537620886946,0.027350374996051578,0.11194900938380946
0.0712241,0.276923050427554,0.20833997862807985,0.02329767153279876,0.0854671000224864,0.19882282742690865,0.10985121597383417,0.028060706349846868,0.11187071711645406
0.0716897,0.27781535173147026,0.20759503911905655,0.02307362963940212,0.08547524327370451,0.19838140253320566,0.10966502924838054,0.028780479764299566,0.11178310283234934
0.0721552,0.27868846040156764,0.20683319043193898,0.0228586608768716,0.08547623198817143,0.1979286293632209,0.10946706227599828,0.029509693810689915,0.11168623177739871
0.0726207,0.27954228283485666,0.20605472659115856,0.02265314737651484,0.08547012797199453,0.19746472343031019,0.10925756166989685,0.030248344402552755,0.11158017059561935
0.0730862,0.2803767289850229,0.20525994325067595,0.022457471628008985,0.08545699380967028,0.19698990096444707,0.10903677434242576,0.03099642476859764,0.11146498730260426
0.0735517,0.2811917123786751,0.20444913760402536,0.02227201636821647,0.08543689284094463,0.19650437882876093,0.10880494743493442,0.031753925426285454,0.11134075125880048
0.0740172,0.2819871501308755,0.20362260829440545,0.022097164469344337,0.08540988913763092,0.1960083744363002,0.10856232824809171,0.032520834156076504,0.11120753314261941
0.0744828,0.2827629629599678,0.20278065532483755,0.021933298826474955,0.08537604748039482,0.19550210566706006,0.10830916417268636,0.033297135976364856,0.11106540492339595
0.0749483,0.2835190752017171,0.201923579968412,0.021780802244495932,0.0853354333355156,0.19498579078531195,0.10804570262092977,0.03408281311911367,0.11091443983421298
0.0754138,0.28425541482277833,0.20105168467864695,0.021640057324457132,0.08528811283163384,0.1944596483572724,0.10777219095828239,0.034877845006206366,0.11075471234460811
0.0758793,0.2849719134335068,0.20016527299998413,0.02151144634938253,0.0852341527364956,0.19392389716914663,0.1074888764358243,0.035682208226528275,0.11058629813317962
0.0763448,0.28566850630012697,0.1992646494784475,0.02139535116956461,0.08517362043370381,0.19337875614558195,0.10719600612319077,0.03649587651379379,0.11040927406010878
0.0768103,0.28634513235627174,0.1983501195724909,0.02129215308736886,0.08510658389948723,0.19282444426856465,0.10689382684209299,0.03731882072513411,0.11022371813961526
0.0772759,0.2870017342139049,0.19742198956406168,0.021202232741576017,0.08503311167949819,0.19226118049679386,0.10658258510044458,0.03815100882046064,0.11002970951236167
0.0777414,0.2876382581736373,0.19648056646990839,0.021125969991289715,0.08495327286565041,0.1916891836855665,0.10626252702711443,0.03899240584261923,0.10982732841782308
0.0782069,0.2882546542344459,0.19552615795316222,0.0210637437994373,0.08486713707300825,0.19110867250720867,0.10593389830732672,0.03984297389835035,0.10961665616663652
0.0786724,0.2888508761028045,0.19455907223522184,0.021015932115891884,0.08477477441673868,0.1905198653720901,0.10559694411872869,0.04070267214006994,0.10939777511294448
0.0791379,0.2894268812012341,0.1935796180079714,0.020982911760243878,0.08467625548913714,0.18992298035025743,0.1052519090681465,0.04157145674848583,0.10917076862674646
0.0796034,0.2899826306762789,0.19258810434636076,0.020965058304250647,0.08457165133673848,0.18931823509372298,0.10489903712904866,0.04244928091606392,0.10893572106627127
0.080069,0.2905180894059151,0.1915848406213752,0.020962745953993268,0.08446103343752442,0.188705846759444,0.10453857157973627,0.04333609483135833,0.10869271775038274
0.0805345,0.2910332260063967,0.1905701364134219,0.02097634743176969,0.08434447367823833,0.18808603193302617,0.10417075494227862,0.04423184566421954,0.1084418449310313
0.081,0.2915280128385394,0.18954430142615938,0.02100623385775408,0.0842220443318192,0.18745900655318423,0.10379582892221202,0.045136477551893976,0.10818318976576298
0.0814655,0.2920024260134447,0.1885076454007957,0.02105277463145239,0.08409381803496592,0.1868249858369904,0.10341403434901922,0.046049931586028534,0.10791684029029719
0.081931,0.29245644539766125,0.18746047803088092,0.02111633731298456,0.08395986776584284,0.18618418420594152,0.10302561111740567,0.04697214580059303,0.10764288539118426
0.0823966,0.2928900546177789,0.18640310887761943,0.02119728750422394,0.08382026682193766,0.18553681521287385,0.10263079812938888,0.047903055160733336,0.10736141477855314
0.0828621,0.29330324106445027,0.18533584728572763,0.021295988729824727,0.08367508879808158,0.18488309146975573,0.10222983323721559,0.04884259155256765,0.10707251895895871
0.0833276,0.29369599589583006,0.18425900229986264,0.021412802318168334,0.08352440756464148,0.18422322457638785,0.10182295318712131,0.04979068377393792,0.10677628920833793
0.0837931,0.29406831404042183,0.18317288258164677,0.02154808728225965,0.08336829724589305,0.18355742505003986,0.10141039356394596,0.05074725752612814,0.10647281754508327
0.0842586,0.29442019419931864,0.18207779632731136,0.021702200200604347,0.08320683219858309,0.18288590225605308,0.10099238873661842,0.05171223540656086,0.10616219670324144
0.0847241,0.29475163884782246,0.18097405118598298,0.02187549509809827,0.083040086990689,0.1822088643394371,0.1005691718045221,0.05268553690248286,0.10584452010584473
0.0851897,0.2950626542364241,0.179861954178634,0.02206832332696015,0.08286813638038237,0.18152651815748766,0.10014097454475315,0.05366707838565063,0.10551988183838167
0.0856552,0.2953532503911233,0.17874181161771935,0.022281033447738678,0.08269105529520376,0.18083906921345233,0.09970802736028211,0.05465677310802563,0.10518837662241275
0.0861207,0.29562344111306826,0.17761392902752157,0.02251397111042506,0.08250891881145483,0.18014672159126874,0.09927055922902893,0.05565453119848922,0.10485009978933678
0.0865862,0.2958732439774899,0.1764786110652255,0.02276747893570195,0.0823218021338137,0.17944967789139946,0.09882879765386134,0.05666025966058674,0.1045051472543121
0.0870517,0.29610268033190895,0.17533616144274436,0.02304189639635964,0.0821297805751789,0.1787481391677867,0.09838296861352536,0.05767386237130986,0.10415361549033647
0.0875172,0.2963117752935928,0.17418688284931788,0.02333755969891017,0.08193292953674733,0.17804230486594944,0.09793329651451656,0.05869524008092617,0.10379560150248823
0.0879828,0.2965005577462404,0.17303107687490246,0.023654801665430113,0.08173132448833023,0.1773323727622446,0.09748000414389979,0.05972429041386471,0.10343120280233119
0.0884483,0.2966690603358767,0.17186904393437277,0.02399395161566266,0.08152504094891184,0.17661853890431486,0.0970233126230849,0.06076090787066605,0.10306051738248481
0.0889138,0.2968173194659413,0.17070108319255378,0.024355335249409842,0.08131415446745444,0.17590099755274496,0.09656344136256571,0.06180498383100528,0.10268364369136147
0.0893793,0.29694537529155707,0.16952749249010315,0.02473927452924578,0.08109874060395324,0.1751799411239487,0.09610060801762872,0.06285640655779591,0.10230068060807189
0.0898448,0.29705327171296686,0.16834856827026584,0.025146087563582085,0.08087887491074466,0.17445556013430794,0.09563502844503835,0.06391506120238243,0.1019117274174994
0.0903103,0.2971410563681282,0.16716460550652387,0.025576088490116687,0.08065463291407116,0.1737280431455848,0.09516691666070519,0.06498082981082906,0.10151688378554324
0.0907759,0.29720878062445316,0.1659758976311669,0.026029587359697473,0.08042609009590637,0.17299757671162655,0.09469648479834396,0.066053591331312,0.10111624973453043
0.0912414,0.29725649956968087,0.16478273646480895,0.026506890020632196,0.08019332187604421,0.1722643453263831,0.09422394306912736,0.0671332216226223,0.10070992561879547
0.0917069,0.29728427200186885,0.16358541214687763,0.027008298003476223,0.0799564035944556,0.17152853137325472,0.09374949972234221,0.0682195934637872,0.10029801210042655
0.0921724,0.29729216041848877,0.1623842130671015,0.027534108406329475,0.07971541049391685,0.17079031507578757,0.09327336100705341,0.06931257656481764,0.09988061012517746
0.0926379,0.2972802310046111,0.1611794257980212,0.028084613780673846,0.07947041770291256,0.17004987444973474,0.09279573113478083,0.07041203757858999,0.09945782089854445
0.0931034,0.2972485536201624,0.15997133502855027,0.028660102017782393,0.07922150021881637,0.16930738525650085,0.09231681224319373,0.07151784011387083,0.09902974586200802
0.093569,0.2971972017862393,0.15876022349860983,0.029260856235731436,0.07896873289135145,0.16856302095798903,0.09183680436082625,0.07262984474949363,0.09859648666943956
0.0940345,0.29712625267046033,0.15754637193486187,0.029887154667046924,0.07871219040633291,0.16781695267286992,0.09135590537281725,0.07374790904969658,0.09815814516367205
0.0945,0.2970357870713365,0.15633005898756405,0.030539270547016464,0.07845194726969312,0.16706934913429136,0.0908743109876761,0.07487188758063068,0.09771482335323439
0.0949655,0.29692588940163994,0.1551115611685687,0.03121747200269851,0.0781880777917907,0.16632037664904833,0.09039221470507647,0.07600163192804743,0.09726662338924781
0.095431,0.29679664767074954,0.15389115279048765,0.03192202194266049,0.07792065607200338,0.1655701990582305,0.08990980778467905,0.07713699071617447,0.09681364754248345
0.0958966,0.2966481534659524,0.15266910590704386,0.032653177947477754,0.07764975598360485,0.16481897769936432,0.08942727921598351,0.0782778096277878,0.09635599818057869
0.0963621,0.2964805019326815,0.15144569025462998,0.03341119216102535,0.07737545115892583,0.16406687137006576,0.08894481568920962,0.0794239314254884,0.09589377774541018
0.0968276,0.2962937917536712,0.15022117319509357,0.034196311182594724,0.07709781497479955,0.16331403629321864,0.08846260156720745,0.08057519597419079,0.09542708873062106
0.0972931,0.29608812512701393,0.14899581965976869,0.035008775959867205,0.0768169205382919,0.16256062608369376,0.08798081885839565,0.08173144026483113,0.09495603365929949
0.0977586,0.29586360774310055,0.14776989209477262,0.0358488216827764,0.07653284067271664,0.1618067917166229,0.08749964719072666,0.0828924984393021,0.09448071506180564
0.0982241,0.29562034876042825,0.14654365040758552,0.036716677678291454,0.07624564790393601,0.16105268149724178,0.08701926378667758,0.08405820181662146,0.09400123545374524
0.0986897,0.2953584607802602,0.14531735191493003,0.03761256730615324,0.0759554144469473,0.16029844103231403,0.08653984343926481,0.08522837892034145,0.09351769731408893
0.0991552,0.2950780598201242,0.14409125129196712,0.03853670785559584,0.0756622121927568,0.15954421320314838,0.08606155848907975,0.08640285550720556,0.09303020306343887
0.0996207,0.29477926528614046,0.1428656005228231,0.03948931044308569,0.0753661126955428,0.15879013814021917,0.08558457880234308,0.08758145459705897,0.09253885504244692
0.1000862,0.29446219994417266,0.1416406488524617,0.04047057991111122,0.07506718716010981,0.15803635319939954,0.0851090717499741,0.08876399650401849,0.09204375549039134
0.1005517,0.29412698988980057,0.14041664273991444,0.04148071472805597,0.07476550642963681,0.15728299293981554,0.08463520218767143,0.08995029886890643,0.09154500652391968
0.1010172,0.29377376451711357,0.13919382581288162,0.042519906889188594,0.07446114097372222,0.15653018910332814,0.0841631324370012,0.09114017669295352,0.09104271011596678
0.1014828,0.29340265648632524,0.1379724388237148,0.04358834181880316,0.07415416087672828,0.15577807059564988,0.08369302226748877,0.09233344237277406,0.09053696807485605
0.1019483,0.2930138016902091,0.13675271960679125,0.04468619827354344,0.0738446358264274,0.15502676346910071,0.08322502887970899,0.09352990573661629,0.0900278820235935
0.1024138,0.29260733921935383,0.13553490303728946,0.045813648246944685,0.07353263510295294,0.1542763909070079,0.08275930688937046,0.09472937408189015,0.08951555337936304
0.1028793,0.2921834113262365,0.13431922099137336,0.04697085687522633,0.07321822756805599,0.15352707320975306,0.0822960083123886,0.09593165221397358,0.08900008333323194
0.1033448,0.29174216338811176,0.13310590230779246,0.04815798234436903,0.07290148165466956,0.15277892778246943,0.08183528255094212,0.09713654248629823,0.08848157283007567
0.1038103,0.2912837438687173,0.1318951727509034,0.049375175798508884,0.07258246535678078,0.15203206912439077,0.0813772763805072,0.0983438448417141,0.0879601225487308
0.1042759,0.29080830427879856,0.13068725497511846,0.05062258124968146,0.07226124621961137,0.1512866088198526,0.08092213393786409,0.09955335685513235,0.0874358328823838
0.1047414,0.2903159991354592,0.12948236849078545,0.051900335488947964,0.07193789133010613,0.1505426555309455,0.08046999671007037,0.10076487377744454,0.08690880391920354
0.1052069,0.2898069859203489,0.12828072963150366,0.05320856799893537,0.0716124673077288,0.1498003149918198,0.08002100352439485,0.10197818858071611,0.08637913542322485
0.1056724,0.2892814250367043,0.12708255152287973,0.05454740086782221,0.07128504029556453,0.14905969000463928,0.07957529053920574,0.1031930920046511,0.08584692681548975
0.1061379,0.2887394797652605,0.12588804405272755,0.05591694870480131,0.07095567595172768,0.14832088043718128,0.0791329912358063,0.10440937260432447,0.08531227715545274
0.1066034,0.288181316219055,0.1246974138427149,0.05731731855705049,0.07062443944107377,0.14758398322207847,0.07869423641121066,0.10562681679917749,0.08477528512265647
0.107069,0.2876071032971443,0.12351086422145906,0.058748609828242364,0.07029139542721391,0.14684909235769725,0.07825915417185178,0.10684520892327153,0.08423604899868381
0.1075345,0.2870170126372536,0.12232859519907276,0.06021091419862395,0.06995660806482978,0.14611629891064581,0.07782786992821351,0.10806433127679428,0.08369466664939135
0.108,0.28641121856737956,0.12115080344316055,0.06170431554669732,0.06962014099228679,0.1453856910199041,0.07740050639037808,0.10928396417881178,0.08315123550742995
0.1084655,0.2857898980563626,0.11997768225626472,0.0632288898725326,0.06928205732454266,0.14465735390256668,0.07697718356447988,0.11050388602125827,0.08260585255505692
0.108931,0.28515323066344717,0.11880942155475918,0.06478470522274501,0.06894241964634885,0.14393136986118887,0.0765580187500559,0.11172387332415624,0.082058614307244
0.1093966,0.28450139848684375,0.11764620784918862,0.0663718216171681,0.06860129000574121,0.1432078182927246,0.0761431265382828,0.11294370079205704,0.08150961679508471
0.1098621,0.2838345861113105,0.11648822422604979,0.06799029097725581,0.06825872990781714,0.14248677569904464,0.07573261881109011,0.11416314137169202,0.08095895554950437
0.1103276,0.28315298055476906,0.11533565033101038,0.0696401570562467,0.06791480030879654,0.1417683156990219,0.07532660474113831,0.11538196631082306,0.08040672558527495
0.1107931,0.28245677121397245,0.11418866235356075,0.07132145537112394,0.06756956161036465,0.14105250904217026,0.07492519079265014,0.11659994521828046,0.07985302138533741
0.1112586,0.28174614980924323,0.11304743301309268,0.07303421313640529,0.06722307365429658,0.14033942362382193,0.07452848072308314,0.11781684612517522,0.07929793688543299
0.1117241,0.28102131032830013,0.11191213154639856,0.0747784491997973,0.06687539571736356,0.13962912450182788,0.07413657558563053,0.11903243554727205,0.07874156545904532
0.1121897,0.28028244896919413,0.11078292369658316,0.07655417397974922,0.06652658650652235,0.1389216739147646,0.07374957373253743,0.1202464785485079,0.07818399990265479
0.1126552,0.27952976408237523,0.10965997170337961,0.07836138940494132,0.0661767041543896,0.1382171313016293,0.07336757081921878,0.12145873880564025,0.07762533242130693
0.1131207,0.2787634561119131,0.10854343429486,0.08020008885574322,0.06582580621500253,0.1375155533230055,0.0729906598091652,0.12266897867400846,0.07706565461449545
0.1135862,0.2779837275358955,0.10743346668052979,0.08207025710767743,0.06547394965986741,0.13681699388367968,0.07261893097962281,0.12387695925438981,0.07650505746236139
0.1140517,0.2771907828060311,0.10633022054579488,0.08397187027692368,0.065121190874297,0.13612150415668828,0.07225247192803258,0.12508244046093187,0.07594363131220874
0.1145172,0.2763848282864839,0.10523384404778878,0.08590489576789934,0.06476758565403742,0.13542913260877368,0.07189136757921492,0.12628518109014072,0.07538146586533716
0.1149828,0.27556607219196866,0.10414448181254657,0.08786929222295134,0.06441318920218482,0.13473992502722737,0.07153570019328408,0.12748493889090465,0.07481865016419144
0.1154483,0.2747347245251393,0.10306227493351185,0.08986500947419485,0.06405805612639204,0.1340539245480958,0.07118554937427679,0.12868147063553123,0.07425527257982772
0.1159138,0.27389099701330594,0.10198736097136196,0.09189198849753381,0.06370224043636473,0.13337117168572477,0.07084099207947935,0.1298745321917755,0.07369142079969582
0.1163793,0.27303510304451617,0.10091987395513649,0.09395016136889874,0.06334579554164624,0.13269170436361621,0.07050210262943629,0.13106387859583526,0.0731271818157369
0.1168448,0.272167257603041,0.09985994438465341,0.09603945122273622,0.06298877424969011,0.1320155579465706,0.07016895271862386,0.13224926412628962,0.07256264191279573
0.1173103,0.27128767720430425,0.09880769923419754,0.09815977221278559,0.06263122876421877,0.1313427652740868,0.06984161142677055,0.1334304423789558,0.07199788665734651
0.1177759,0.27039657982929477,0.09776326195746554,0.1003110294751769,0.06227321068386639,0.13067335669499006,0.06952014523080713,0.13460716634263803,0.07143300088653107
0.1182414,0.2694941848585011,0.09672675249375151,0.10249311909388459,0.061914771001103694,0.1300073601032579,0.06920461801742739,0.13577918847574214,0.07086806869750852
0.1187069,0.2685807130054079,0.0956982872753573,0.10470592806857051,0.06155596010144182,0.12934480097501252,0.06889509109624095,0.1369462607837286,0.07030317343711491
0.1191724,0.26765638624959415,0.09467797923621156,0.10694933428484914,0.06119682776291196,0.12868570240664715,0.06859162321349868,0.13810813489737586,0.06973839769183152
0.1196379,0.2667214277694728,0.09366593782168062,0.10922320648700706,0.06083742315581694,0.1280300851540523,0.06829427056637137,0.13926456215182528,0.06917382327805989
0.1201034,0.2657760618747147,0.09266226899955465,0.11152740425320834,0.06047779484275059,0.12737796767290743,0.06800308681776207,0.14041529366637798,0.06860953123270137
0.120569,0.2648205139383987,0.09166707527219237,0.11386177797321621,0.06011799077888009,0.12672936616000224,0.0677181231116323,0.14156008042501364,0.06804560180403861
0.1210345,0.26385501032892944,0.09068045568980725,0.11622616882866105,0.059758058312486026,0.12608429459555084,0.06743942808882229,0.14269867335760011,0.06748211444291614
0.1215,0.2628797783417637,0.08970250586487856,0.11862040877588383,0.059398044185754964,0.12544276478646071,0.06716704790334499,0.14383082342176184,0.06691914779421744
0.1219655,0.2618950461309858,0.08873331798767034,0.1210443205313836,0.059037994535818865,0.12480478641051768,0.066901026239134,0.1449562816853746,0.06635677968863493
0.122431,0.2609010426407692,0.0877729808428415,0.12349771755989693,0.05867795489603625,0.12417036706144682,0.06664140432722493,0.1460747994096532,0.0657950871347296
0.1228966,0.25989799753676035,0.08682157982712999,0.12598040406513636,0.05831797019750969,0.12353951229480818,0.06638822096335006,0.14718612813279763,0.06523414631127634
0.1233621,0.25888614113742137,0.08587919696809376,0.1284921749832144,0.057958084770834674,0.12291222567468521,0.06614151252592593,0.14829001975416303,0.06467403255989078
0.1238276,0.257865704345365,0.08494591094389112,0.1310328159787792,0.05759834234807438,0.12228850882112276,0.0659013129944127,0.1493862266189173,0.06411482037793304
0.1242931,0.25683691857871754,0.0840217971040819,0.13360210344388607,0.0572387860649552,0.12166836145827033,0.06566765396802456,0.15047450160314985,0.06355658341168324
0.1247586,0.2558000157025435,0.08310692749143109,0.1361998044996296,0.056879458463277424,0.12105178146318521,0.0654405646847697,0.15155459819939412,0.06299939444978343
0.1252241,0.25475522796036626,0.08220137086469535,0.13882567700055837,0.05652040149353565,0.12043876491524967,0.06522007204079797,0.15262627060252548,0.06244332541694003
0.1256897,0.2537027879058186,0.08130519272237292,0.14147946954189464,0.05616165651774336,0.11982930614615499,0.06500620061003423,0.15368927379599548,0.061888447367881266
0.1261552,0.25264292833445684,0.08041845532739661,0.14416092146957957,0.05580326431245585,0.1192233977904043,0.06479897266407582,0.15474336363836252,0.06133483048156353
0.1266207,0.2515758822157684,0.07954121773274996,0.14686976289316356,0.05544526507198554,0.11862103083628558,0.06459840819233266,0.1557882969500783,0.06078254405562081
0.1270862,0.25050188262540546,0.07867353580798607,0.1496057147015603,0.055087698411803415,0.11802219467726506,0.06440452492239095,0.15682383160048802,0.06023165650105142
0.1275517,0.249421162677671,0.07781546226662892,0.15236848858168198,0.054730603372119935,0.11742687716375055,0.06421733834058253,0.157849726595002,0.05968223533713623
0.1280172,0.24833395545828407,0.07696704669443673,0.15515778703997216,0.05437401842163876,0.11683506465517347,0.06403686171274448,0.15886574216239477,0.05913434718658228
0.1284828,0.24724049395744818,0.07612833557850712,0.15797330342685184,0.054017981461476065,0.11624674207233725,0.0638631061051544,0.15987163984218755,0.058588057770885965
0.1289483,0.2461410110032457,0.07529937233720355,0.1608147219640936,0.05366252982923815,0.11566189294997913,0.06369608040562923,0.16086718257206734,0.05804343190590948
0.1294138,0.24503573919537872,0.0744801973508828,0.16368171777513796,0.053307700303249626,0.11508049948949228,0.06353579134477595,0.16185213477529634,0.05750053349766439
0.1298793,0.24392491083927567,0.07367084799340322,0.1665739569183658,0.05295352910692414,0.11450254261175342,0.06338224351738535,0.16282626244806264,0.05695942553829637
0.1303448,0.2428087578805826,0.07287135866439289,0.16949109642334048,0.052600051913269566,0.11392800201000104,0.06323543940396072,0.16378933324672293,0.05642017010226571
0.1308103,0.24168751184005555,0.07208176082225771,0.17243278433003234,0.0522473038495192,0.11335685620270795,0.06309537939237522,0.16474111657488621,0.055882828342718543
0.1312759,0.2405614037488723,0.07130208301790872,0.17539865973103885,0.05189531950188085,0.11278908258639132,0.06296206179965254,0.16568138367028634,0.05534746048804388
0.1317414,0.23943066408437835,0.0705323509291878,0.17838835281681298,0.05154413292039548,0.11222465748830207,0.06283548289386624,0.16660990769139028,0.054814125838611866
0.1322069,0.238295522706283,0.06977258739597124,0.18140148492391195,0.0511937776238974,0.11166355621893544,0.06271563691615407,0.16752646380368771,0.054282882763688804
0.1326724,0.23715620879331853,0.06902281245592962,0.18443766858627897,0.05084428660506806,0.11110575312430306,0.06260251610284354,0.16843082926560723,0.05375378869852401
0.1331379,0.2360129507803754,0.06828304338092293,0.18749650758956946,0.050495692335575715,0.11055122163790713,0.06249611070768628,0.16932278351400376,0.0532269001416042
0.1336034,0.23486597629612385,0.06755329471400882,0.19057759702853277,0.050148026771293326,0.10999993433235582,0.062396409024199254,0.17020210824916027,0.05270227265207052
0.134069,0.2337155121011322,0.06683357830704141,0.1936805233674607,0.04980132135758749,0.10945186297055963,0.06230339740811183,0.17106858751924722,0.0521799608472934
0.1345345,0.2325617840264909,0.06612390335883792,0.19680486450371254,0.04945560703467139,0.10890697855644882,0.06221706029991864,0.17192200780418265,0.05166001840060012
0.135,0.23140501691294996,0.06542427645388972,0.1999501898343255,0.04911091424301487,0.10836525138515327,0.06213738024753814,0.17276215809883536,0.051142498039149706
0.1354655,0.23024543455057714,0.06473470160159417,0.2031160603257178,0.0487672729288053,0.10782665109258906,0.062064337929077326,0.1735888299955145,0.050627451541949746
0.135931,0.22908325961894227,0.06405518027598264,0.20630202858649138,0.04842471254945263,0.10729114670439863,0.06199791217570338,0.17440181776568936,0.05011492973800953
0.1363966,0.22791871362783322,0.06338571145592038,0.2095076389433376,0.04808326207913266,0.1067587066841955,0.061938079994623065,0.17520091844088415,0.04960498250462401
0.1368621,0.22675201685850538,0.06272629166575296,0.21273242752005003,0.04774295001436247,0.10622929898106981,0.061884816592170856,0.17598593189269468,0.04909765876578356
0.1373276,0.2255833883054678,0.06207691501637396,0.21597592231964569,0.0474038043796025,0.10570289107631496,0.06183809539700657,0.1767566609118757,0.04859300649070539
0.1377931,0.2244130456188075,0.061437573246688505,0.21923764330959486,0.04706585273287958,0.10517945002934098,0.061797888083423,0.17751291128644905,0.04809107269248366
0.1382586,0.22324120504705428,0.060808255765446975,0.2225171025101586,0.04672912217142507,0.10465894252274437,0.06176416459476389,0.17825449187878603,0.04759190342685683
0.1387241,0.22206808138059111,0.060188949693423525,0.22581380408583193,0.04639363933732226,0.1041413349065065,0.06173689316695224,0.17898121470161876,0.04709554379109152
0.1391897,0.2208938878956182,0.059579639905913515,0.2291272444398889,0.04605943042315632,0.10362659324129515,0.06171604035212875,0.179692894992939,0.0466020379229833
0.1396552,0.21971883629868144,0.05898030907552419,0.23245691231202553,0.04572652117766038,0.1031146833408441,0.061701571042399976,0.18038935128974382,0.04611142899997547
0.1401207,0.21854313667178044,0.058390937715232495,0.23580228887909505,0.04539493691135051,0.10260557081338631,0.06169344849369546,0.18107040550058937,0.04562375923839796
0.1405862,0.21736699741807372,0.05781150422168368,0.2391628478589292,0.04506470250214246,0.10209922110211733,0.06169163434973297,0.18173588297691684,0.04513906989282887
0.1410517,0.2161906252082001,0.057241984918704115,0.24253805561723726,0.04473584240094216,0.10159559952466671,0.061696088666090686,0.18238561258311406,0.04465740125558221
0.1415172,0.2150142249272355,0.05668235410100127,0.24592737127757444,0.044408380637202476,0.10109467131155711,0.06170676993438489,0.1830194267652773,0.044178792656325544
0.1419828,0.21383799962230396,0.05613258407802315,0.24933024683436827,0.044082340824437585,0.10059640164363308,0.06172363510655172,0.1836371616186384,0.0437032824618318
0.1424483,0.21266215045086115,0.05559264521794947,0.25274612726899137,0.04375774616568681,0.10010075568844365,0.06174663961923134,0.18423865695362113,0.04323090807586948
0.1429138,0.21148687662966692,0.055062505991786505,0.25617445066886646,0.04343461945891891,0.09960769863556562,0.06177573741825252,0.1848237563604903,0.04276170593923581
0.1433793,0.2103123753844644,0.054542133017537846,0.2596146483495882,0.04311298310236804,0.09911719573085684,0.06181088098321554,0.18539230727255576,0.04229571152993654
0.1438448,0.20913884190038268,0.05403149110442333,0.2630661449800447,0.04279285909979232,0.09862921230963088,0.061852021352170904,0.18594416102789285,0.04183295936351656
0.1443103,0.20796646927308104,0.05353054329711959,0.26652835871052066,0.042474269065645776,0.09814371382874772,0.06189910814639065,0.18647917292953953,0.041373482993544736
0.1447759,0.20679544846065415,0.05303925091999596,0.27000070130376314,0.04215723423015454,0.09766066589761682,0.06195208959522911,0.18699720230413033,0.040917315012256254
0.1452414,0.20562596823631735,0.052557573621320276,0.27348257826899175,0.04184177544428848,0.09718003430811181,0.062010912561068963,0.18749811255892768,0.04046448705135569
0.1457069,0.2044582151418934,0.0520854694174098,0.2769733889988347,0.041527913184619555,0.09670178506339808,0.06207552256434855,0.18798177123721074,0.04001502978298389
0.1461724,0.2032923734421221,0.05162289473670257,0.28047252690917335,0.041215667558058826,0.09622588440567728,0.06214586380866577,0.18844805007198334,0.03956897292085146
0.1466379,0.202128625079815,0.05116980446372487,0.28397937958187713,0.04090505830646433,0.09575229884285467,0.06222187920595384,0.1888968250379638,0.039126345221541875
0.1471034,0.20096714963187817,0.050726151982930595,0.2874933289104145,0.04059610481111308,0.09528099517413768,0.06230351040172385,0.18932797640182103,0.038687174485986575
0.147569,0.19980812426622493,0.05029188922238862,0.291013751248323,0.04028882609703106,0.09481194051457624,0.06239069780036897,0.1897413887706219,0.03825148756111477
0.1480345,0.19865172369960163,0.04986696669729461,0.2945400175605235,0.039983240837175534,0.09434510231855703,0.062483380590524835,0.1901369511384577,0.03781931034168045
0.1485,0.1974981201563474,0.04945133355328409,0.2980714935774629,0.03967936735646487,0.09388044840226571,0.06258149677048047,0.19051455693121844,0.03739066777226882
0.1489655,0.19634748332810853,0.049044937609523775,0.3016075399520683,0.03937722363565091,0.09341794696513167,0.06268498317363383,0.1908741040494872,0.036965583849484666
0.149431,0.19519998033452676,0.048647725401558026,0.30514751241949584,0.03907682731502997,0.0929575666102716,0.06279377549398577,0.19121549490952774,0.03654408162432462
0.1498966,0.19405577568491938,0.04825964222388759,0.3086907619596531,0.03877819569798928,0.09249927636394766,0.062907808311666,0.1915386364823411,0.03612618320473543
0.1503621,0.1929150312409676,0.04788063217225759,0.31223663496247483,0.03848134575438685,0.09204304569405612,0.06302701511848456,0.1918434403307701,0.03571190975836001
0.1508276,0.19177790618042867,0.047510638185632004,0.3157844733959266,0.038186294123764196,0.09158884452766225,0.06315132834350168,0.19212982264463238,0.03530128151547271
0.1512931,0.19064455696188612,0.0471496020878317,0.3193336149767117,0.037893057118392685,0.09113664326759668,0.06328067937860873,0.19239770427386593,0.03489431777210518
0.1517586,0.18951513729055133,0.04679746462881367,0.3228833933436532,0.03760165072615541,0.090686412808128,0.06341499860411262,0.19264701075967403,0.03449103689336368
0.1522241,0.18838979808512868,0.04645416552556937,0.32643313823372144,0.037312090613267145,0.0902381245497261,0.0635542154143153,0.19287767236365796,0.03409145631693855
0.1526897,0.1872686874457559,0.04611964350262027,0.3299821756606772,0.037024392126835705,0.08979175041293092,0.06369825824308,0.19308962409493038,0.03369559255680622
0.1531552,0.18615195062302997,0.04579383633208928,0.33352982809629744,0.03673857029726809,0.0893472628513418,0.06384705458937541,0.19328280573520254,0.033303461207123845
0.1536207,0.18503972998812887,0.045476680873326764,0.3370754146541514,0.03645463984052498,0.08890463486374263,0.06400053104278958,0.1934571618618409,0.032915076946316395
0.1540862,0.18393216500403972,0.04516811311206994,0.34061825127589274,0.0361726151602271,0.08846384000537881,0.06415861330900481,0.19361264186889135,0.03253045354135582
0.1545517,0.18282939219790387,0.04486806819911498,0.3441576509200313,0.03589251034961687,0.08802485239840288,0.064321226235226,0.19374919998606996,0.03214960385223168
0.1550172,0.18173154513448944,0.044576480488481174,0.3476929237531489,0.03561433919337863,0.08758764674150608,0.06448829383555436,0.19386679529572023,0.03177253983661254
0.1554828,0.1806387543908036,0.04429328357504674,0.35122337734351883,0.035338115169320526,0.08715219831875394,0.06465973931629872,0.1939653917477381,0.03139927255469717
0.1559483,0.1795511475318568,0.04401841033163582,0.3547483168570906,0.03506385144992133,0.0867184830076444,0.06483548510121644,0.19404495817246722,0.031029812174254275
0.1564138,0.17846884908759184,0.04375179294553621,0.3582670452557969,0.03479156090374511,0.0862864772864076,0.06501545285667648,0.1941054682915674,0.03066416797584945
0.1568793,0.17739198053099103,0.043493362954427475,0.3617788634981387,0.03452125609672713,0.08585615824056679,0.06519956351673648,0.19414690072685878,0.030302348358257822
0.1573448,0.17632066025737386,0.0432430512816988,0.3652830707420035,0.03425294929333425,0.08542750356878065,0.06538773730812651,0.19416923900714392,0.029944360844060623
0.1578103,0.17525500356489718,0.04300078827113603,0.3687789645496688,0.033986652457603586,0.08500049158798728,0.06557989377513271,0.1941724715730099,0.029590212085423877
0.1582759,0.17419512263626974,0.042766503720957194,0.37226584109493904,0.033722377254063234,0.08457510123787115,0.06577595180437451,0.19415659177961084,0.029239907870057227
0.1587414,0.17314112652169109,0.04254012691717598,0.375742995372364,0.03346013504853918,0.0841513120846737,0.06597582964947026,0.19412159789743058,0.028893453127350827
0.1592069,0.17209312112302366,0.04232158666627306,0.3792097214084836,0.03319993690885233,0.08372910432436913,0.0661794449555865,0.194067493111024,0.02855085193468824
0.1596724,0.1710512091792066,0.04211081132715602,0.38266531247504054,0.03294179360540959,0.08330845878522612,0.06638671478386697,0.19399428551573494,0.02821210752393291
0.1601379,0.1700154902529178,0.04190772884239013,0.386109061304101,0.03268571561169273,0.0828893569297763,0.06659755563573685,0.19390198811238854,0.02787722228808608
0.1606034,0.16898606071848984,0.04171226676868425,0.38954026030501837,0.032431713104648735,0.0824717808562092,0.06681188347707817,0.19379061879995604,0.027546197788113676
0.161069,0.16796301375108447,0.04152435230661906,0.39295820178317464,0.03217979596498491,0.08205571329921356,0.06702961376227157,0.19366020036619122,0.027219034759939767
0.1615345,0.16694643931712935,0.04134391232960764,0.39636217816042935,0.0319299737773723,0.08164113763028373,0.06725066145810028,0.19351076047623725,0.026895733121604013
0.162,0.16593642416602128,0.041170873412082365,0.3997514821972041,0.0316822558305609,0.08122803785750925,0.06747494106751194,0.19334233165920528,0.026576291980580483
0.1624655,0.16493305182309984,0.04100516185690434,0.40312540721612805,0.03143665111741029,0.08081639862486534,0.06770236665323401,0.19315495129272844,0.02626070964125492
0.162931,0.16393640258389564,0.040846703721995024,0.40648324732716384,0.03119316833483961,0.08040620521102142,0.06793285186123894,0.19294866158549537,0.025948983612557538
0.1633966,0.16294655350965745,0.040695424846190806,0.4098242976541327,0.030951815883700728,0.07999744352768375,0.06816630994405472,0.19272350955777082,0.025641110615748246
0.1638621,0.16196357842416337,0.04055125087432242,0.41314785456255354,0.030712601868578982,0.07959010011748816,0.06840265378391645,0.1924795470199132,0.025337086592351066
0.1643276,0.16098754791182102,0.04041410728152151,0.4164532158887069,0.030475534097525687,0.07918416215145802,0.06864179591575506,0.19221683054890237,0.025036906712234536
0.1647931,0.1600185293170624,0.04028391939675655,0.4197396811698308,0.030240620081726958,0.078779617426042,0.06888364855001829,0.19193542146289283,0.02474056538183479
0.1652586,0.15905658674503892,0.040160612425600095,0.4230065518753549,0.030007867035113406,0.07837645435974581,0.06912812359531996,0.19163538579381126,0.024448056252517922
0.1657241,0.15810178106362247,0.040044111472229665,0.4262531316390734,0.029777281873915262,0.07797466198937154,0.06937513268091362,0.19131679425802028,0.024159372229078283
0.1661897,0.15715416990671816,0.03993434156066446,0.4294787264921557,0.029548871216167553,0.07757422996587784,0.06962458717898685,0.19097972222507342,0.0238745054783691
0.1666552,0.1562138076788942,0.03983122765524054,0.43268264509689,0.029322641381169825,0.07717514854987376,0.06987639822677273,0.19062424968458863,0.02359344743806176
0.1671207,0.15528074556133417,0.03973469468032771,0.43586419898105233,0.029098598388904905,0.07677740860675887,0.0701304767484754,0.19025046121126998,0.0233161888255301
0.1675862,0.1543550315191165,0.039644667539292106,0.4390227027727886,0.02887674795942087,0.07638100160152235,0.07038673347700698,0.18985844592811052,0.023042719646855718
0.1680517,0.15343671030982484,0.03956107113270913,0.4421574744358944,0.02865709551218043,0.0759859195932131,0.07064507897553246,0.18944829746781053,0.022773029205950465
0.1685172,0.15252582349349275,0.039483830375832474,0.4452678355053752,0.028439646165381673,0.07559215522909292,0.07090542365881983,0.18902011393244728,0.022507106113792186
0.1689828,0.1516224094438851,0.03941287021532574,0.4483531113231611,0.028224404735253898,0.07519970173848443,0.07116767781439212,0.18857399785143386,0.022244938297769797
0.1694483,0.15072650336111726,0.03934811564526455,0.4514126312738533,0.028011375735332012,0.07480855292632511,0.07143175162347873,0.18811005613780643,0.021986513011134055
0.1699138,0.14983813728561202,0.03928949172241801,0.4544457290203694,0.027800563375712923,0.07441870316643813,0.07169755518176314,0.18762840004287898,0.02173181684255021
0.1703793,0.14895734011339362,0.03923692358081988,0.45745174273935657,0.027591971562297195,0.07403014739453037,0.07196499851992545,0.1871291451093053,0.021480835725749003
0.1708448,0.1480841376127163,0.03919033644564107,0.4604300153562344,0.027385603896019156,0.07364288110092751,0.0722339916239784,0.1866124111225885,0.021233554949272638
0.1713103,0.14721855244202353,0.03914965564637616,0.4633798947797299,0.02718146367206874,0.0732569003230557,0.07250444445539589,0.18607832206107686,0.020989959166312445
0.1717759,0.14636060416923316,0.03911480662935749,0.4663007341357627,0.02697955387910845,0.07287220163767878,0.07277626697103333,0.1855270060444853,0.020750032404635108
0.1722414,0.14551030929234274,0.03908571496961148,0.4691918920005356,0.026779877198488785,0.07248878215289999,0.07304936914283898,0.18495859528098083,0.02051375807659451
0.1727069,0.14466768126134835,0.0390623063820722,0.47205273263268616,0.026582436003465684,0.0721066394999364,0.07332366097735525,0.18437322601286843,0.020281118989226174
0.1731724,0.1438327305014688,0.03904450673216796,0.4748826262043511,0.026387232358423406,0.07172577182467486,0.07359905253500842,0.18377103846091353,0.020052097354421303
0.1736379,0.1430054644376664,0.0390322420457971,0.47768094903099634,0.02619426801810634,0.0713461777790171,0.07387545394918511,0.1831521767673358,0.019826674799177258
0.1741034,0.14218588752045494,0.03902543851870955,0.4804470837998622,0.026003544426863173,0.07096785651202211,0.07415277544509327,0.182516788937508,0.019604832375921238
0.174569,0.14137400125298383,0.0390240225253111,0.4831804197968755,0.02581506271790673,0.07059080766085389,0.07443092735840512,0.18186502678039135,0.019386550572903744
0.1750345,0.1405698042193872,0.039027920626907325,0.48588035313187655,0.02562882371259275,0.07021503134154203,0.07470982015367914,0.18119704584773919,0.0191718093246584
0.1755,0.13977329211438597,0.039037059579404614,0.48854628696201213,0.02544482791972071,0.06984052813956342,0.07498936444255797,0.18051300537209888,0.018960588022524656
0.1759655,0.13898445777412965,0.0390513663404855,0.49117763171314377,0.0252630755348596,0.06946729910025266,0.0752694710017393,0.17981306820364173,0.018752865525229843
0.176431,0.13820329120826372,0.03907076807627582,0.4937738052991212,0.02508356643970156,0.06909534571904964,0.07555005079071717,0.17909740074585137,0.01854862016952698
0.1768966,0.13742977963320804,0.039095192167520956,0.496334233338771,0.0249063002014458,0.06872466993159256,0.0758310149692916,0.17836617289010065,0.018347829780884724
0.1773621,0.13666390750663007,0.03912456621528859,0.49885834937045154,0.02473127607221539,0.06835527410366578,0.07611227491484472,0.17761955794914774,0.01815047168422558
0.1778276,0.135905656563096,0.03915881804621532,0.501345595064022,0.024558492988509015,0.06798716102101184,0.07639374223938197,0.17685773258958273,0.017956522714708573
0.1782931,0.13515500585088164,0.03919787571731419,0.5037954204300786,0.024387949570689807,0.06762033387901792,0.07667532880633633,0.1760808767632573,0.017765959228552383
0.1787586,0.13441193176992355,0.039241667520360006,0.506207284026307,0.02421964412251314,0.06725479627228685,0.07695694674713435,0.17528917363773078,0.017578757113895106
0.1792241,0.13367640811089035,0.03929012198586936,0.5085806531608019,0.024053574630695067,0.06689055218410321,0.0772385084775221,0.1744828095257679,0.017394891801686817
0.1796897,0.13294840609535208,0.03934316788669148,0.5109150040922066,0.023889738764522994,0.0665276059758054,0.07751992671364992,0.1736619738139231,0.017214338276611264
0.1801552,0.13222789441702576,0.03940073424122628,0.5132098222265221,0.02372813387550991,0.06616596237607493,0.07780111448791519,0.17282685889024896,0.01703707108803302
0.1806207,0.13151483928407387,0.039462750316285364,0.5154646023104423,0.02356875699709343,0.06580562647015435,0.07808198516456302,0.17197766007116674,0.01686306436096647
0.1810862,0.13080920446243136,0.03952914562961161,0.5176788486210654,0.023411604844380735,0.06544660368900473,0.07836245245504626,0.17111457552753856,0.016692291807063064
0.1815517,0.13011095132013617,0.03959984995207269,0.519852075151838,0.023256673813940323,0.06508889979841383,0.07864243043314613,0.1702378062099814,0.016524726735613223
0.1820172,0.12942003887263762,0.03967479330954359,0.5219838057945868,0.023103959983641516,0.06473252088806573,0.07892183354985578,0.16934755577346478,0.016360342064559417
0.1824828,0.12873642382905603,0.03975390598449305,0.5240735745174946,0.02295345911254261,0.0643774733605827,0.07920057664802956,0.16844403050123305,0.016199110331517146
0.1829483,0.12806006063936634,0.03983711851728859,0.5261209255388762,0.022805166640828513,0.06402376392054969,0.07947857497680194,0.16752743922809604,0.01604100370480071
0.1834138,0.12739090154247795,0.03992436170723468,0.5281254134966139,0.022659077689798895,0.06367139956353222,0.07975574420578178,0.16659799326313124,0.015885993994450752
0.1838793,0.12672889661518227,0.040015566613357964,0.5300866036131072,0.022515187061907832,0.06332038756509752,0.08003200043902868,0.16565590631184157,0.015734052663260795
0.1843448,0.12607399382193818,0.04011066455495384,0.532004071855594,0.022373489240856248,0.0629707354698487,0.08030726022881983,0.16470139439781326,0.015585150837799976
0.1848103,0.1254261390654656,0.04020958711190778,0.5338774050916959,0.022233978391738487,0.06262245108048159,0.08058144058921601,0.1637346757839182,0.015439259319429246
0.1852759,0.12478527623811636,0.040312266124804916,0.5357062012400436,0.022096648361244656,0.06227554244687246,0.08085445900943547,0.16275597089310676,0.015296348595308337
0.1857414,0.12415134727399058,0.04041863369484079,0.5374900694158279,0.021961492677920514,0.06193001785520554,0.08112623346704403,0.16176550222883557,0.015156388849390856
0.1862069,0.12352429220176668,0.040528622183546054,0.5392286300711255,0.02182850455248684,0.06158588581714803,0.08139668244096952,0.16076349429517664,0.015019349973404999
0.1866724,0.12290404919821195,0.04064216421233746,0.5409215151298483,0.021697676878220242,0.06124315505908016,0.08166572492434818,0.15975017351665272,0.014885201577817392
0.1871379,0.12229055464234015,0.040759192661907216,0.5425683681171652,0.02156900223139746,0.06090183451138777,0.08193328043721043,0.15872576815784398,0.014753913002777752
0.1876034,0.12168374317018174,0.040879640671462415,0.5441688442832545,0.021442472871805156,0.060561933297824146,0.08219926903901348,0.15769050824281045,0.014625453329042002
0.188069,0.12108354773013186,0.041003441637826085,0.5457226107212496,0.02131808074331715,0.06022346072494789,0.08246361134102784,0.1566446254743739,0.014499791388871532
0.1885345,0.12048989963884066,0.04113052921441103,0.5472293464792559,0.021195817474540975,0.059886426271643214,0.08272622851858541,0.15558835315330216,0.014376895776906283
0.189,0.11990272863760959,0.04126083731007739,0.5486887426663273,0.021075674379535364,0.05955083957872847,0.08298704232319619,0.15452192609743745,0.014256734861009262
0.1894655,0.11932196294925712,0.041394300087884514,0.5501005025523071,0.02095764245860029,0.05921671043865886,0.08324597509454171,0.15344558056080945,0.014139276793080188
0.189931,0.11874752933541616,0.04153085196374744,0.5514643416614561,0.02084171239914099,0.05888404878532858,0.0835029497723531,0.15235955415277175,0.014024489519835962
0.1903966,0.11817935315422509,0.04167042760500795,0.5527799878598021,0.020727874576607346,0.058552864683977995,0.08375788990818217,0.15126408575720057,0.013912340793555794
0.1908621,0.11761735841837395,0.0418129619289299,0.554047181436171,0.020616119055510043,0.058223168321210904,0.08401071967707334,0.15015941545179198,0.013802798182788885
0.1913276,0.11706146785346612,0.041958390101127924,0.5552656751768688,0.020506435590514686,0.05789496999512716,0.0842613638891444,0.14904578442749367,0.01369582908302259
0.1917931,0.11651160295665598,0.04210664753393877,0.5564352344340026,0.020398813627615184,0.057568280105575416,0.08450974800108274,0.14792343490810606,0.013591400727309041
0.1922586,0.11596768405552209,0.042257669884743845,0.5575556371874467,0.020293242305387676,0.0572431091445309,0.08475579812756381,0.146792610070087,0.013489480196848126
0.1927241,0.11542963036713513,0.04241139305425141,0.5586266741004672,0.0201897104563262,0.05691946768660259,0.0849994410525979,0.14565355396259277,0.013390034431524776
0.1931897,0.11489736005727967,0.042567753184746586,0.5596481485690331,0.020088206608261387,0.05659736637967382,0.08524060424081052,0.1445065114277874,0.013293030240398365
0.1936552,0.11437079029978829,0.042726686658317074,0.5606198767648519,0.019988718985863543,0.05627681593568025,0.08547921584866197,0.1433517280214522,0.013198434312142106
0.1941207,0.11384983733594624,0.04288813009506222,0.5615416876721714,0.019891235512231417,0.05595782712152844,0.08571520473561052,0.14218944993392565,0.01310621322543027
0.1945862,0.11333441653392465,0.04305202035129305,0.5624134231183986,0.019795743810568096,0.055640410750158055,0.085948500475224,0.14101992391140233,0.013016333459271074
0.1950517,0.11282444244819914,0.043218294517730474,0.5632349377985865,0.019702231205945393,0.055324577671750065,0.08617903336624341,0.1398433971776206,0.012928761403283038
0.1955172,0.11231982887891075,0.043386889917709254,0.5640060992938397,0.019610684727158188,0.0550103387650831,0.08640673444360196,0.13866011735596528,0.01284346336791257
0.1959828,0.11182048893112487,0.04355774410539526,0.564726788083692,0.019521091108670112,0.054697704929039435,0.08663153548940196,0.1374703323920132,0.012760405594590591
0.1964483,0.11132633507394349,0.04373079486402394,0.5653968975525027,0.019433436792652005,0.05438668707426171,0.08685336904385194,0.13627429047654638,0.012679554265825909
0.1969138,0.11083727919942597,0.04390598020416836,0.5660163339899174,0.019347707931114445,0.05407729611496111,0.08707216841616536,0.13507223996905904,0.01260087551523302
0.1973793,0.11035323268127338,0.04408323836204545,0.5665850165854371,0.019263890388135585,0.053769542960877305,0.08728786769542261,0.13386442932178247,0.01252433543749195
0.1978448,0.10987410643323176,0.044262507797869596,0.5671028774171342,0.019181969742185445,0.05346343850939035,0.08750040176139758,0.1326511070042523,0.01244990009823772
0.1983103,0.10939981096717022,0.04444372719426266,0.5675698614345555,0.0191019312885476,0.053158993637784195,0.08770970629534959,0.13143252142844217,0.012377535543876937
0.1987759,0.10893025645079096,0.044626835454729834,0.5679859264358554,0.019023760041839147,0.05285621919566151,0.08791571779078217,0.130208920874487,0.012307207811328946
0.1992414,0.10846535276492854,0.044811771702210595,0.5683510430392014,0.018947440738629633,0.05255512599750918,0.08811837356416947,0.12898055341702014,0.01223888293768896
0.1997069,0.10800500956039759,0.04499847527771349,0.5686651946484992,0.018872957840159583,0.0522557248154137,0.08831761176565256,0.12774766685214722,0.01217252696981065
0.2001724,0.1075491363143494,0.045186885739043565,0.5689283774134911,0.018800295535159155,0.05195802637192562,0.0885133713897082,0.1265105086250802,0.01210810597380561
0.2006379,0.10709764238609931,0.045376942859630724,0.5691406001842838,0.018729437742767186,0.05166204133307225,0.08870559228579432,0.12526932575845554,0.012045586044457098
0.2011034,0.10665043707238837,0.045568586627467045,0.5693018844603714,0.018660368115551017,0.0513677803015172,0.08889421516897655,0.12402436478135956,0.011984933314545431
0.201569,0.10620742966204506,0.04576175724416074,0.5694122643342231,0.01859307004262713,0.05107525380986585,0.08907918163054024,0.12277587165908384,0.011926113964082389
0.2020345,0.10576852949001479,0.04595639512411412,0.569471786429512,0.01852752665288278,0.050784472314115,0.08926043414859276,0.12152409172363375,0.011869094229451899
0.2025,0.10533364599072696,0.04615244089383249,0.5694805098340694,0.018463720818298484,0.050495446187245316,0.08943791609866027,0.12026926960501291,0.011813840412454271
0.2029655,0.10490268875077143,0.04634983539137074,0.5694385060276516,0.0184016351573713,0.05020818571295489,0.08961157176428265,0.1190116491633056,0.011760318889251272
0.203431,0.10447556756085805,0.046548519665923986,0.5693458588046173,0.018341252038638744,0.04992270107953204,0.08978134634761016,0.11775147342157888,0.011708496119209209
0.2038966,0.10405219246703484,0.046748434977568566,0.5692026641916159,0.018282553584303057,0.04963900237386558,0.08994718598000444,0.11648898449962568,0.011658338653637234
0.2043621,0.10363247382114195,0.0469495227971594,0.5690090303603936,0.01822552167395549,0.04935709957559074,0.09010903773264689,0.11522442354856986,0.011609813144417886
0.2048276,0.10321632233047964,0.047151724806389544,0.5687650775358303,0.01817013794840024,0.0490770025513691,0.09026684962715639,0.11395803068635313,0.011562886352526933
0.2052931,0.10280364910667034,0.04735498289801765,0.5684709378993245,0.018116383813577577,0.04879872104930081,0.0904205706462174,0.11269004493412381,0.011517525156439392
0.2057586,0.1023943657136948,0.04755923917626868,0.5681267554876488,0.01806424044458555,0.04852226469346769,0.09057015074421947,0.11142070415354653,0.011473696560418552
0.2062241,0.10198838421508381,0.04776443595741316,0.5677326860874015,0.018013688789799684,0.04824764297860561,0.09071554085790781,0.11015024498505084,0.011431367702684773
0.2066897,0.10158561722024731,0.04797051577052988,0.5672888971251843,0.017964709575089922,0.04797486526490476,0.09085669291704436,0.10887890278703662,0.011390505863460703
0.2071552,0.1011859779299229,0.04817742135845687,0.5667955675536401,0.017917283308134024,0.04770394077293643,0.09099355985507734,0.10760691157605312,0.011351078472889497
0.2076207,0.1007893801807264,0.0483850956789347,0.5662528877334874,0.0178713902828265,0.04743487857870475,0.09112609561981716,0.10633450396796779,0.011313053118822554
0.2080862,0.10039573848878673,0.04859348190594648,0.5656610593116892,0.017827010583782214,0.04716768760882207,0.09125425518411509,0.10506191112014006,0.011276397554473223
0.2085517,0.10000496809244662,0.048802523431258606,0.5650202950958977,0.017784124090933724,0.046902376635806285,0.09137799455654111,0.10378936267461479,0.011241079705932872
0.2090172,0.0996169849940109,0.04901216386616575,0.5643308189253152,0.017742710484221373,0.04663895427349839,0.0914972707920559,0.10251708670234877,0.011207067679545768
0.2094828,0.09923170600052295,0.049222347043443505,0.5635928655381162,0.017702749248375248,0.04637742897259816,0.09161204200267146,0.10124530964848343,0.011174329769139322
0.2099483,0.09884904876355026,0.04943301701951193,0.5628066804355718,0.017664219677788008,0.04611780901631564,0.09172226736809445,0.09997425627867562,0.011142834463106426
0.2104138,0.09846893181795961,0.049644118076812356,0.5619725197430214,0.01762710088147768,0.04586010251613584,0.09182790714634521,0.09870414962649776,0.011112550451336784
0.2108793,0.09809127461966238,0.04985559472640012,0.5610906500678325,0.017591371788139323,0.045604317407693995,0.09192892268434508,0.09743521094191776,0.011083446631994487
0.2113448,0.09771599758231073,0.050067391710755214,0.560161348354493,0.017557011151284486,0.045350461446758444,0.09202527642846353,0.09616765964086842,0.01105549211813919
0.2118103,0.09734302211292596,0.05027945400681249,0.5591849017369758,0.01752399755446719,0.04509854220531846,0.09211693193501644,0.09490171325591518,0.011028656244188582
0.2122759,0.09697227064644101,0.05049172682921285,0.5581616073885138,0.017492309416595103,0.04484856706777448,0.0922038538807055,0.09363758738803032,0.011002908572220173
0.2127414,0.09660366667913924,0.05070415563377648,0.5570917723689232,0.017461924997324352,0.04460054322722824,0.09228600807298894,0.09237549565948067,0.010978218898111021
0.2132069,0.0962371348009732,0.05091668612119872,0.555975713469607,0.017432822402536314,0.04435447768187038,0.09236336146037262,0.09111564966783531,0.010954557257514482
0.2136724,0.09587260072674768,0.05112926424096899,0.5548137570563737,0.017404979589894624,0.04411037723146294,0.0924358821426103,0.08985825894109907,0.010931893931673492
0.2141379,0.09550999132615211,0.0513418361955127,0.553606238910198,0.017378374374480456,0.0438682484739141,0.09250353938080101,0.08860353089397595,0.010910199453070094
0.2146034,0.09514923465262919,0.0515543484445556,0.552353504066049,0.01735298443450417,0.043628097801942066,0.09256630360737153,0.0873516707852671,0.010889444610911132
0.215069,0.09479025997106687,0.05176674770970996,0.5510559066499097,0.017328787317091282,0.043389931399824715,0.09262414643593145,0.08610288167640598,0.010869600456450019
0.2155345,0.0944329977843021,0.05197898097928105,0.5497138097141052,0.0173057604441407,0.043153755240231656,0.09267704067098811,0.08485736439113323,0.01085063830814452
0.216,0.09407737985842614,0.05219099551329248,0.5483275850710564,0.01728388111825319,0.04291957508113477,0.09272496031750824,0.08361531747631289,0.010832529756650566
0.2164655,0.09372333924688213,0.05240273884872792,0.546897613125568,0.017263126528727968,0.04268739646279349,0.09276788059031237,0.08237693716389076,0.010815246669652128
0.216931,0.09337081031334721,0.05261415880498699,0.5454242827057592,0.01724347375762527,0.042457224704811294,0.09280577792328774,0.08114241733399505,0.01079876119652727
0.2173966,0.09301972875339296,0.05282520348955214,0.5439079908927389,0.017224899785892762,0.042229064903261025,0.09283862997840431,0.07991194947917898,0.0107830457728505
0.2178621,0.09267003161491982,0.05303582130386314,0.5423491428491233,0.01720738149955361,0.04200292192787774,0.09286641565451803,0.07868572266980448,0.010768073124731572
0.2183276,0.09232165731736311,0.053245960949395384,0.5407481516464898,0.01719089569595395,0.041778800419319195,0.09288911509594487,0.07746392352056546,0.010753816272990959
0.2187931,0.09197454566966996,0.05345557143393779,0.5391054380918622,0.01717541909006748,0.0415567047864952,0.09290670970078825,0.07624673615814899,0.010740248537172323
0.2192586,0.09162863788704856,0.05366460207806557,0.5374214305533129,0.01716092832085496,0.0413366392039676,0.09291918212900277,0.07503434219003208,0.010727343539392345
0.2197241,0.09128387660649263,0.05387300252180277,0.5356965647847719,0.01714739995767624,0.041118607609423256,0.09292651631017611,0.07382692067441163,0.010715075208028486
0.2201897,0.09094020590108567,0.05408072273146931,0.5339312837501243,0.01713481050675252,0.040902613701222786,0.09292869745101093,0.07262464809126476,0.01070341778124518
0.2206552,0.09059757129309101,0.05428771300670645,0.5321260374466816,0.017123136417676425,0.04068866093602809,0.09292571204248837,0.07142769831453664,0.010692345810359093
0.2211207,0.09025591976583457,0.05449392398767441,0.5302812827281066,0.017112354089967582,0.040476752526512,0.09291754786669337,0.07023624258545255,0.010681834163044041
0.2215862,0.08991519977438898,0.05469930666241548,0.528397483126872,0.01710243987967123,0.040266891439153525,0.09290419400328241,0.06905044948695066,0.010671858026376197
0.2220517,0.08957536125506861,0.05490381237437547,0.5264751086763332,0.01709337010599747,0.04005908039212229,0.09288564083557245,0.06787048491923217,0.010662392909720271
0.2225172,0.08923635563374711,0.05510739283007606,0.5245146357324917,0.017085121057998694,0.039853321853255574,0.09286188005623008,0.06669651207642487,0.010653414647457421
0.2229828,0.08889813583301086,0.05531000010693034,0.522516546795528,0.017077669001282637,0.039649618038131544,0.09283290467253878,0.06552869142435583,0.010644899401555656
0.2234483,0.08856065627816273,0.05551158666119349,0.5204813303311815,0.017070990184758522,0.039447970908241835,0.09279870901122124,0.06436718067942873,0.010636823663983577
0.2239138,0.08822387290209202,0.05571210533604055,0.5184094805920544,0.01706506084741359,0.03924838216926663,0.09275928872279351,0.06321213478860112,0.01062916425896828
0.2243793,0.08788774314902692,0.0559115093697629,0.5163014974389151,0.0170598572251172,0.0390508532694551,0.09271464078542713,0.062063705910456304,0.01062189834509835
0.2248448,0.08755222597718607,0.05610975240407496,0.5141578861620781,0.017055355557449615,0.03885538539811412,0.09266476350829515,0.06092204339736438,0.010615003417272922
0.2253103,0.08721728186034584,0.05630678849252246,0.5119791573029342,0.01705153209455244,0.03866197948420776,0.0926096565343785,0.05978729377872607,0.010608457308497897
0.2257759,0.08688287278833987,0.05650257210898386,0.5097658264757036,0.017048363103997557,0.03847063619507056,0.09254932084270917,0.05865960074529291,0.010602238191530512
0.2262414,0.0865489622665078,0.056697058156256225,0.5075184141894851,0.01704582487767132,0.03828135593523685,0.09248375875002857,0.05753910513455681,0.010596324580373592
0.2267069,0.08621551531410919,0.05689020197471703,0.5052374456706701,0.017043893738670653,0.03809413884538889,0.09241297391184078,0.0564259449172011,0.010590695331620888
0.2271724,0.08588249846171798,0.05708195935105333,0.5029234506857883,0.017042546048207687,0.03790898480142604,0.09233697132284303,0.05532025518460526,0.01058532964565494
0.2276379,0.08554987974761309,0.05727228652704996,0.5005769633648528,0.017041758212519298,0.037725893413657334,0.09225575731671766,0.054222168137394874,0.010580207067699042
0.2281034,0.0852176287131802,0.057461140208428164,0.4981985220252665,0.017041506689778163,0.037544864026119486,0.09216933956527194,0.05313181307502792,0.010575307488724987
0.228569,0.08488571639734017,0.057648477573725945,0.4957886689963505,0.017041767997001654,0.037365895716022376,0.09207772707691349,0.052049316386408376,0.010570611146218423
0.2290345,0.08455411533002022,0.05783425628321141,0.4933479504445526,0.01704251871695509,0.037188987293323726,0.09198093019444971,0.05097480154151768,0.01056609862480376
0.2295,0.08422279952468575,0.058018434487820174,0.49087691619939017,0.017043735505045787,0.03701413730043468,0.09187896059220184,0.04990838908405459,0.010561750856730702
0.2299655,0.08389174446995244,0.0582009708381079,0.48837611958017974,0.017045395096204504,0.03684134401205774,0.09177183127242576,0.04885019662507349,0.010557549122224572
0.230431,0.08356092712029946,0.05838182449320959,0.48584611722360127,0.017047474311750733,0.036670605435158384,0.09165955656103542,0.04780033883761115,0.010553475049702674
0.2308966,0.08323032588590652,0.05856095512979684,0.483287468912142,0.01704995006623833,0.036501919309071235,0.09154215210262723,0.04675892745229158,0.010549510615859051
0.2313621,0.082899920621638,0.05873832295102495,0.480700737403461,0.017052799374277866,0.03633528310574182,0.0914196348548077,0.04572607125389857,0.010545638145620007
0.2318276,0.0825696926151981,0.05891388869546183,0.4780864882607125,0.017055999357332173,0.0361706940301044,0.09129202308182943,0.044701876078905155,0.010541840311972792
0.2322931,0.08223962457448145,0.059087613645991084,0.47544528968386385,0.017059527250481328,0.036008149020596236,0.09115933634754379,0.04368644481394906,0.010538100135669843
0.2327586,0.08190970061414349,0.059259459638681566,0.4727777123420374,0.017063360409153606,0.03584764474980833,0.09102159550768092,0.042679877395242906,0.010534400984811013
0.2332241,0.08157990624141534,0.05942938907161564,0.47008432920690485,0.017067476315818942,0.03568917762527237,0.09087882270146966,0.04168227080890778,0.010530726574306247
0.2336897,0.0812502283411878,0.059597364913668543,0.4673657153871591,0.017071852586641553,0.035532743790383396,0.09073104134261116,0.040693719092218174,0.010527060965221262
0.2341552,0.08092065516038921,0.0597633507132305,0.4646224479640862,0.017076466978088463,0.035378339125457396,0.09057827610962035,0.039714313335746355,0.010523388564008793
0.2346207,0.08059117629168211,0.05992731060686315,0.4618551058282566,0.017081297393490697,0.03522595924892263,0.09042055293554993,0.03874414168639375,0.010519694121628032
0.2350862,0.08026178265650351,0.06008920932788133,0.4590642695173537,0.01708632188955379,0.03507559951864333,0.09025789899711137,0.03778328935129646,0.010515962732554795
0.2355517,0.07993246648747383,0.060249012214851135,0.45625052105515373,0.01709151868281424,0.03492725503337407,0.09009034270320826,0.036831838602591954,0.01051217983368498
0.2360172,0.07960322131019965,0.06040668521999453,0.4534144437916744,0.017096866156038407,0.034780920634342974,0.08991791368289731,0.035889868783033574,0.010508331203133846
0.2364828,0.07927404192449508,0.06056219491749074,0.45055662224450255,0.01710234286456029,0.03463659090696154,0.0897406427727927,0.03495745631243947,0.010504402958933566
0.2369483,0.07894492438504708,0.060715508511664275,0.44767764194131565,0.017107927542554486,0.03449426018265905,0.08955856200392959,0.03403467469496222,0.010500381557631602
0.2374138,0.07861586598154945,0.06086659384504907,0.44477808926360957,0.017113599109240443,0.034353922540838966,0.08937170458810245,0.03312159452716541,0.010496253792792329
0.2378793,0.07828686521833077,0.06101541940631787,0.4418585512916446,0.01711933667501416,0.03421557181095503,0.08918010490369346,0.03221828350689336,0.010492006793404302
0.2383448,0.07795792179350071,0.06116195433806555,0.4389196156506234,0.017125119547503283,0.03407920157470458,0.0889837984810058,0.03132480644292008,0.010487628022195548
0.2388103,0.07762903657763934,0.0613061684444348,0.43596187035811385,0.01713092723754146,0.03394480516833656,0.08878282198711636,0.030441225265363577,0.01048310527385918
0.2392759,0.07730021159205384,0.061448032198572214,0.4329859036727307,0.017136739465057765,0.03381237568507188,0.08857721321026156,0.029567599036851664,0.010478426673191614
0.2397414,0.07697144998662672,0.0615875167499024,0.42999230394409155,0.017142536164876834,0.03368190597763355,0.08836701104376891,0.028703983964425497,0.010473580673145647
0.2402069,0.07664275601727909,0.061724593931207584,0.42698165946406214,0.017148297492425347,0.03355338866088417,0.08815225546954732,0.027850433412167128,0.010468556052800579
0.2406724,0.07631413502307259,0.06185923626549979,0.423954558319309,0.017154003829340393,0.0334268161145683,0.08793298754114855,0.027006997914537537,0.010463341915251551
0.2411379,0.0759855934029729,0.06199141697267265,0.4209115882451779,0.017159635788975273,0.033302180486157316,0.08770924936641297,0.026173725190411636,0.010457927685420181
0.2416034,0.07565713859229765,0.06212110997592014,0.4178533364809182,0.017165174221798276,0.03317947369379434,0.08748108408971246,0.025350660157797,0.010452303107788613
0.242069,0.07532877903887102,0.062248289907909496,0.41478038962627556,0.017170600220680014,0.03305868742933676,0.08724853587380453,0.024537844949223106,0.010446458244059022
0.2425345,0.07500052417890661,0.0623729321166968,0.41169333349947435,0.017175895126064916,0.03293981316149398,0.08701164988131177,0.023735318927788025,0.010440383470740743
0.243,0.07467238441264046,0.06249501267137374,0.4085927529966145,0.017181040531022585,0.03282284213905812,0.086770472255841,0.022943118703849703,0.01043406947666714
0.2434655,0.07434437107973466,0.06261450836743544,0.40547923195250357,0.017186018286174644,0.03270776539422517,0.08652505010275621,0.022161278152348824,0.010427507260444478
0.243931,0.07401649643447226,0.06273139673185923,0.4023533530029459,0.01719081050449273,0.03259457374600451,0.08627543146961907,0.021389828430750626,0.010420688127835056
0.2443966,0.07368877362076341,0.0628456560278849,0.3992156974485084,0.017195399565963245,0.032483257803714166,0.08602166532631086,0.020628797997592818,0.010413603689076971
0.2448621,0.07336121664698202,0.0629572652594875,0.3960668451197789,0.017199768122114337,0.032373807970559734,0.08576380154484893,0.019878212631626837,0.01040624585614283
0.2453276,0.07303384036065215,0.06306620417553381,0.39290737424413097,0.0172038991004005,0.03226621444729445,0.08550189087891095,0.01913809545153958,0.010398606839939763
0.2457931,0.07270666042300243,0.06317245327361402,0.38973786131400623,0.017207775708440048,0.03216046723595818,0.08523598494308027,0.018408466936242842,0.010390679147453088
0.2462586,0.07237969328340621,0.06327599380354053,0.38655888095672325,0.017211381438100734,0.032056556143693016,0.08496613619182511,0.017689344945717465,0.010382455578835902
0.2467241,0.07205295615372491,0.06337680777050583,0.3833710058058197,0.01721470006942874,0.031954470786633264,0.08469239789822482,0.016980744742399224,0.010373929224446849
0.2471897,0.07172646698257147,0.06347487793789178,0.380174806373933,0.017217715674416538,0.03185420059386761,0.0844148241324574,0.016282679013093257,0.010365093461838235
0.2476552,0.07140024442950993,0.06357018782972236,0.3769708509272252,0.01722041262060544,0.03175573481147121,0.08413346974006293,0.015595157891403822,0.010355941952696632
0.2481207,0.07107430783920703,0.06366272173275236,0.3737597053613546,0.01722277557451928,0.03165906250660569,0.08384839031999844,0.014918188980665988,0.010346468639738069
0.2485862,0.07074867721555071,0.0637524646981842,0.3705419330789983,0.017224789504926244,0.031564172571684763,0.0835596422025007,0.01425177737736584,0.01033666774355995
0.2490517,0.07042337319575051,0.063839402543005,0.3673180948689278,0.017226439685926746,0.03147105372860345,0.083267282426773,0.013595925695035682,0.010326533759451816
0.2495172,0.0700984170244339,0.06392352185093571,0.36408874878664116,0.01722771169986584,0.031379694533028524,0.08297136871851227,0.012950634088610708,0.01031606145416709
0.2499828,0.0697738305277524,0.0640048099729837,0.36085445003655403,0.01722859144006923,0.031290083378748064,0.08267195946729239,0.012315900279233594,0.010305245862658057
0.2504483,0.06944963608751069,0.06408325502759053,0.3576157508557532,0.01722906511340223,0.031202208502077562,0.08236911370381923,0.011691719579493458,0.010294082284776261
0.2509138,0.06912585661533141,0.06415884590036662,0.35437320039931763,0.017229119242651237,0.031116057986320302,0.08206289107707265,0.01107808491908567,0.010282566281940587
0.2513793,0.06880251552686864,0.06423157224340632,0.35112734462721135,0.017228740668727503,0.031031619766279234,0.08175335183135037,0.010474986870879102,0.010270693673775219
0.2518448,0.06847963671608148,0.06430142447417934,0.34787872619275456,0.0172279165526933,0.030948881632817567,0.08144055678322833,0.009882413677377454,0.010258460534719691
0.2523103,0.0681572445295799,0.06436839377399849,0.34462788433268005,0.01722663437761087,0.030867831237465,0.0811245672984524,0.009300351277561408,0.010245863190613165
0.2527759,0.06783536374105414,0.0644324720860674,0.3413753547587846,0.01722488195021492,0.0307884560970663,0.08080544526877541,0.00872878333409852,0.01023289821525504
0.2532414,0.06751401952579889,0.06449365211311554,0.33812166955118494,0.017222647402409853,0.030710743598468704,0.08048325308875383,0.008167691260907847,0.010219562426943957
0.2537069,0.06719323743534275,0.06455192731463057,0.334867357053189,0.0172199191925932,0.03063468100324441,0.08015805363251785,0.0076170542510664956,0.010205852884997223
0.2541724,0.06687304337219395,0.06460729190369958,0.33161294176779677,0.017216686106807152,0.030560255452444268,0.0798299102305281,0.0070768493050453575,0.010191766886252633
0.2546379,0.06655346356471215,0.06465974084347165,0.3283589442558449,0.01721293725972035,0.030487453971378684,0.07949888664633191,0.0065470512592615,0.010177301961554731
0.2551034,0.0662345245421165,0.06470926984325365,0.3251058810358109,0.01720866209544236,0.030416263474421463,0.0791650470533312,0.0060276328149348165,0.010162455872227435
0.255569,0.06591625310963914,0.06475587535425156,0.321854264485296,0.017203850388173517,0.03034667076983235,0.07882845601157372,0.005518564567236686,0.01014722660653505
0.2560345,0.06559867632383344,0.06479955456496869,0.31860460274420577,0.017198492242693028,0.030278662564593693,0.07848917844457869,0.005019815034718519,0.010131612376133583
0.2565,0.0652818214680458,0.06484030539627234,0.3153573996196491,0.017192578094688386,0.030212225469256636,0.07814727961620717,0.004531350689008186,0.010115611612514303
0.2569655,0.06496571602805987,0.0648781264961402,0.3121131544925788,0.017186098710929427,0.03014734600279188,0.07780282510758703,0.004053135984762433,0.010099222963441396
0.257431,0.0646503876679214,0.06491301723409777,0.3088723622261968,0.01717904518929046,0.030084010597440036,0.07745588079410202,0.0035851333898635047,0.010082445289385481
0.2578966,0.06433586420595241,0.06494497769535773,0.3056355130761486,0.017171408958624113,0.030022205603556316,0.07710651282245391,0.0031273034158483207,0.010065277659954753
0.2583621,0.06402217359096317,0.06497400867467298,0.3024030926025331,0.01716318177849069,0.029961917294444213,0.076754787587806,0.0026796046485586538,0.010047719350325333
0.2588276,0.06370934387867026,0.06500011166991454,0.2991755815837523,0.017154355738746876,0.029903131871173,0.0764007717110161,0.002241993779000888,0.010029769837672465
0.2592931,0.06339740320832944,0.06502328887538578,0.29595345593222777,0.01714492325899778,0.02984583546737404,0.07604453201596656,0.0018144256344040444,0.01001142879760402
0.2597586,0.06308637977959174,0.06504354317488473,0.29273718661201,0.01713487708791647,0.029790014154011318,0.0756861355069987,0.0013968532094648992,0.009992696100597838
0.2602241,0.06277630182959155,0.06506087813452618,0.2895272395583065,0.01712421030243506,0.029735653944122083,0.07532564934645855,0.0009892276977691336,0.009973571808444302
0.2606897,0.062467197610275554,0.06507529799533542,0.2863240755989538,0.01711291630681158,0.02968274079752389,0.07496314083236105,0.0005914985233775832,0.009954056170695561
0.2611552,0.06215909536598118,0.06508680766562579,0.2831281503778578,0.017100988831576795,0.029631260625484702,0.07459867737617899,0.0002036133725667646,0.009934149621122764
0.2616207,0.06185202331127377,0.06509541271317246,0.27993991428042714,0.01708842193236533,0.029581199295353255,0.07423232648076344,-0.00017448177428705048,0.009913852774182679
0.2620862,0.061546009609051204,0.06510111935719474,0.27675981236102126,0.01707520998863522,0.02953254263514729,0.073864155718402,-0.0005428426106908726,0.00989316642149506
0.2625517,0.06124108234892529,0.06510393446016007,0.27358828427243503,0.017061347702280173,0.029485276438097778,0.07349423270902115,-0.000901526471895754,0.009872091528332136
0.2630172,0.060937269525889105,0.06510386551942256,0.2704257641974386,0.017046830096138735,0.029439386467147506,0.07312262509853891,-0.0012505923026458281,0.00985062923012157
0.2634828,0.060634599019279506,0.06510092065870911,0.26727268078239047,0.017031652512404488,0.02939485845940268,0.07274940053737389,-0.001590100624826135,0.009828780828964245
0.2639483,0.06033309857204405,0.06509510861946592,0.26412945707293983,0.017015810610941373,0.02935167813053628,0.07237462665911634,-0.0019201135050196663,0.00980654779016815
0.2644138,0.06003279577032174,0.06508643875207847,0.26099651045183014,0.01699930036750814,0.02930983117914208,0.07199837105936678,-0.002240694521983994,0.009783931738799692
0.2648793,0.05973371802334674,0.06507492100697716,0.2578742525788161,0.016982118071895827,0.029269303291038468,0.0716207012747473,-0.0025519087340577723,0.009760934456253648
0.2653448,0.05943589254368434,0.0650605659256416,0.2547630893327029,0.016964260325982066,0.02923008014352131,0.0712416847620907,-0.0028538226465073227,0.009737557876842976
0.2658103,0.05913934632780799,0.06504338463151561,0.25166342075551573,0.016945724041705877,0.02919214740956525,0.07086138887781193,-0.003146504178823442,0.00971380408440963
0.2662759,0.058844106137026286,0.06502338882084542,0.24857564099880403,0.016926506438966416,0.029155490761972692,0.07047988085746686,-0.0034300226319785173,0.009689675308957507
0.2667414,0.05855019847876838,0.06500059075345353,0.2455001382720856,0.016906605043449097,0.029120095877469873,0.0700972277955027,-0.0037044486556539738,0.009665173923308595
0.2672069,0.058257649588235975,0.06497500324346071,0.2424372947934331,0.016886017684382304,0.029085948440749233,0.06971349662520501,-0.003969854215448009,0.009640302439783342
0.2676724,0.057966485410429765,0.0649466396499685,0.23938748674220314,0.016864742492227757,0.029053034148457255,0.06932875409884619,-0.004226312560073507,0.009615063506906272
0.2681379,0.05767673158255743,0.06491551386771431,0.23635108421390913,0.01684277789630758,0.029021338713126846,0.06894306676804104,-0.004473898188555931,0.00958945990613784
0.2686034,0.05738841341683035,0.06488164031771142,0.23332845117723566,0.016820122622370984,0.028990847867053218,0.0685565009643155,-0.004712686817440909,0.009563494548633414
0.269069,0.057101555883655127,0.06484503393788553,0.23031994543319284,0.01679677569010336,0.02896154736611209,0.06816912277989537,-0.004942755348021111,0.009537170472030286
0.2695345,0.05681618359522605,0.06480571017371996,0.22732591857640666,0.016772736410580556,0.028933422993518896,0.06778099804872317,-0.005164181833591912,0.009510490837263514
0.27,0.056532320789524,0.06476368496892056,0.22434671595854144,0.016748004383670925,0.028906460563527532,0.06739219232771117,-0.005377045446745206,0.009483458925411333
0.2704655,0.05624999131472693,0.06471897475611187,0.2213826766538485,0.01672257949538764,0.02888064592506699,0.0670027708782393,-0.005581426446710629,0.009456078134570847
0.270931,0.055969218614036816,0.06467159644757535,0.21843413342683496,0.016696461915193604,0.02885596496531402,0.06661279864790692,-0.005777406146753296,0.009428351976764695
0.2713966,0.05569002571092752,0.0646215674260403,0.215501412702046,0.016669652093261243,0.028832403613199716,0.06622234025254711,-0.005965066881637066,0.009400284074879372
0.2718621,0.05541243519481797,0.06456890553553765,0.21258483453595348,0.016642150757689197,0.02880994784284783,0.06583145995851282,-0.006144491975162211,0.00937187815963595
0.2723276,0.05513646920717453,0.06451362907232612,0.20968471259094276,0.01661395891167801,0.028788583676942238,0.06544022166524353,-0.006315765707786224,0.009343138066593948
0.2727931,0.05486214942804648,0.0644557567759,0.206801354111392,0.01658507783066667,0.02876829719002077,0.06504868888812096,-0.006478973284336439,0.009314067733189105
0.2732586,0.05458949706303812,0.064395307820087,0.20393505990183575,0.016555509059431817,0.028749074511692455,0.0646569247416219,-0.006634200801822981,0.00928467119580584
0.2737241,0.054318532830720724,0.06433230180424403,0.201086124307207,0.016525254409151344,0.028730901829774915,0.06426499192277602,-0.006781535217360479,0.009254952586885126
0.2741897,0.054049276950487536,0.06426675874455856,0.19825483519514975,0.016494315954434055,0.02871376539334855,0.06387295269493577,-0.006921064316206847,0.009224916132068503
0.2746552,0.05378174913085449,0.06419869906546252,0.19544147394039493,0.016462696030316887,0.028697651515723906,0.06348086887186516,-0.007052876679927361,0.009194566147378853
0.2751207,0.053515968558209295,0.06412814359116524,0.19264631541119068,0.01643039722923118,0.02868254657731857,0.06308880180215393,-0.007177061654692122,0.009163907036438521
0.2755862,0.053251953886010985,0.06405511353731146,0.18986962795777762,0.016397422397939388,0.028668437028439728,0.06269681235396335,-0.007293709319714968,0.009132943287725332
0.2760517,0.05298972322444171,0.06397963050277025,0.18711167340289833,0.01636377463444362,0.028655309391968423,0.06230496090010918,-0.00740291045584174,0.009101679471866936
0.2765172,0.0527292941305123,0.06390171646156019,0.1843727070343288,0.01632945728486737,0.02864315026594151,0.06191330730348689,-0.007504756514295701,0.0090701202389739
0.2769828,0.05247068359862265,0.0638213937549159,0.18165297759941829,0.016294473940311787,0.028631946326027214,0.061521910902844215,-0.007599339585587793,0.009038270316011886
0.2774483,0.052213908051577516,0.06373868508350114,0.1789527273016233,0.01625882843368788,0.028621684327890345,0.06113083049890537,-0.007686752368599236,0.009006134504213193
0.2779138,0.05195898333205796,0.06365361349977289,0.1762721917990184,0.016222524836526,0.02861235110944359,0.060740124340850785,-0.0077670881398437825,0.008973717676527916
0.2783793,0.05170592469454826,0.06356620240050079,0.17361160020476707,0.01618556745576391,0.02860393359298156,0.06034985011315578,-0.007840440722916744,0.008941024775114924
0.2788448,0.051454746797717776,0.06347647551944564,0.17097117508953336,0.016147960830514844,0.028596418787194763,0.05996006492279102,-0.007906904458137711,0.008908060808872822
0.2793103,0.0512054636972569,0.06338445692020038,0.16835113248581454,0.016109709728816844,0.028589793789060843,0.05957082528678711,-0.00796657417239365,0.00887483085101106
0.2797759,0.05095808883916601,0.06329017098919654,0.16575168189417464,0.016070819144364593,0.028584045785610763,0.05918218712016537,-0.00801954514918891,0.008841340036661347
0.2802414,0.05071263505349602,0.06319364242887884,0.16317302629135697,0.01603129429322502,0.028579162055567764,0.058794205724236305,-0.008065913098908455,0.008807593560529495
0.2807069,0.05046911454853895,0.06309489625105015,0.16061536214025493,0.0159911406105378,0.02857512997085745,0.0584069357752673,-0.00810577412930052,0.008773596674587849
0.2811724,0.05022753890546678,0.06299395777038876,0.15807887940171939,0.015950363747201952,0.02857193699798831,0.058020431313520804,-0.008139224716184728,0.008739354685808446
0.2816379,0.049987919073416355,0.06289085259813981,0.1555637615481811,0.015908969566549594,0.02856957069930315,0.057634745732664715,-0.008166361674391588,0.008704872953937093
0.2821034,0.04975026536501824,0.06278560663598205,0.1530701855790671,0.015866964141007828,0.02856801873410339,0.05724993176955697,-0.008187282128939133,0.008670156889308556
0.282569,0.04951458745236709,0.06267824607007086,0.1505983220379895,0.015824353748749777,0.028567268859649032,0.05686604149440663,-0.008202083486452351,0.008635211950703091
0.2830345,0.04928089436343059,0.06256879736525851,0.14814833503168615,0.0157811448703356,0.028567308932038,0.05648312630131417,-0.008210863406830877,0.00860004364324458
0.2835,0.049049194478893936,0.0624572872594919,0.14572038225069178,0.015737344185344414,0.02856812690696884,0.05610123689919383,-0.008213719775170155,0.008564657516340538
0.2839655,0.04881949552943683,0.06234374275838757,0.14331461499171919,0.015692958568997994,0.028569710840391182,0.05572042330308092,-0.008210750673941168,0.008529059161664248
0.284431,0.04859180459343923,0.06222819112998398,0.1409311781817287,0.01564799508877708,0.02857204888904857,0.05534073482582663,-0.008202054355433462,0.008493254211179288
0.2848966,0.04836612809511228,0.062110659899670025,0.13857021040366557,0.015602461001031317,0.028575129310918497,0.05496222007018285,-0.008187729214466078,0.008457248335206627
0.2853621,0.048142471803050375,0.06199117684528875,0.13623184392384338,0.015556363747583854,0.028578940465554762,0.05458492692127876,-0.008167873761370644,0.008421047240534425
0.2858276,0.04792084082920019,0.06186976999241464,0.133916204720953,0.015509710952331786,0.028583470814337306,0.05420890253949072,-0.00814258659525075,0.008384656668570634
0.2862931,0.047701239628242145,0.06174646760980235,0.13162341251667506,0.015462510417843642,0.028588708920634916,0.05383419335370663,-0.008111966377521493,0.008348082393538403
0.2867586,0.047483671997379275,0.06162129820500431,0.1293535808078735,0.015414770121955197,0.028594643449886194,0.05346084505498552,-0.008076111805732956,0.00831133022071427
0.2872241,0.04726814107652836,0.06149429052015423,0.1271068169003486,0.015366498214364945,0.028601263169604294,0.05308890259061271,-0.008035121587681176,0.008274405984709056
0.2876897,0.047054649348907504,0.061365473527912814,0.1248832219441257,0.01531770301323055,0.02860855694931076,0.05271841015855053,-0.007989094415810123,0.00823731554779133
0.2881552,0.04684319864201419,0.06123487642757166,0.12268289097025614,0.015268393001767565,0.02861651376040379,0.05234941120228424,-0.00793812894190807,0.008200064798253295
0.2886207,0.04663379012898746,0.06110252864131087,0.12050591292910615,0.015218576824851669,0.028625122675966203,0.051981948406062455,-0.00788232375210165,0.008162659648818855
0.2890862,0.046426424330347646,0.0609684598106055,0.11835237073010794,0.01516826328562564,0.02863437287051806,0.05161606369053074,-0.00782177734215083,0.008125106035093616
0.2895517,0.04622110111610645,0.060832699792775814,0.11622234128294688,0.015117461342112207,0.02864425361971888,0.051251798208757124,-0.00775658809304795,0.008087409914056515
0.2900172,0.04601781970824049,0.06069527865767572,0.11411589554015711,0.015066180103833756,0.02865475430002414,0.05088919234264737,-0.007686854246923894,0.00804957726259278
0.2904828,0.04581657868352038,0.06055622668451402,0.11203309854109748,0.01501442882843989,0.02866586438830072,0.050528285699748036,-0.007612673883264407,0.008011614076067871
0.2909483,0.045617375976687864,0.060415574358802925,0.10997400945727827,0.014962216918343626,0.028677573461405776,0.05016911711043482,-0.007534144895439428,0.007973526366942131
0.2914138,0.04542020888397269,0.060273352369428296,0.10793868163900829,0.014909553917366999,0.028689871195733217,0.04981172462548344,-0.007451364967548253,0.007935320163425824
0.2918793,0.045225074066941276,0.06012959160583651,0.10592716266333116,0.014856449507396728,0.028702747366731982,0.049456145514020534,-0.00736443155158324,0.007897001508174321
0.2923448,0.045031967556669036,0.059984323155332635,0.10393949438321835,0.014802913505050551,0.028716191848400078,0.049102416261851946,-0.007273441844914604,0.007858576457023135
0.2928103,0.044840884758228484,0.05983757830048531,0.10197571297798584,0.014748955858354755,0.028730194612758178,0.04875057257016601,-0.007178492768098737,0.007820051077762525
0.2932759,0.04465182045548539,0.059689388516633614,0.10003584900490048,0.014694586643433318,0.02874474572930657,0.048400649354609526,-0.007079680943012352,0.007781431448951359
0.2937414,0.04446476881619565,0.05953978546949087,0.09811992745194052,0.014639816061209015,0.02875983536446913,0.04805268074473401,-0.006977102671314545,0.007742723658769922
0.2942069,0.04427972339739615,0.05938880101284062,0.096227967791675,0.014584654434116705,0.028775453781027957,0.047706700083809644,-0.00687085391323875,0.007703933803911263
0.2946724,0.044096677151082925,0.05923646718631909,0.09435998403622517,0.014529112202828905,0.028791591337552092,0.047362739929003736,-0.006761030266716359,0.007665067988510639
0.2951379,0.04391562243017047,0.059082816213278315,0.09251598479327143,0.014473199922993698,0.028808238487823764,0.04702083205192047,-0.0066477269468336675,0.007626132323112593
0.2956034,0.043736550994726106,0.058927880498723675,0.09069597332306849,0.01441692826198483,0.028825385780265257,0.04668100743949826,-0.006531038765623603,0.007587132923675126
0.296069,0.04355945401847346,0.05877169262731926,0.08889994759643177,0.014360307995663823,0.028843023857369417,0.04634329629526069,-0.006411060112193625,0.007548075910610409
0.2965345,0.04338432209555919,0.058614285361453904,0.08712790035365785,0.014303350005153783,0.028861143455136608,0.04600772804091707,-0.006287884933191038,0.007508967407861404
0.297,0.04321114524757735,0.058455691639360804,0.0853798191643422,0.014246065273624603,0.028879735402520878,0.04567433131830811,-0.006161606713606893,0.007469813542013741
0.2974655,0.043039912930846365,0.05829594457328295,0.08365568648805798,0.014188464883089131,0.028898790620887956,0.04534313399169242,-0.006032318457919541,0.00743062044144215
0.297931,0.042870614043933636,0.058135077447676445,0.08195547973585941,0.014130560011209934,0.02891830012348751,0.04501416315036975,-0.005900112671578869,0.007391394235490718
0.2983966,0.04270323693542308,0.0579731237174432,0.08027917133257388,0.01407236192811621,0.028938255014941967,0.04468744511163655,-0.00576508134283215,0.007352141053686239
0.2988621,0.04253776941192117,0.05781011700618444,0.07862672877984694,0.014013881993230455,0.02895864649075401,0.044363005424070207,-0.005627315924892376,0.00731286702498393
0.2993276,0.04237419874629687,0.05764609110446597,0.07699811471990452,0.013955131652104361,0.028979465836834726,0.044040868871137555,-0.005486907318449872,0.007273578277044717
0.2997931,0.04221251168615073,0.05748107996808584,0.07539328699999655,0.013896122433263486,0.02900070442905417,0.04372105947512402,-0.005343945854527884,0.00723428093554335
0.3002586,0.04205269446250789,0.05731511771633512,0.07381219873748608,0.013836865945060188,0.029022353732815896,0.04340360050137914,-0.005198521277682772,0.007194981123506562
0.3007241,0.041894732798729975,0.057148238630241835,0.07225479838554777,0.013777373872534247,0.029044405302656937,0.04308851446287415,-0.005050722729549264,0.007155684960680499
0.3011897,0.041738611919640074,0.056980477150788175,0.07072102979943912,0.013717657974280584,0.029066850781874463,0.042775823125066934,-0.004900638732731199,0.0071163985629266405
0.3016552,0.04158431656085524,0.05681186787709063,0.06921083230330795,0.01365773007932346,0.02908968190218013,0.04246554751106928,-0.004748357175038052,0.007077128041645448
0.3021207,0.041431830978320865,0.05664244556453295,0.06772414075749995,0.013597602083996463,0.029112890483383,0.042157707907111375,-0.00459396529406749,0.007037879503227025
0.3025862,0.04128113895804076,0.05647224512284173,0.06626088562633053,0.013537285948827615,0.029136468433101727,0.04185232386829797,-0.004437549662134121,0.00699865904852802
0.3030517,0.04113222382599705,0.05630130161409478,0.06482099304628555,0.0134767936954289,0.029160407746506425,0.041549414224650714,-0.004279196171544554,0.006959472772374022
0.3035172,0.04098506845825349,0.05612965025065254,0.06340438489461662,0.013416137403389473,0.029184700506090466,0.0412489970874308,-0.004118990020218836,0.006920326763086676
0.3039828,0.04083965529123561,0.05595732639300288,0.06201097885829725,0.013355329207171822,0.02920933888147242,0.04095108985573608,-0.003957015697658248,0.006881227102034698
0.3044483,0.04069596633218097,0.05578436554750986,0.060640688503307075,0.013294381293010157,0.029234315129228222,0.04065570922336642,-0.0037933569712593966,0.006842179863207913
0.3049138,0.04055398316975235,0.055610803364056736,0.05929342334421262,0.01323330589581022,0.029259621592753617,0.040362871185951034,-0.003628096872974454,0.006803191112813425
0.3053793,0.04041368698480657,0.05543667563357365,0.05796908891401371,0.01317211529604977,0.02928525070215718,0.040072591048331274,-0.0034613176863173482,0.006764266908892961
0.3058448,0.040275058561311694,0.05526201828543974,0.05666758683422633,0.013110821816678947,0.02931119497418412,0.03978488343219187,-0.0032931009337156055,0.006725413300960389
0.3063103,0.04013807829740521,0.05508686738474957,0.055388814885173665,0.013049437820019686,0.029337447012171343,0.03949976228393345,-0.0031235273642074763,0.006686636329658416
0.3067759,0.0400027262165858,0.05491125912943357,0.0541326670764582,0.012987975704663344,0.029363999506034324,0.039217240882778705,-0.002952676941483912,0.006647942026433338
0.3072414,0.03986898197903166,0.05473522984722236,0.05289903371758965,0.012926447902365634,0.029390845232286713,0.03893733184910444,-0.002780628832274851,0.006609336413226738
0.3077069,0.03973682489303839,0.05455881599244532,0.05168780148874418,0.012864866874937998,0.029417977054093703,0.038660047152991116,-0.002607461395079209,0.006570825502182923
0.3081724,0.039606233926569985,0.05438205414265446,0.05049885351163206,0.012803245111134565,0.029445387921360405,0.03838539812298149,-0.0024332521692378845,0.006532415295370882
0.3086379,0.039477187718916756,0.05420498099506555,0.049332069420451735,0.012741595123533959,0.029473070870856547,0.03811339545503942,-0.0022580778643489924,0.006494111784519501
0.3091034,0.03934966459245453,0.05402763336280986,0.048187325432909704,0.012679929445415367,0.02950101902637874,0.03784404922169987,-0.002082014350024471,0.0064559209507647425
0.309569,0.039223642564499714,0.05385004817099127,0.047064494421286435,0.012618260627628464,0.029529225598951457,0.037577368881400515,-0.0019051366459871034,0.006417848764407517
0.3100345,0.03909909935925487,0.05367226245254512,0.04596344598352978,0.012556601235457054,0.029557683887067608,0.03731336328798531,-0.0017275189125069241,0.00637990118468096
0.3105,0.03897601241983932,0.053494313343896385,0.04488404651435799,0.012494963845476393,0.02958638727696933,0.03705204070037004,-0.001549234441175899,0.006342084159525855
0.3109655,0.0388543589203993,0.05331623808041612,0.043826159276355525,0.012433361042404367,0.02961532924296947,0.036793408792359525,-0.0013703556460196832,0.006304403625372892
0.311431,0.0387341157782917,0.05313807399167577,0.042789644471045364,0.01237180541594681,0.02964450334781387,0.0365374746626061,-0.0011909540549451775,0.006266865506930511
0.3118966,0.038615259666335694,0.052959858496499174,0.04177435930992228,0.012310309557637272,0.02967390324308447,0.03628424484469869,-0.0010111003015225257,0.006229475716977073
0.3123621,0.03849776702512597,0.05278162909781246,0.04078015808543215,0.012248886057671588,0.02970352266964281,0.03603372531737169,-0.000830864117100115,0.0061922401561561
0.3128276,0.03838161407540168,0.052603423377292194,0.039806892241882635,0.01218754750173754,0.029733355458113387,0.035785921514822606,-0.0006503143232510614,0.006155164712773395
0.3132931,0.03826677683046475,0.05242527898981207,0.03885441044627091,0.012126306467839857,0.029763395529406107,0.0355408383371274,-0.00046951882454960653,0.006118255262594831
0.3137586,0.03815323110864161,0.05224723365768867,0.037922558659014366,0.01206517552312076,0.029793636895276816,0.03529848016074213,-0.00028854460167580706,0.006081517668643634
0.3142241,0.03804095254578228,0.052069325164726586,0.03701118020457015,0.012004167220676177,0.029824073658924772,0.03505885084907945,-0.0001074577048468575,0.006044957780995982
0.3146897,0.03792991660779101,0.05189159135006356,0.036120115841929284,0.011943294096367775,0.02985470001562581,0.03482195376314826,7.36767524266356e-05,0.006008581436573722
0.3151552,0.03782009860318335,0.051714070101815994,0.035249203834971085,0.011882568665630883,0.029885510253399715,0.03458779177224483,0.0002547945992611354,0.005972394458933034
0.3156207,0.03771147369566432,0.05153679935052554,0.03439828002266315,0.011822003420278534,0.029916498753710268,0.03435636726468373,0.0004358326129991386,0.005936402658047825
0.3160862,0.037604016916722965,0.051359817062407644,0.03356717788909209,0.01176161082530191,0.02994765999219645,0.034127682158557326,0.0006167285244883709,0.005900611830086634
0.3165517,0.03749770317823823,0.05118316123240299,0.032755728633309895,0.011701403315667753,0.029978988539433166,0.0339017379125123,0.0007974210230430002,0.0058650277571818095
0.3170172,0.03739250728509176,0.051006869877032686,0.031963761238980794,0.011641393293113417,0.030010479061719938,0.033678535536532356,0.0009778497610886993,0.005829656207189736
0.3174828,0.03728840394778302,0.05083098102705837,0.03119110254381311,0.011581593122940508,0.03004212632189615,0.03345807560271591,0.0011579553584934565,0.005794502933440862
0.3179483,0.037185367795042217,0.05065553271994871,0.03043757730876102,0.011522015130808206,0.03007392518018142,0.033240358256038084,0.0013376794065861008,0.005759573674478297
0.3184138,0.03708337338643643,0.05048056299215446,0.02970300828698098,0.011462671599527558,0.030105870595039937,0.03302538322508644,0.0015169644718645808,0.005724874153783718
0.3188793,0.03698239522496422,0.05030610987119535,0.028987216292527866,0.011403574765858175,0.030137957624067877,0.03281314983276024,0.0016957540993961051,0.0056904100794893725
0.3193448,0.036882407769633634,0.050132211367563004,0.028290020268776056,0.011344736817308954,0.030170181424903082,0.03260365700692334,0.0018739928159113178,0.005656187144074947
0.3198103,0.03678338544801845,0.049958905466445755,0.027611237356551074,0.011286169888944523,0.030202537256156643,0.032396903291001235,0.0020516261325947585,0.005622211024048193
0.3202759,0.03668530266878728,0.04978623011928162,0.026950682961957646,0.011227886060199213,0.030235020478366063,0.0321928868545134,0.0022286005475739305,0.005588487379608266
0.3207414,0.03658813383419972,0.049614223235147144,0.02630817082389042,0.011169897351700443,0.03026762655496999,0.03199160550353222,0.0024048635481093814,0.005555021854290892
0.3212069,0.03649185335256357,0.04944292267199037,0.025683513081214082,0.011112215722103483,0.030300351053304416,0.031793056691060605,0.002580363612488269,0.005521820074594628
0.3216724,0.03639643565064699,0.0492723662277167,0.0250765203396,0.011054853064939626,0.03033318964562052,0.03159723752732063,0.002755050211623978,0.005488887649587591
0.3221379,0.03630185518603874,0.04910259163113678,0.02448700173800695,0.010997821205479862,0.030366138110124043,0.031404144789946,0.002928873810364429,0.005456230170494125
0.3226034,0.03620808645945001,0.04893363653278584,0.023914765014793907,0.010941131897616108,0.03039919233203612,0.031213774934071386,0.0031017858685117978,0.005423853210260969
0.323069,0.036115104026950576,0.048765538495623637,0.023359616573453243,0.010884796820762143,0.0304323483046751,0.031026124102312362,0.0032737388415564543,0.005391762323102467
0.3235345,0.03602288251213218,0.04859833498562464,0.022821361547953004,0.010828827576776202,0.030465602130558933,0.030841188134629775,0.0034446861811280034,0.005359963044024395
0.324,0.035931396618191794,0.04843206336226734,0.022299803867677284,0.010773235686907228,0.030498950022527265,0.030658962578072803,0.0036145823351663815,0.005328460888326011
0.3244655,0.03584062113992722,0.04826676086893235,0.021794746321953738,0.010718032588766677,0.03053238830488222,0.030479442696395184,0.003783382747816058,0.005297261351079932
0.324931,0.035750530975637525,0.04810246462321852,0.02130599062415762,0.01066322963332767,0.0305659134145467,0.030302623479539444,0.003951043859046475,0.005266369906589514
0.3253966,0.03566110113892059,0.04793921160718695,0.020833337475381714,0.010608838081953266,0.030599521902238715,0.03012849965298405,0.00411752310400195,0.005235792007823554
