Time,Rectus Femoris right,Rectus Femoris left,Hamstrings right,Hamstrings left,TibilaisÂ Anterior right,TibilaisÂ Anterior left,Gastrocnemius right,Gastrocnemius left
0.0,0.05860201390938145,-0.004660005724441157,-0.008623928413611573,-0.01454179957510808,-0.005850394530493994,-0.06491837082158297,-0.002084918936613807,-0.030611757082158297
0.0004655,0.10812889835804036,-0.002280447167143123,0.011306930496306239,-0.014948444716714313,-0.015285124348427695,-0.04771690413600149,-0.006709518923796336,-0.037233505665713755
0.000931,0.14641466576265114,-0.0005624372468243449,0.02134037802818547,-0.0143496521407777,-0.03151150447963079,-0.027141460505813106,0.0006272413453986682,-0.039491717507278055
0.0013966,0.17323413162572288,0.00037119333388481695,0.01564799891615431,-0.013423718522475665,-0.039609989491025385,0.0005666008203055177,0.03096763428593759,-0.03990675509059621
0.0018621,0.18090811867730625,0.0007989619045633289,-0.00992255122256853,-0.013942997087954797,-0.037952337856587644,0.022833182264602684,0.04787717352846707,-0.036700324047975685
0.0023276,0.17750022439088164,0.0011357583739412234,-0.050964968784650434,-0.013634941626058777,-0.05292963035676509,0.047192583096059476,0.026235800156058076,-0.018946009260941324
0.0027931,0.1785318641821797,-0.001626159650953582,-0.0987843891923157,-0.0132601,-0.08759942438865433,0.06677507473872964,-0.009041185480453275,0.010134219301907164
0.0032586,0.1884079152042818,-0.006756527585884455,-0.11439870024605207,-0.013143072660167617,-0.0998159088672254,0.0639126990157917,0.007697643751158466,0.019224681773445076
0.0037241,0.1974789383896416,-0.010235866743680076,-0.1171324667271772,-0.012397499983497127,-0.0973306666116571,0.05297763309129119,0.04497612952139697,0.01872763332233142
0.0041897,0.20069656475793063,-0.012953590661102897,-0.12262482017696417,-0.013420651806344512,-0.096849,0.043268650215255035,0.08474926366711173,0.013084953919863567
0.0046552,0.19010355275890353,-0.01227718683277593,-0.11468684915537153,-0.015561626334448141,-0.10995450889632094,0.049010494572200185,0.09405456045332415,0.004062056939799416
0.0051207,0.17245531281486853,-0.008351491140955897,-0.07573601185406457,-0.016012931466943298,-0.12773422355529446,0.06929945084178588,0.05170295433969602,-0.0010376202820117698
0.0055862,0.14926160360941004,-0.007016421641214609,-0.010850791975449988,-0.014756850402864964,-0.14645732902808514,0.08391060775811522,-0.013027128698409805,-0.006889418095045118
0.0060517,0.13259925896508368,-0.011798201610752925,0.014672529189083043,-0.013728082529590178,-0.14290862631321474,0.05728482518829943,-0.06419445510450014,-0.005940094274343443
0.0065172,0.09441628483217979,-0.0033501317173931055,-0.012957099056362742,-0.015456302013506937,-0.11308148413960245,0.010341108872837498,-0.11673041208244654,-0.015144052548441778
0.0069828,0.054987205586818855,-0.005003549644421513,-0.05355054422314425,-0.017468020333679692,-0.09291506601069023,0.007245411126863244,-0.19733376510243933,-0.023305558985227227
0.0074483,0.034298502545866534,-0.004310012829151059,-0.06940109038021611,-0.017316953207287763,-0.08804700887725894,0.026272374258514763,-0.24391266094470576,-0.02601086151254682
0.0079138,0.009668234265458708,-0.0023600162701850093,-0.08876905095622939,-0.016578464498253797,-0.08119688766879356,0.03637228354244489,-0.25395337571232734,-0.027641167039044307
0.0083793,-0.01401781626524199,0.003564018052751348,-0.08169705399737064,-0.014713128896958508,-0.05945049279145581,0.02695835259654734,-0.15712998172144602,-0.030491389546753886
0.0088448,-0.030926903958599483,0.01177177715626185,-0.06776031611718285,-0.015144425507810384,-0.0198825006328307,-0.006099051573433731,-0.04057807301876104,-0.0350758215492109
0.0093103,-0.041102102679578686,0.016008673211849022,-0.03367475821412327,-0.015956079558461105,0.004773200921411485,-0.023446385923685732,0.05140387505467199,-0.03762968449316495
0.0097759,-0.03871125892971153,0.011764115332205269,0.015394266824511196,-0.01142841533220527,0.003221024656954447,-0.01948649698989989,0.08543390427370899,-0.03135587788300746
0.0102414,-0.043455682750434294,0.006899103847500113,0.05415650912141045,-0.013415837063181838,-0.00565666835511351,0.01367884725804769,0.07537469522342949,-0.019610713113295573
0.0107069,-0.050789454093809645,0.0002565946409699028,0.049798334800288786,-0.012236539315838582,-0.012833863785416616,0.03321919090061092,0.061311378882939575,-0.0129244
0.0111724,-0.06669229216510188,-0.003928301507627673,0.03752247875268776,-0.011957540698631567,-0.011299329836024202,0.024430776013343758,0.0791672072746809,-0.0129244
0.0116379,-0.09123026387379905,-0.007105201139352663,0.030425380227870533,-0.012253,-0.01601091215932237,-0.013322918995438346,0.1127438984979858,-0.021583771475710774
0.0121034,-0.09481055735373382,-0.008913088589050456,0.03042976583954867,-0.012341197147262613,-0.022598425973622566,-0.027362167338314668,0.08549310899259599,-0.027827395720893922
0.012569,-0.0852670347076912,-0.0112878971076924,0.027137999296804997,-0.013134385538461997,-0.019953101446153802,-0.014769510378228178,0.028133867248765744,-0.028597207230769
0.0130345,-0.07608516849969356,-0.012088777896184816,0.0031238148955719507,-0.017596055357300938,-0.0202099844738334,0.0063741870971501125,-0.0025667334930284946,-0.027723897152696672
0.0135,-0.0810950270885088,-0.009059388055629674,-0.04618605721217754,-0.016866786090577037,-0.04123028546794242,0.014062512556451225,-0.010765842962984407,-0.024361927088508806
0.0139655,-0.09453327951672125,-0.004002885850843065,-0.11299100674280887,-0.01829978657165387,-0.07191652190602965,0.012034558935988406,-0.0409946302862591,-0.0260166
0.014431,-0.10566379918545928,-0.0021495680242345277,-0.13898956734365428,-0.015718277461011943,-0.08222427020525366,0.003968851101216444,-0.1287244730882668,-0.02678546680242345
0.0148966,-0.10853240954965099,-0.004011295453289468,-0.12556909087653476,-0.014299202017421998,-0.07435153596734455,0.0030012999289690387,-0.1947514380557975,-0.0277946651274195
0.0153621,-0.10046849921973254,-0.011068076239180092,-0.06699809905529659,-0.013612735596268563,-0.051295943782955836,0.006444486422388624,-0.18523663438001475,-0.0276951
0.0158276,-0.06284241587527241,-0.017859699546300463,-0.0014322213362577356,-0.013426840993604937,-0.02453583222387492,0.009367894543922317,-0.08405295355522502,-0.028093221350980645
0.0162931,-0.005514167047828896,-0.024365473622314296,0.06066867704299243,-0.014222102139579368,-0.0060976553489484175,0.03374758588142503,0.058612078025840855,-0.02471637062425433
0.0167586,0.05758331262725241,-0.03084655110256255,0.10238303807564002,-0.01202380837370564,-0.0008502263206208657,0.0713838233275665,0.15668653024689697,-0.024825625448387605
0.0172241,0.10261042707962569,-0.0342032132792025,0.10047465132266911,-0.011108387511397436,-0.018575817088743625,0.090059018365823,0.19138019917465882,-0.024954495004558975
0.0176897,0.11125022418679437,-0.022817590183214585,0.06333853289901348,-0.009686703947921657,-0.026762882994150056,0.06690223957613294,0.15271651305792827,-0.02435645445352641
0.0181552,0.11808121648086556,0.0007506365001321152,0.02214772579929367,-0.01124097331209892,-0.018852793566911878,0.01175545521327665,0.10198204589484854,-0.02531024220387093
0.0186207,0.12902361487654646,0.017495899863724382,0.0033337645190851606,-0.012401049233711851,-0.005940542425451154,-0.04362528921596807,0.07775351663836332,-0.028939232731624156
0.0190862,0.1428721414881788,0.027462296842800906,-0.008435732653975134,-0.013862972022517323,-0.010809230534338514,-0.1184166321351939,0.057745418787531845,-0.03623383784924883
0.0195517,0.15542461115318518,0.031432557587232325,-0.018459708931082744,-0.01093257879361616,-0.02107071295236221,-0.20271331515233526,0.055386529248942766,-0.03882541718510438
0.0200172,0.16415114259140262,0.032928923756987756,-0.0295085040641605,-0.012089327724731726,-0.023977346462730045,-0.23475426921541276,0.0446975068347664,-0.04108009306881707
0.0204828,0.17164969517104572,0.029950151300785464,-0.050211229820960206,-0.012922908178900353,-0.01753084312188511,-0.2139988490734021,0.027955330625882145,-0.040498378439057445
0.0209483,0.17533576091173977,0.020505302273633275,-0.11735214329069674,-0.014209982045559151,-0.005695438410032359,-0.15468105830470866,0.00925452317993528,-0.03720822920529455
0.0214138,0.1590364108772745,0.014493257371871196,-0.14580922480890196,-0.01367557451669151,-0.0008857706502235988,-0.09910291409046731,0.0188738586995528,-0.03199779559683393
0.0218793,0.12034457567579912,0.01306580444243027,-0.11226848783126196,-0.007345769224402311,0.002979821236332804,-0.0256809,0.03343733872446531,-0.026675719921596227
0.0223448,0.08628458311050344,0.0037675073399239738,-0.03978490514213272,-0.010288776582319588,-0.005905935363949744,-0.007031729746958768,0.035925176107461335,-0.01823476934184836
0.0228103,0.05474878836365226,-0.0030467089151906754,-0.0016521881089746075,-0.010027035838756786,-0.008454417919378393,-0.01951364015828495,0.02553156575961431,-0.01434513269724146
0.0232759,0.03826494607164109,-0.009730808855394537,-0.01416311926618087,-0.010302235899332863,-0.009585668528364406,0.004944529916243801,0.01407677171890686,-0.009322286716908193
0.0237414,0.020462834457352516,-0.019422493142301052,-0.03780579440882501,-0.007718086891470504,-0.01917812591362479,0.04375291605058594,0.008116650811372663,-0.005453593445735251
0.0242069,0.00529615882814445,-0.02664623514455282,-0.03870726787259316,-0.005979637554076065,-0.03240369879174376,0.036294195173964275,0.012298044789635035,-0.00432202489184787
0.0246724,-0.015520200221784257,-0.03953788696491603,-0.02763447921287172,-0.005851847921287172,-0.04094538590092508,-0.009374278309041976,0.02404102978402508,-0.005282524603531191
0.0251379,-0.03820912791920329,-0.0451333316154316,-0.02314414191849901,-0.0064466776346193,-0.053830793322458714,-0.028765998471820927,0.0329177645192895,-0.00827461762047886
0.0256034,-0.06580893622733322,-0.05035451622945031,-0.018779211474937278,-0.005901593723737444,-0.0700728420833949,-0.046735116649651194,0.03763163138131277,-0.012440784519444055
0.026069,-0.08773486983752468,-0.04535803414795867,-0.005738826841239197,-0.005233199335752775,-0.07424785916378605,-0.0911706144336548,0.03195055606811709,-0.015088096678763874
0.0265345,-0.0974689589160149,-0.03352458803231374,0.002488306189403382,-0.005544512091981551,-0.06787234456342572,-0.12213429057974658,0.009827273517194651,-0.0166171
0.027,-0.0924491633791488,-0.013848489371363758,-0.00011377457427689851,-0.006039222279285456,-0.05802083682044197,-0.10016435295010331,-0.027784864058319817,-0.016610346570316424
0.0274655,-0.07210759772929683,0.005698429834438923,0.0008223499569111456,-0.0053041510922627304,-0.04533983766806072,-0.03087223459584811,-0.051312254498317486,-0.020258955386004633
0.027931,-0.055446712762725676,0.02017741220265431,0.00861778503662743,-0.005177751940430492,-0.04035155230952548,0.024343723578591974,-0.04658642809519323,-0.015197655821291473
0.0283966,-0.04711243125933844,0.020001442370305766,0.007615477925918838,-0.004976969481223059,-0.044552202518418065,0.03495684980783964,-0.04083539558600505,-0.014018995584978447
0.0288621,-0.043214806495780446,0.011393508351717718,0.009229939210468023,-0.004487633642656212,-0.06531543925152968,0.043406506536842096,-0.06282700899518719,-0.013215833642656213
0.0293276,-0.03762610004648733,0.004208028631197995,0.004173490518250441,-0.004221504764118444,-0.07755728838846163,0.055116097916698525,-0.09542767770235569,-0.012949704764118445
0.0297931,-0.02663648598524728,-0.00408360763904814,-0.03491880220727911,-0.006300733042193319,-0.0663333483202896,0.039704521979309,-0.14935485636689014,-0.015450985612952637
0.0302586,-0.019332883417577905,-0.015484098807913,-0.03636286795070989,-0.004538614672143345,-0.02580176409858021,0.0018731270816063437,-0.16685220620473148,-0.014864771213490351
0.0307241,0.009776790604754821,-0.024330854777704455,-0.004827924340094511,-0.005676162933220523,0.02359087261508313,-0.02334183494135876,-0.14350744449676767,-0.020078776705760824
0.0311897,0.05019941236153512,-0.0351110884619645,0.04185722004986647,-0.007899096153988167,0.048456649185731185,-0.03005442610966018,-0.12164793723594587,-0.030066165389585817
0.0316552,0.0814177259255713,-0.03604764065873425,0.06433437977738499,-0.008211280219578083,0.03659374768826984,-0.020064629005738337,-0.09464415505485131,-0.0409926076852329
0.0321207,0.09384943984566407,-0.029366503910531853,0.060978366531022565,-0.008514737491299365,0.013238799776419851,0.007501768885387275,-0.020777110119533385,-0.040134135823342146
0.0325862,0.08059296349934758,-0.02449535062096823,0.03665209124284689,-0.00917457134578702,0.018548950413879457,-0.0009747645753745483,0.06785653873566112,-0.01801730528020795
0.0330517,0.06578777851561764,-0.01937053435038465,0.025548138895414303,-0.008605137892072528,0.02609390126917305,-0.01236334883681754,0.11682756131656688,-0.0052050525716318885
0.0335172,0.04958924652233117,-0.014276885074708432,0.021612656386717548,-0.008654074542361898,0.019430500173328043,-0.010934852983036727,0.1369824979641795,-0.005748828225298812
0.0339828,0.04953710883437364,-0.015978182621306694,0.022919460970453553,-0.009047653851303562,0.0070547997383954,-0.022464852687738488,0.10747728009281987,-0.013774597994722384
0.0344483,0.04629875994506203,-0.012570885618345554,0.012263919074575871,-0.008513163813035152,-0.02255843231899173,-0.030775029569456977,0.026899545554007476,-0.018949745885097985
0.0349138,0.05248447817465252,-0.0085603,0.01272270322888369,-0.009023126840989193,-0.038908134685106725,-0.021764337352433383,-0.0351107999202471,-0.018750148825842472
0.0353793,0.05190485598970176,-0.007079079948508793,0.013102276041192967,-0.011384320051491207,-0.02878956170624715,-0.006652865613562977,-0.027239735680754516,-0.016547845850928465
0.0358448,0.043606647247297035,-0.005689708680601699,-0.0007450126863561618,-0.013972571701504248,-0.0047990347224067965,0.012768773796728975,0.008397766071392143,-0.016533085056953185
0.0363103,0.036245958712902024,-0.005311767845357204,-0.03243720169955783,-0.01604874065243194,0.002097396600884342,0.04305915478134047,0.018372062609727763,-0.01817271529602046
0.0367759,0.03397415192979687,-0.005101550834963682,-0.0560263971396904,-0.016300176060447483,-0.005269602669211502,0.09166503976192356,0.02120113332866736,-0.023017400889737166
0.0372414,0.04304018219230946,-0.00863316591707088,-0.042375881700004274,-0.0203098,-0.007011798246340735,0.16061891977973422,0.0509125947390222,-0.027209411780486765
0.0377069,0.059263375642510954,-0.016192644799733792,-0.030513564435008227,-0.020208469157222828,-0.009573687821255481,0.20951100189819427,0.0533924178279116,-0.030532696264165757
0.0381724,0.06687409347399588,-0.02267583643865953,-0.04319815013300949,-0.019080942964663644,-0.013379046736997944,0.18188669414878378,0.0068821303214243205,-0.032223985553004535
0.0386379,0.053437152381678295,-0.026521930160724343,-0.05270998435734551,-0.016808872677985184,-0.012222158430996825,0.08123213110898202,-0.05244744436033544,-0.03442966104600211
0.0391034,0.028134381273842123,-0.030534611026339118,-0.037560607034514686,-0.01224136054323435,0.0018211889651231995,0.004712019391461948,-0.054293932778111884,-0.03507882273505768
0.039569,0.007472759767081536,-0.03981663981096565,-0.039642701367124555,-0.012371101679367074,0.019993150995804797,-0.009930798109656521,-0.029009320800021506,-0.031247252151952943
0.0400345,-0.004667462338639443,-0.05131425256087047,-0.06737959756628227,-0.01353456088892412,0.030516262338639442,0.0013257721164084124,-0.007938170105505547,-0.03170053761362325
0.0405,-0.00839377387165897,-0.0542583029234623,-0.08683600106845613,-0.015510084322995383,0.029456863064170516,0.005993916033156661,0.02980845944520585,-0.03395683171016128
0.0409655,-0.011401722454041545,-0.043039494139026885,-0.09041982056562244,-0.01813730681649321,0.007661739520353504,0.009019444302869705,0.07023346486849213,-0.035618789822960205
0.041431,-0.013682710996567852,-0.026660839762269378,-0.07368326518068066,-0.01755683744766158,-0.01624373984025471,0.015810982230866324,0.05526006015974529,-0.03648028928492082
0.0418966,-0.004502676889035521,-0.01177772736363137,-0.034698275787877125,-0.01715895787877123,-0.009379887045813521,0.028928432767916637,0.017927034666593407,-0.03459376688393084
0.0423621,0.004613274404254006,0.0022535861143286413,0.0041810889128389385,-0.016873212746473732,0.010796363522690004,0.04222579430018088,0.020182634817997328,-0.03320209067495014
0.0428276,0.0012197297301310395,0.014372347102183226,0.015050151349344803,-0.01562921274148473,0.03003487256100411,0.050039604223013,0.05009810999914803,-0.03043513514700877
0.0432931,-0.01694948412670534,0.024602518479459018,-0.010349867801086567,-0.014516235004294765,0.028662046117812277,0.038937317574810774,0.07209599294105581,-0.028505754081404693
0.0437586,-0.039787778747860006,0.032742459471339413,-0.07625451059183747,-0.012731404650088355,0.007681641151945674,-0.002357712369853133,0.06447657286678447,-0.028605702325044176
0.0442241,-0.06202936793664088,0.04932306650521158,-0.12458165880562813,-0.011639340507527842,-0.007868650079572935,-0.053774751069969894,0.04713779081124602,-0.03170852249131403
0.0446897,-0.06672868816504664,0.05413998816504663,-0.13139735765473123,-0.009894086427792098,-0.011427277309382705,-0.07898751238210609,0.049924924108449995,-0.03456713561346956
0.0451552,-0.060665036524797065,0.045639234563762836,-0.0860223463698743,-0.007545429860144903,0.0003296324991979006,-0.08663819580724551,0.09283649059276414,-0.03650102455153027
0.0456207,-0.05400786724141394,0.025955489936403144,-0.04202335345733336,-0.004048383695595341,0.009678344339595506,-0.07977124842258503,0.12972607227616229,-0.036073649368444025
0.0460862,-0.05796362789320512,0.008741037766836886,-0.04303603065202757,-0.007892873420943223,0.0009523896108021033,-0.09323179499792122,0.11230591929696031,-0.039776326579056775
0.0465517,-0.06224109088769759,-0.0031746609898111247,-0.06106239082937911,-0.008198406491978399,-0.016157371353443906,-0.09903692334758958,0.04890812560519474,-0.0394707935080216
0.0470172,-0.05931803942642543,-0.013856122981333447,-0.060292598750840636,-0.007577605506688598,-0.026042135755988977,-0.09585003516889619,-0.043285386713225495,-0.040181081351169594
0.0474828,-0.04876324019581254,-0.024090984534759843,-0.04845842991651708,-0.008537132709471587,-0.020444941377884284,-0.09616987756982387,-0.0887027218161772,-0.0427398205585909
0.0479483,-0.03427132003501054,-0.038405886256149914,-0.048420667705011564,-0.008067458694804578,-0.0004779638244358352,-0.11302377539251786,-0.07443931980019387,-0.04858800536444792
0.0484138,-0.01971289430604664,-0.046541482106721106,-0.0558426535844517,-0.006069231727263005,0.012653156927712648,-0.13514696001588006,-0.04346692935512941,-0.05386907629594158
0.0488793,0.0030431494943088016,-0.05295652853929863,-0.04099370331466922,-0.004000385786537081,0.016815126404489008,-0.16051376370777173,-0.019689675786589002,-0.05654587685391182
0.0493448,0.03199066735078339,-0.05824983805777184,0.014366699801918398,-0.001858666855579385,0.013738506002800036,-0.17577519130677388,0.003667870905070051,-0.05410332405503127
0.0498103,0.06325419608123048,-0.057089194610214604,0.057039442576435284,-0.0023560477725606504,0.011655380596772564,-0.16251104595909563,0.005170508623656638,-0.051740638070946934
0.0502759,0.08425364946409765,-0.04479966791724215,0.06199439196078142,-0.005034084494523426,-0.00693740694509694,-0.1169286425190007,-0.03148503048235311,-0.04730002032900772
0.0507414,0.09784241925537186,-0.03185702991501422,0.034498318433230236,-0.0031848683980418057,-0.030309997244583328,-0.07964292413013367,-0.0738072227172369,-0.046593470907127406
0.0512069,0.10177863174669687,-0.014229196882803039,-0.0017992438034136783,-0.002182,-0.04591328671264179,-0.07039757671070845,-0.08257415397357493,-0.04707692592437398
0.0516724,0.09556928118891816,0.009724867042592417,-0.03420076033248144,-0.0037180863124630713,-0.04190476841877126,-0.062012899101523355,-0.05609765943400479,-0.04003502066496288
0.0521379,0.1035353941695711,0.024952867588891578,-0.04196599659001352,-0.006591155335656878,-0.0279057903182303,-0.04068126057370889,-0.029059633400652478,-0.037603328162600466
0.0526034,0.1078967326668715,0.03772813857209598,-0.05100847733005609,-0.007934450999692758,-0.011048512334664714,0.005712898274865311,-0.01196197133189954,-0.035370649000307244
0.053069,0.10711721045796462,0.03674339752235341,-0.061119026826967585,-0.008910971721845674,-0.006934201026459858,0.04516004960245049,-0.016696233410453613,-0.03436418483446298
0.0535345,0.10134307488609733,0.02909667738317303,-0.055032871305350894,-0.009535197568871147,-0.009118991491049012,0.059517244084036365,-0.02699595988637391,-0.03249150729338656
0.054,0.09417621910147073,0.018942646588887543,-0.03272803931642209,-0.00919326092951203,-0.01223249673121652,0.04957187487219246,-0.024921092216304393,-0.03262553442292782
0.0544655,0.09306354180143762,0.002440375864778255,0.006259077518972456,-0.008363737297843567,-0.016974892610063356,0.03803550835417118,-0.013865208354171184,-0.036445392610063354
0.054931,0.10373700600636158,-0.017152538222546917,0.0698480516846217,-0.005752078495778115,-0.023403183915705783,0.02902167919520517,0.00016109202324913417,-0.043914675825961785
0.0553966,0.10579759920502572,-0.021644102260821634,0.11560852238070876,-0.0031440596281323238,-0.03746157988011287,0.03263631367824951,0.009905537910304416,-0.05101804409054444
0.0558621,0.10188154794595307,-0.0182192395560971,0.12480695023696449,-0.002293571993994785,-0.04692780229101142,0.040566224048041714,0.019810683620341277,-0.053059973811077236
0.0563276,0.08140408464490448,-0.013429928240276168,0.09033145020955252,-0.0027811816799605473,-0.05719653435942794,0.029175575560808777,0.023713537476219914,-0.054125032478139545
0.0567931,0.05141090045017232,-0.018517360461931403,0.038943593516520644,-0.0023167323486038183,-0.057856633054589234,-0.007250557060228999,-0.03515890539143397,-0.05427185397845204
0.0572586,0.01935460132466525,-0.037282932764488276,0.011678672418945464,-0.0013058840040006553,-0.0507573899048455,-0.030488564039075856,-0.13953995201200195,-0.056701751901845
0.0577241,-0.009957051598615912,-0.05106346664005866,0.0004319305574389918,-0.0021614183184985912,-0.03935587813435873,-0.03564556233407181,-0.1996531629988881,-0.05657892112100094
0.0581897,-0.02123692816838134,-0.053160816206242134,-0.015100026954244658,-0.004338351381273594,-0.030269878637704487,-0.02812556758751573,-0.15411536206242135,-0.053184910983333986
0.0586552,-0.023842742639432896,-0.046282341645802444,-0.03080441670839511,-0.007817954521132086,-0.015424237531296334,-0.03717785218243838,-0.04133317587584462,-0.052238707415760276
0.0591207,-0.01691538674669144,-0.03998375350493864,-0.04997787015953515,-0.009061058117656545,0.00432275078163658,-0.08552160307514527,0.016375251107779255,-0.04978196468723049
0.0595862,-0.014469470378590173,-0.03423640782466194,-0.05126748206266332,-0.009406511958224454,0.020259285922074523,-0.15201649548644663,-0.027796040483029038,-0.05335304434244024
0.0600517,-0.012015182051405456,-0.02728471880374788,-0.03583092420117574,-0.011500031623828786,0.02003119543352014,-0.20502748094913686,-0.10937605020226036,-0.05416635897429727
0.0605172,-0.007696545018031007,-0.015481779661113134,-0.01905750172461015,-0.007621107789477577,0.008432052378521933,-0.24884117141857312,-0.1539668666888172,-0.052923476628679425
0.0609828,-0.0036854724842478887,-6.0308810128497726e-05,-0.023695554558742435,-0.0011990353895804627,0.002482293968993739,-0.2893518312219511,-0.1199033505451871,-0.049464941884125084
0.0614483,0.003412225648188926,0.00860656215390019,-0.04175541634020042,-0.0005092636527782913,0.009614170368011094,-0.30822176862262207,-0.06676305094203308,-0.04309842044725587
0.0619138,0.013525966723882656,0.010407992068941207,-0.0549001330894665,0.0036939920689412053,0.030149739468643123,-0.3048685818604726,-0.03699067438853948,-0.03884969362082337
0.0623793,0.028747227609859895,0.00897056867056167,-0.05784834506355067,0.0048228587976629975,0.043316546774292974,-0.24847170802793284,0.0003474763855773127,-0.029112325466800225
0.0628448,0.03507460052334606,0.010760112797520935,-0.05547454607767018,0.011335353398983762,0.03189950193383196,-0.11629659287674395,0.03906156245607178,-0.018094476862136145
0.0633103,0.04246161086294983,0.021087444495376726,-0.044868077829076314,0.01035063665522305,0.010194063882129671,0.06815169064844825,0.0809323339394856,-0.01326718310702188
0.0637759,0.04506327540080768,0.013839131110965372,-0.030351324161311203,0.0139315,-0.019851046071983458,0.20906189214396692,0.11426267461450065,-0.012618075838688795
0.0642414,0.0423128369955613,-0.009998699692084312,-0.029434481013580625,0.0139315,-0.03696536045834223,0.24329052091668446,0.10769201090807086,-0.013534918986419375
0.0647069,0.040787859114928514,-0.0418121330378213,-0.043606909796961225,0.009935838776847533,-0.044491297456575665,0.24337138569376807,0.06857067030015818,-0.01647097087773612
0.0651724,0.04476589146757507,-0.057801304667057594,-0.0522441994126433,0.008528079696811889,-0.050772776712479595,0.22910664619414126,0.052786311810435575,-0.019845646448147205
0.0656379,0.05751180483440343,-0.05386653842471385,-0.043574670183246886,0.006117245735420893,-0.05181343107460555,0.16359592034495257,0.0791569675887395,-0.0257286212875949
0.0661034,0.06437255231101163,-0.03420726792899403,-0.029432701714183267,0.0029933271847997203,-0.03863372572696001,0.04847382521427291,0.12261417135736055,-0.03370755642818724
0.066569,0.06338742585367016,-0.01984875710304274,-0.03884893092993201,0.00181525873392289,-0.020983520473318265,-0.035377418410816965,0.11446227100503818,-0.045539033823223926
0.0670345,0.04489848402479722,-0.021097097911954604,-0.062288503180506175,-0.0011875012099534683,-0.007147170255132516,-0.08152300164899944,0.07900102552033861,-0.05356455587018282
0.0675,0.02925584073643755,-0.03244152460821481,-0.0726435483162609,-0.00020510238579662861,-0.0014100265031706432,-0.09144616444448363,0.059323739345428034,-0.06068723929156608
0.0679655,0.005856956036014664,-0.04402371286689121,-0.05705981054339471,0.00017511102807649115,-0.011528631865774948,-0.05359099846263836,0.05504574549261996,-0.059615854498653024
0.068431,-0.028501731157014536,-0.04630684653091828,-0.05076136586377193,0.0016508235386916807,-0.019584390038058248,0.006168453558211275,0.04626980411670848,-0.05805161937741842
0.0688966,-0.057571605367872744,-0.04617032702062643,-0.03602173080291714,0.0002860349858336367,-0.022723363054625703,0.028141427294207655,0.037671676888708844,-0.05436673093970775
0.0693621,-0.09008358194835234,-0.04739797979542628,-0.0055079567423692135,-0.0013078202623880751,-0.023869966873563252,0.03002366003809925,0.02343142773559501,-0.04850743483211612
0.0698276,-0.10492019247870367,-0.05091083223076609,-0.00971594462786956,-0.0007825720695822562,-0.024579410743588697,0.05143044785016192,0.015224624377691303,-0.04501802157325895
0.0702931,-0.10514629651528318,-0.04915599721649057,-0.02877736032401078,-0.0019361795205378063,-0.024958142459498654,0.11591366729344443,0.006212275986741241,-0.03513560951398383
0.0707586,-0.09032425262065623,-0.045450466531725464,-0.0330122525351709,-0.002862601613945823,-0.02442878093310364,0.1497926472938584,0.0027714260651736456,-0.028783271197243655
0.0712241,-0.0642894985746593,-0.042016479401860644,-0.035565645554917445,-0.003946050786850922,-0.02410960680563532,0.1348240761060958,-0.002752706986868719,-0.023903350951648195
0.0716897,-0.026651118041477965,-0.04524284959201407,-0.057990950053214536,-0.0049573470108251845,-0.02457980321977505,0.08466904524560816,-0.010518877079959034,-0.017739484929954766
0.0721552,-0.008283034316722247,-0.05002209025785861,-0.10815829720939776,-0.009040422421036602,-0.024565218228426788,0.036276121032441946,-0.010667657343143941,-0.02040295734314394
0.0726207,0.0032843633817853783,-0.05347249807178531,-0.1763937086078003,-0.00910240937201914,-0.020173707149670535,-0.0009776373121255584,-0.006334065028405958,-0.024739576328639788
0.0730862,0.013523207726189687,-0.045525401969709424,-0.18853220163181952,-0.011848719391798218,-0.015508729763477084,-0.023531939797266074,-0.007214298648440484,-0.033784728609677434
0.0735517,0.019142413457154783,-0.03694622617834061,-0.17156723948287878,-0.013997312915636603,-0.014390334338780621,-0.030574810482647072,-0.010499352551131996,-0.039564292186627395
0.0740172,0.033378990336725076,-0.02816342604051821,-0.17358672961730828,-0.0171108590880793,-0.017478857435701246,-0.02549054256429875,-0.018907042836332717,-0.046076090211228375
0.0744828,0.0541382373641956,-0.021325375115633226,-0.1574809596169472,-0.022065769944851793,-0.019375852996619907,-0.038403330504022844,-0.026309406860172763,-0.04680408904500792
0.0749483,0.07544732013348507,-0.011064758239835177,-0.04830166534873988,-0.02680023249064012,-0.02022492013348506,-0.06649574920278217,-0.030021038473809755,-0.04402768920353361
0.0754138,0.08088817462778664,0.005423442353129822,0.0744397704749835,-0.027305913204385985,-0.02231611424094458,-0.0794097635030866,-0.03523477722575187,-0.041542074776362015
0.0758793,0.07161882128530994,0.0358838519055588,0.12382151607058868,-0.02606815177377583,-0.027170376829488627,-0.0685459695115341,-0.036690264301632226,-0.04054620902583886
0.0763448,0.04764830623448878,0.06930251962412155,0.12544379779317655,-0.025385465195451026,-0.026728265195451028,-0.0392624543986233,-0.03455002818407859,-0.03713819527471749
0.0768103,0.021183901607223204,0.09037908009695955,0.10072089341683661,-0.025657384804789102,-0.02356615195210898,-0.005587642906687267,-0.027541034294639753,-0.035522014876036886
0.0772759,-0.0037037357803286104,0.09115617046615321,0.05449365227395978,-0.0256809,-0.01840112640045846,0.0002618311005409737,-0.020121837798918053,-0.0350875352330766
0.0777414,-0.02206002150114199,0.07806325613975575,0.028024114273421642,-0.025042902981213637,-0.013829620868495453,-0.027895525543982305,-0.01806010894364091,-0.033804505962427275
0.0782069,-0.038190662565871066,0.057548705483400533,0.00520257747905687,-0.023751547272069143,-0.011178341091172342,-0.047977927655595526,-0.020460311636758512,-0.03533135272793086
0.0786724,-0.04022647844408751,0.03918923448488594,-0.020784223775423317,-0.021407243255175505,-0.012303226012732534,-0.04795959857414946,-0.021966195209125874,-0.035689553857205514
0.0791379,-0.04127908210258897,0.024265439978224446,-0.0406372350844672,-0.02169715967720668,-0.01535374036969447,-0.07435333156451854,-0.021630316842487292,-0.03581874947253813
0.0796034,-0.038186019741375164,-0.0011538321459817428,-0.04539352529711638,-0.022305187289449857,-0.01838386052691229,-0.1148702334391059,-0.017083808486583595,-0.03248847749041685
0.080069,-0.04186056375814448,-0.03469735395882365,-0.02069755047041838,-0.023838269236931234,-0.016894074715717983,-0.1350231735997145,-0.0073917054682244515,-0.027252961515575234
0.0805345,-0.03883599916017709,-0.059653322072321366,-0.002201885550782974,-0.022622472280063994,-0.01456795050458024,-0.1287377671584452,-2.6278410843244267e-05,-0.02008576434313261
0.081,-0.036341924307479505,-0.07014003467220481,-0.015254309318279214,-0.02353167623500253,-0.013639505986456203,-0.11788687272235217,-0.0006386172553182243,-0.02060871795936861
0.0814655,-0.013585030383491414,-0.05819730511070161,-0.05840780109663357,-0.023123496601148368,-0.01509722340229222,-0.08534401304708973,-0.006598480063459038,-0.01957255656941885
0.081931,0.0001923326105851774,-0.042273211058469526,-0.10890714246627925,-0.023323970099446045,-0.011889705307912732,0.0020654215651226683,-0.008786170638255406,-0.01599357865619936
0.0823966,0.0038279646982519967,-0.03878733543606261,-0.1366115279592657,-0.0248324500671573,-0.012992392885924558,0.13094870089997987,-0.0037018499328426986,-0.011143914046790153
0.0828621,0.008789397994662251,-0.03644996710768167,-0.14318611939640463,-0.02614448255117196,-0.013784920107577968,0.18944869045700063,0.00024774759575470315,-0.008709502658749925
0.0833276,0.015858887968510427,-0.03084313023187104,-0.13172874274551746,-0.026875809100190735,-0.013906844174284604,0.15458893685458625,-0.0012148328852091723,-0.009562753274475339
0.0837931,0.027341769951047624,-0.014350192865983019,-0.08117023192665965,-0.024956523456174988,-0.011825435793847167,0.058476950185643396,-0.006231608099197872,-0.014595842927864148
0.0842586,0.03920481827958846,-0.0042418727086498175,-0.024760572555010813,-0.025201339960480806,-0.009687289159553827,0.00823264551972564,-0.007854645468512637,-0.02091269093702527
0.0847241,0.04530314300695849,-0.008891024795148262,0.05388816934031063,-0.026953923027641893,-0.009882067802106756,-0.003201662857582617,-0.008092883398921221,-0.026131029711589954
0.0851897,0.04548267611809652,-0.023864862500175242,0.11142073424626721,-0.031241400638912297,-0.01303232196516659,0.0033072354650957305,-0.012794344527860022,-0.03282967420135963
0.0856552,0.04889070155075514,-0.03277461187000573,0.1196989375484611,-0.033402,-0.016684412645383295,0.014732352613077258,-0.01202862451538902,-0.039937362839227684
0.0861207,0.05745039996513405,-0.027711386338537564,0.11652278039670741,-0.03327276176162947,-0.016331817616294753,-0.013778637219587336,-0.01139459310911856,-0.0407516587907144
0.0865862,0.06991338286242593,-0.0169077386373182,0.144386272727697,-0.0322053335225947,-0.018748206818075756,-0.08910404385556904,-0.005305186363848489,-0.039553543842093
0.0870517,0.07419959829623385,-0.00626599100796176,0.13965660711464967,-0.03368335402667198,-0.019930623221337585,-0.1330010326865833,-0.0029403535573248353,-0.035562932509100545
0.0875172,0.07200766230779537,0.0011151118931973548,0.06530538674881108,-0.03558437679115042,-0.019770094116314054,-0.11781819876783389,0.0017265071158520558,-0.03050056748811074
0.0879828,0.06843383849143456,0.0032809047002184057,-0.04256345715120282,-0.039233222674275106,-0.013211438491434557,-0.07191516278022601,0.00791533138900035,-0.026812874682641187
0.0884483,0.06014199402662679,-0.003598634439252017,-0.12249431014516723,-0.03806660088520572,-0.003563861496351627,-0.05944312427850091,0.007093016919724313,-0.024199865175739924
0.0889138,0.04943536194791239,-0.009141918766304916,-0.12752829076177716,-0.03258506186223625,0.0022179363404406715,-0.08975753467434228,-0.007924202140027623,-0.024460429887526964
0.0893793,0.044709125636376815,-0.02152545266538628,-0.059339487659239847,-0.030570042355768025,0.00064527166420716,-0.1057862068858437,-0.024298770939848637,-0.02868209133130218
0.0898448,0.04798318940755966,-0.024417870007356263,0.04427962378750847,-0.030139478152545765,-0.0016184287596986238,-0.08136764376534018,-0.03458085373561665,-0.02844208440947335
0.0903103,0.044930255346337496,-0.022361624658826237,0.0941665240656209,-0.030082681757282372,-0.008036352228684422,-0.02894377611434221,-0.02891867397563934,-0.032388615330846304
0.0907759,0.04579848193488121,-0.020532578987882397,0.03716595245803707,-0.02842915780312307,-0.01283345413457092,0.05526863203267356,-0.018535568297710386,-0.029784574755519128
0.0912414,0.04243741326888024,-0.016063623714105708,-0.036114429203543345,-0.02855588035397631,-0.013879825131363573,0.12139243610347565,-0.012136784069434654,-0.02678471911503931
0.0917069,0.03930982978098972,-0.01632716068068005,-0.08558500014597269,-0.023997446859548674,-0.013716152846723558,0.11603155668982426,-0.007491545010984663,-0.023126594014607517
0.0921724,0.0340734,-0.01383798645489354,-0.1564025343569067,-0.022237405941786408,-0.011025527701244405,0.03239288776727059,-0.00346588648298657,-0.01894200824244457
0.0926379,0.029058632016466062,-0.010556438606082602,-0.2483854387154244,-0.018849296210685044,-0.004988299424849886,-0.06758435985845228,0.0071038959348619524,-0.020443231326779714
0.0931034,0.02978136587696703,-0.005019623127610994,-0.28158692354837783,-0.019138358253338678,-0.004432176080077694,-0.12768500434739954,0.005355323127610993,-0.014916997324952865
0.093569,0.029777244838176842,0.008246069811066315,-0.24072198663933558,-0.01922893147751243,-0.0018269867345086684,-0.13524693008049157,0.006740099355710627,-0.01559434115686938
0.0940345,0.0281483395991272,0.019868178789034997,-0.17995892178238518,-0.01705628042523671,-0.004570321537394262,-0.12900250118524928,0.004672580384179589,-0.011968302085126434
0.0945,0.025128254327692563,0.010527212372654209,0.0008420731549851957,-0.012823647157631554,-0.009234261497753573,-0.11589177827981877,0.001834484065595972,-0.015393054327692564
0.0949655,0.020834606024570247,-0.0032504952565705235,0.0,-0.010271209608555784,-0.011250994875436916,-0.11163683767195592,-0.0016809974377184577,-0.01920129013200744
0.095431,0.020972046570919296,-0.0025634562419739925,0.0,-0.0061492210966996785,-0.013449388748426837,-0.10091974939970441,-0.002780194374213419,-0.02071264499040083
0.0958966,0.02606437881078187,0.014594673610293247,-3.701752842127263e-05,-0.00047217641914986443,-0.015085835250992235,-0.0437413069043691,-0.0011502208308797406,-0.020474325343616828
0.0963621,0.03214628016210249,0.026224164246600023,0.0006226927398000693,0.0017618047363154345,-0.018790150116369093,0.0414588,-0.0025817243380668233,-0.020550660481635733
0.0968276,0.03034410492098347,0.01576321845665617,0.0,0.0024567082016391144,-0.02276938523704959,0.09626933280655646,-0.005325283596721771,-0.022049288164652313
0.0972931,0.0294725087286009,-0.004573939487121715,0.0,0.0010040478810015023,-0.025384173814197296,0.09045869152400601,-0.008230604237996996,-0.02350186194014124
0.0977586,0.028799488808924488,-0.029510015834877248,0.0019679237101163398,-0.0009127623455734382,-0.021446141173024888,0.04119008128062018,-0.01110352637895199,-0.023567057917438624
0.0982241,0.029514521434828474,-0.04862834808106294,0.0,-0.0039522697549235365,-0.0222054975929248,-0.03513791984580608,-0.005192050715399455,-0.022474625045441274
0.0986897,0.03074391227205049,-0.07077458500319053,0.0,-0.004928141364506511,-0.01698580457749699,-0.10602297188826106,-0.001554626818278501,-0.022235859478372484
0.0991552,0.027996191618404907,-0.0811801256359208,-0.0008267766871239338,-0.0071351682116674595,-0.01252426134748173,-0.11475629848259064,-0.001028815736916345,-0.02045423704124753
0.0996207,0.024786904117861917,-0.0693217,0.0,-0.011456590185521037,-0.012348245572936354,-0.07917966754649187,-0.006456807275372169,-0.02116983408244767
0.1000862,0.018194404262974678,-0.03524895447972151,0.0009734660257580306,-0.013518535823403592,-0.0152743,-0.044109163252015596,-0.013838788511556961,-0.022880168930658234
0.1005517,0.011292782587331495,0.0030614759547987237,0.0,-0.016761459482202045,-0.0122686275291105,-0.01104563858562432,-0.015956118352740332,-0.022742946821922655
0.1010172,0.0036951779198521276,0.032722569372078944,0.0,-0.020979513124820885,-0.0023443472919310736,0.032707791243441434,-0.009109520205173461,-0.022532758541777546
0.1014828,-0.0027304245751796894,0.04336386561046438,0.0,-0.026318878207296878,0.0022826608963515617,0.08323711623014937,0.0005595318394140638,-0.0229953
0.1019483,-0.00871372538668996,0.04367130559599825,0.0,-0.030403871727384315,-0.0006872378587703778,0.10890441920544286,0.002700447218567614,-0.023086896269334498
0.1024138,-0.015091720749770512,0.042441724925054755,0.0,-0.03291564994722348,-0.004826674868058702,0.11420051647315277,0.0004793378520219697,-0.02341779165787058
0.1028793,-0.02023869666111615,0.04281345055648064,0.0,-0.033721899258025816,-0.008169297403090338,0.11925784610463551,-0.0024663487652849558,-0.023662749814506452
0.1033448,-0.020603071418249,0.0344433208993229,0.0,-0.036083871345991995,-0.012916942691983992,0.126086042619727,-0.007943264918187105,-0.023959971418248998
0.1038103,-0.018359972874440127,0.009654635669529734,0.0,-0.04056209493945955,-0.0070872492454471785,0.10016759673604214,-0.015354013507912049,-0.02334172881240669
0.1042759,-0.017796099035140282,-0.02332516227426408,-0.0021228716609611345,-0.04708842195041905,0.0077581795933564955,0.021668037622237825,-0.019460648359738483,-0.02459370308755109
0.1047414,-0.01978415412841682,-0.04626544915501741,0.0009267925477379965,-0.04537272457750871,0.014189964156037531,-0.028788909850302705,-0.0206583047960814,-0.02519573273784624
0.1052069,-0.01971183656772038,-0.04075744345675726,0.0,-0.045899470288727186,0.01139287313544076,-0.022570668068423283,-0.014184631996755334,-0.028089777145174764
0.1056724,-0.014500784463630439,-0.01969587263270386,-0.0018637015478717115,-0.05148052613538244,0.0006418727347892363,0.00010053363865189535,-0.010225179322103007,-0.03169476368364807
0.1061379,-0.004766046754387149,0.0034283165569681806,0.0,-0.05327576420503241,-0.005130671589892623,-0.014044244967096838,-0.007433591721515909,-0.03177480827847345
0.1066034,0.002932786660867378,0.022020326274434593,-0.0009826332431031627,-0.056468866018010724,-0.002373402010332785,-0.0765643044932714,-0.006945711260024651,-0.03268250067011093
0.107069,0.00487812931209096,0.027191263395938067,0.0,-0.052799986702089664,0.004984281930333518,-0.15256505147444602,-0.011139166595220466,-0.031006769794502866
0.1075345,0.003739550939304532,0.02391436679693617,-0.002435331945934779,-0.05625692735534584,0.0064029354395316665,-0.1811808863788362,-0.010722967074726438,-0.026165256589300752
0.108,0.002051758590187273,0.015394900880673674,0.12564186072280994,-0.05881742100171935,0.004073073557385809,-0.12211449341436743,-0.0003677056553173467,-0.019411231481321914
0.1084655,0.013294441404870865,-9.745189086278873e-05,0.04725322362221798,-0.05921644897383845,-0.0010883169863823788,0.005945148109137211,0.019113727739164504,-0.014790841273525816
0.108931,0.023881545627355453,-0.014118914699394651,-0.017373508240484278,-0.06232241906049966,-0.005279973369315141,0.06845223394846765,0.029963275026144758,-0.014990328077109226
0.1093966,0.037403770167759705,-0.019400785403227212,-0.041597853437153554,-0.06705783287124532,-0.008781526162825905,-0.030335635162681025,0.03054843228127834,-0.018017254027120535
0.1098621,0.04123353459620492,-0.016329184470588943,-0.03999088575399395,-0.06698138093320613,-0.005727487072273535,-0.19590802669799426,0.021919025951927757,-0.02535844744655282
0.1103276,0.04163042189309831,-0.012184995361273987,-0.029815733162940908,-0.06522488918886044,-0.0018800028042253094,-0.29446202423877627,0.018271355108669174,-0.029211736613753085
0.1107931,0.037190174150110306,-0.014848925520001418,-0.01566674074588941,-0.060724480502113994,0.002641962671709002,-0.26526109094953226,0.01121628424960068,-0.030594259934546234
0.1112586,0.0330048293048335,-0.024508287291410944,-0.014957519646913804,-0.0606620971912067,0.0045129803530861955,-0.17014005967744936,0.0071702253781187955,-0.030503641390333014
0.1117241,0.028232540242185952,-0.04851794223830211,-0.03362790898252271,-0.060167551986221104,0.00230399001941922,-0.06608678638551933,0.004129336569816468,-0.02460038035870127
0.1121897,0.021705324153696044,-0.0629740773319159,-0.07960519870735715,-0.056734267290516706,-0.007647748414166659,0.0030854761460476143,0.0028481612338206535,-0.017051842250696034
0.1126552,0.017949282545418638,-0.06745906203724661,-0.1121703804787411,-0.0604420516767597,-0.011713979535391435,0.04012756001413253,0.004387112102591806,-0.010557208405580219
0.1131207,0.012143855895646552,-0.05143219575284695,-0.10236869197032945,-0.055541999669806066,-0.014422860628330089,0.10727067984884242,0.000484991185260376,-0.0040532889840155725
0.1135862,0.012152101439950089,-0.03307228298595032,-0.04631188105921105,-0.05494317195966948,-0.016452715476741753,0.2055963958044557,-0.004806829443123728,0.0004668947437282465
0.1140517,0.011472707246802837,-0.009104353332962346,-0.0339197981652772,-0.05886966995755667,-0.02194296986268591,0.2745780800943143,-0.012634119229936803,-0.002381742025577292
0.1145172,0.010659787336341637,0.006882990853887673,-0.0653525399320031,-0.05602440991149899,-0.024110675571695498,0.245584098058972,-0.015479298557107536,-0.008885101309266907
0.1149828,0.010304094043300089,0.02272951151127287,-0.09296603562656118,-0.05023879028366513,-0.027618851418325666,0.12281253510570452,-0.01655814817954738,-0.015894529030274888
0.1154483,0.01142383719920016,0.035820019171399334,-0.06283243191259831,-0.042403594353011255,-0.029053121276956837,0.02133286250285073,-0.019125989301920724,-0.0237457858172534
0.1159138,0.016802935554831033,0.043543344985739925,-0.025985129073651435,-0.03580585443253907,-0.03759974500163018,-0.027291957963989373,-0.020464823959789484,-0.028125225725514635
0.1163793,0.0198709177096414,0.042752784673726216,0.0023643644739148547,-0.0348225442741035,-0.042569439846693154,-0.06228355603478478,-0.025681265240449114,-0.03559604621134389
0.1168448,0.019687630099698126,0.035030991306527044,0.007298138803622499,-0.033075210697886874,-0.043661009700905626,-0.07467976987939905,-0.0248707203987925,-0.03961478830513187
0.1173103,0.018760240539766604,0.007109401108208489,-0.019499687078231853,-0.03142263874054459,-0.03943645856062238,-0.07952046044982533,-0.021244281889163285,-0.046080681079533205
0.1177759,0.019655129752321723,-0.01212920853489428,-0.046339234014931244,-0.029273221486069676,-0.03705008732714208,-0.08628793815289487,-0.018427153033893365,-0.04781190620210784
0.1182414,0.020532645751257822,-0.023244324055128992,-0.06462068662666616,-0.024008125492453066,-0.03471004466331247,-0.0957943179082247,-0.016525911936009764,-0.04649567577018164
0.1187069,0.019784203070406493,-0.02708525076243675,-0.062179619819216436,-0.018872737746307957,-0.029218988141493304,-0.09441990796070973,-0.01802590389779696,-0.04404507747762848
0.1191724,0.019119292920270543,-0.03208472760684139,-0.010450431042736557,-0.0120200536923995,-0.02561337896875076,-0.07564830460114023,-0.02304699539885977,-0.038881440245017024
0.1196379,0.019458119001358642,-0.044765745014425797,0.08519512326126678,-0.008610256639055786,-0.03207006552389221,-0.04328427491912258,-0.03014201993354838,-0.032530892246244406
0.1201034,0.020118863517414567,-0.06324035783458855,0.14345311827211407,-0.007657344352042779,-0.040579482559500904,-0.006602445530225817,-0.03766195564795722,-0.030252917440499093
0.120569,0.01993341456727913,-0.08285173476863517,0.12372631662445162,-0.010334613862766844,-0.05020746411924273,0.03465159702226592,-0.03707283043824088,-0.02669241589545054
0.1210345,0.02032962568860036,-0.0703161540753989,0.07481933990236868,-0.0025786319227140263,-0.03963654299905647,0.04399058896644335,-0.04159761526541457,-0.023391931922714024
0.1215,0.021192048071598305,-0.027629622402218036,0.012532430696955695,0.0018729327878983751,0.002696815088173798,0.034741790785091695,-0.03237036916804095,-0.023216364925632813
0.1219655,0.021545069941093224,0.02104749927372845,-0.03431462825547954,0.0036651989679245232,0.07597111670864458,0.03302719347777087,-0.016063239496510572,-0.02514307826674959
0.122431,0.022938296320875445,0.041509105070963906,-0.08825869690197836,0.007066208253694955,0.1517913950715219,0.03107327114252663,0.004039662682989626,-0.027701798608160647
0.1228966,0.02201991972609272,0.04053076109078896,-0.15276947049911016,0.0072175,0.1731918067759989,0.04066454567342403,0.024333222748124165,-0.029598614472895454
0.1233621,0.021124200601797764,0.024318505813491174,-0.20395355846132301,0.006603303648741075,0.15008961277059377,0.07100328169631051,0.03211344067796547,-0.03027687840845243
0.1238276,0.018595303387813737,-0.004538615024951498,-0.2559583668289635,0.00755770091687971,0.08659368604221225,0.10830011362118122,0.03150752032688242,-0.03350998983655879
0.1242931,0.01734966795965924,-0.033810862058517153,-0.26716899291832147,0.007713451727415261,0.022132423691347092,0.10378473157613742,0.02403370775795545,-0.03724689612102228
0.1247586,0.01893271869724913,-0.05705976423967268,-0.2343288015553066,0.008989478311191006,-0.049171949341400054,0.05814010523522976,0.015260256012883064,-0.03935504922234669
0.1252241,0.020419050690897722,-0.06256507607044674,-0.16698228019996048,0.007850419290892079,-0.10351139790445615,0.01488966737047214,0.009357597320482016,-0.03511857172045944
0.1256897,0.02441449235809331,-0.05440273519378616,-0.07195371734336273,0.0115816,-0.15988167182652574,-0.005717433997209329,0.010190182834593178,-0.036596926688906954
0.1261552,0.021792507249905384,-0.03810218699886461,-0.019736999534639817,0.011532651812476345,-0.16901766426713066,-0.03456209329657567,0.010102404115961583,-0.034248380812097884
0.1266207,0.020199861927285515,-0.0243381,0.0072175,0.010671715036096806,-0.1541033911879546,-0.06488914029650546,0.011910201482527317,-0.03062480948304819
0.1270862,0.021425396442274994,-0.010455879041290798,0.06655972736545884,0.01112447182110054,-0.08405118372667715,-0.07790832278823212,0.012341706302009394,-0.020340346285164623
0.1275517,0.023130909434888484,0.005248503144962829,0.11141207557739467,0.010686513886364072,0.0025323232513502917,-0.055219077534890415,0.017239529926290267,-0.006036677936116803
0.1280172,0.022693344117877073,0.018489358813408654,0.0774651210984983,0.0112459,0.02331882180047178,-0.0037728910862507865,0.015476764707262456,-0.00013762818779733952
0.1284828,0.02235204485104106,0.022397704920831273,0.021356333668538736,0.013115651075458992,-0.015273244916220391,0.07339059331932674,0.012459856126648934,-0.0012741707308578758
0.1289483,0.021824037210293978,0.013680505021760324,0.019819038797655265,0.016615382994076566,-0.05476752219246207,0.10321552290375356,0.012590417005923435,-0.007485626290703527
0.1294138,0.022075194534212483,0.003632611567416251,0.04565618679184713,0.016958263721825836,-0.08086292279823247,0.028100611996279834,0.01027310309694614,-0.019144655615408106
0.1298793,0.025512406128669958,0.006477746184594246,0.06976999308550198,0.014416561803932098,-0.11582087897688453,-0.08595324770389347,-0.00013909806205022757,-0.026217979771291422
0.1303448,0.026595233134184684,0.020689227489124214,0.09522964921529226,0.0160036803706023,-0.16188404686679564,-0.1934223767123839,-0.01603905301530866,-0.036003772400947515
0.1308103,0.025430050577390905,0.03184919183639586,0.10917981924592711,0.017539883672791717,-0.1753898308758063,-0.2570805950132547,-0.032812829248764115,-0.04313782176961104
0.1312759,0.025034233916017515,0.03519606888423043,0.11996699916690289,0.018922478951168477,-0.17256354972069143,-0.2758675697438042,-0.040912473295290935,-0.04518079007030192
0.1317414,0.02141610539200078,0.03280275132989149,0.13635517579101467,0.019293681083763562,-0.1385788727168075,-0.2640519539628574,-0.040474245947291085,-0.040909154025891875
0.1322069,0.017661764491473487,0.02160593945662202,0.09772278983479159,0.017235175933916633,-0.08010649332837431,-0.20395381988254432,-0.03237309111202631,-0.034307855082604206
0.1326724,0.015061868828402738,-0.0030143686342137053,0.04748474429666461,0.01509767214321561,0.02207187746328963,-0.09131638312540394,-0.0261738791816862,-0.02708992281334156
0.1331379,0.01751241525574587,-0.03367049731259047,0.03906398295264778,0.010887675811603577,0.1722465658528225,0.053924527824082205,-0.02664348049880113,-0.01637079188529833
0.1336034,0.017163202114801514,-0.058845895930965376,0.05641224198016216,0.01446632633751775,0.3565648951161726,0.16129432246875416,-0.018110257462238183,-0.01837077873111909
0.134069,0.021482996676690545,-0.06399909107360152,0.03229680921928288,0.013867424339574271,0.4280457069003028,0.19100446154446377,-0.013806918214720305,-0.022818832864848915
0.1345345,0.014858509716131719,-0.053892598236899326,-0.03311778814952156,0.0073846394328621785,0.34492022557712587,0.09550248310237672,-0.012745063670113278,-0.02924020898966017
0.135,0.019839687623249665,-0.05407097840608472,-0.13598391267849397,0.014637080950101777,0.1643706120546997,-0.05088003746052759,-0.01601342666647481,-0.035808027934370365
0.1354655,0.018795081866050174,-0.04808943617947967,-0.2645087286575522,-0.005697764439278348,-0.014722534206604665,-0.15046941398317887,-0.015757278555041727,-0.036696257624437935
0.135931,0.015515572015835923,-0.054193893903815515,-0.39633970921989536,-0.0809067195907563,-0.13729292370948762,-0.15994411629394367,-0.012077529096108621,-0.037793670384586205
0.1363966,0.015878832017343306,-0.04910875881122893,-0.4646255205040485,-0.12158765606615848,-0.1696196736093178,-0.13330783864568543,-0.004570901102290326,-0.032950684582122795
0.1368621,0.019090737469934685,-0.03189992079259333,-0.47553540709514397,-0.13056993630390665,-0.16167334292420332,-0.06284641252870932,0.004597535320832,-0.02267465656756932
0.1373276,0.0237903752219384,-0.013691724397595771,-0.37569584130362965,-0.10341921350984722,-0.10333839373549543,0.001288542170802218,0.005859550317054857,-0.013270233157377052
0.1377931,0.029544280654554656,0.005814615112137877,-0.15399704277378573,-0.09026040107665366,-0.04520191087883041,0.07092879612557709,0.0023104485511271744,-0.013125557527039073
0.1382586,0.033817659190195054,0.01931042617885597,0.06985364425477195,-0.07639553801208682,-0.026986714650099268,0.0885380859971496,-0.0033612062426851314,-0.01657419501595729
0.1387241,0.030483157981203764,0.04162618395453412,0.20627864576441365,-0.07373522417818097,-0.08907991458877405,0.10264863956375392,-0.004427268265938511,-0.022493654812420907
0.1391897,0.027910089648973426,0.05142475204771791,0.21916655366533147,-0.06406748826376976,-0.14857636485902034,0.11692305887093234,-0.00607902099463819,-0.030718950430104353
0.1396552,0.023239358899905783,0.0527951988133459,0.16776988139869595,-0.05407066839313862,-0.13987917669971736,0.09720463001946103,-0.006507449406672947,-0.03851698576015075
0.1401207,0.017215817464578908,0.03672679142198018,0.10395722748519748,-0.03930179557611363,-0.07891871944668351,0.036233548509356193,-0.011001533486559063,-0.04330633731589178
0.1405862,0.016053142279711653,0.03397879354681581,0.08801829434013746,-0.035138035672284074,-0.0707928554412613,0.006702808603495515,-0.013045126376404788,-0.04537696527528096
0.1410517,0.01406221406599112,0.023372605123000906,0.08206344876545803,-0.02643108397722503,-0.09460008020629136,-0.014014664695816487,-0.019366517047375152,-0.04330366078224879
0.1415172,0.014534633535235257,0.016628354479868938,0.04253909987415129,-0.019365159412331738,-0.09319606555620609,-0.018591534443793918,-0.023123434443793917,-0.04012163232382371
0.1419828,0.0175858181799698,0.011492055122411674,-0.022963533488092627,-0.011373826697618526,-0.01537664135809482,-0.026512000831015185,-0.02093621049333626,-0.03529445447476514
0.1424483,0.023543740274545557,-0.0008175023690433075,-0.053523965170330756,-0.005545028200271279,0.09159093106747235,-0.04885898803004169,-0.013878868723895717,-0.03208293661666463
0.1429138,0.022482360295349432,-0.033475304923625916,-0.0531833854885056,0.0016496351801274227,0.12952723287899806,-0.06555926615709891,-0.0013246002953891524,-0.03204648969166154
0.1433793,0.02125591880604544,-0.06600291097554861,-0.048259750193800334,0.006080511529596635,0.11229902835316724,-0.0675361794773296,0.009204612171760496,-0.03305486716147002
0.1438448,0.019533989107683863,-0.08111945406761377,-0.05641585446158068,0.009886293766248003,0.10163227134779056,-0.07131909376624801,0.01853412139066535,-0.03395775544615807
0.1443103,0.01875395375141958,-0.06756654597245211,-0.07937780081735299,0.014524643588958917,0.09885105934679089,-0.07691854843217658,0.028751074417668547,-0.0325857952948465
0.1447759,0.0186313,-0.028811065000450276,-0.094615557078118,0.020515327640894566,0.0681023576894616,-0.06357016195629955,0.033864312261971355,-0.027596490183403082
0.1452414,0.01771668870760391,-0.0011398622522788252,-0.07871122679410722,0.021380663227662543,-0.009910323488211224,-0.016942013961690518,0.028885125572387396,-0.02216033953407791
0.1457069,0.016934565234974303,0.02248351891034856,-0.056160798436512914,0.021913665463805364,-0.11010534722078481,0.06611644542846667,0.02097707929733329,-0.02037459765476937
0.1461724,0.017966146673923388,0.014467509366182579,-0.029563751368945474,0.026100941229956952,-0.1771348865885211,0.15909708097961128,0.006805755579185173,-0.019550936362037627
0.1466379,0.016929230405246052,0.003715433013589053,0.006184208934468726,0.031964930981426914,-0.12461878397009579,0.17738884513258163,-0.0014220940966424688,-0.01970124601238206
0.1471034,0.019311492977408435,-0.009469220970207491,0.042979723129019404,0.029013253814044,-0.04063044338342106,0.09368047427497447,-0.005110405373056679,-0.019354417355647306
0.147569,0.016757020485970282,-0.029173705084942447,0.10272660464634095,0.03146302527851173,-0.017916669636545826,0.012821553850700279,-0.0007269003848177069,-0.02038212063217078
0.1480345,0.015523356773206777,-0.05393876158872114,0.1541841718946338,0.03249313736255013,0.0019214913634155667,-0.012401383249275135,-0.0015488221649031817,-0.020741493460873013
0.1485,0.01651882831067138,-0.07063150366781529,0.13437789525354815,0.035665908612629485,0.07466729120622277,-0.0004792095748702406,0.0003357,-0.0203098
0.1489655,0.016800217321263553,-0.06496381749943336,0.028317626465176805,0.032343039879332215,0.1683893727054837,0.0051910248132921956,-0.0004730055453139631,-0.022174423531426
0.149431,0.0181033052231334,-0.044841209062907034,-0.0841133107588555,0.03249595108918604,0.16759535686611995,-0.030816116223200712,0.009143719750385642,-0.02672356758928702
0.1498966,0.0186313,-0.005826778498471845,-0.10824095573574317,0.0320762247464939,0.07897514227521818,-0.05476179692632002,0.023679640196057526,-0.026770705961842504
0.1503621,0.0193027,0.033294123483465596,-0.0925787044177167,0.03204462748907707,-0.0026818707002901924,-0.07317421167925944,0.040786899587894776,-0.0249900680559411
0.1508276,0.01946477349620364,0.05293043073291638,-0.0557371129098438,0.03137336128186265,-0.027839607512201908,-0.09069070422912003,0.05130396926708362,-0.02450017349620364
0.1512931,0.0206455,0.055972050743927665,-0.009249370223010261,0.02575410835312676,-0.003263980795813375,-0.09983495955397947,0.04310906122050311,-0.025596764378242855
0.1517586,0.02196863708047152,0.05698589924033419,0.048790433503193086,0.026897324319725333,0.08152917301418534,-0.09054791984577576,0.03242270096619846,-0.026167294213251445
0.1522241,0.022079040954586952,0.049507546296249566,0.08608582174993697,0.024890452841015175,0.19039600223946368,-0.05619490772985077,0.02491503464782493,-0.024313597352348858
0.1526897,0.02160498050476364,0.04147541967605853,0.09116445406683271,0.023649897492819105,0.2226793690901738,-0.013335295041221187,0.02503185406683271,-0.02310444180371498
0.1531552,0.02467904739018966,0.022742475299262075,0.09288875797829574,0.018446199815540243,0.16877219389431347,0.01442985260981034,0.020509926802951786,-0.023937237096570724
0.1536207,0.020519478628272313,-0.0006947773749703555,0.09025593271547444,0.015821332867970956,0.05518590891746414,0.022177809732699245,0.012332937474343872,-0.026416885150685774
0.1540862,0.017679781152729154,-0.029426540631263647,0.07969439437004504,0.017200764506353237,-0.038098370246106336,0.033864013831398435,0.0071363694004811596,-0.02846269167681204
0.1545517,0.016641724501864803,-0.04544286504174429,0.0731691891702037,0.017942309273627433,-0.0784358256850475,0.028821809813339226,0.003280566327847644,-0.029352492385881314
0.1550172,0.016478078467332943,-0.04436469450032087,0.05592571633234071,0.018603203076095295,-0.08701175723401867,-0.0111495895204971,0.0035543600107611787,-0.031374528896649566
0.1554828,0.01864544302930812,-0.034479031575265835,0.030725385759853223,0.018005665792685307,-0.07696167452754614,-0.05106710452186432,0.0066339073079687986,-0.0330663
0.1559483,0.0213169,-0.032059222638041306,-0.003357136721617347,0.017703160542345997,-0.0669127275874071,-0.07335021408357603,0.013102110107814584,-0.03338224538062412
0.1564138,0.021074963233395902,-0.03460110088359418,-0.013913431160525565,0.015318127350385981,-0.07586021942619116,-0.0844856073591905,0.010828591757215322,-0.033306688236915
0.1568793,0.019491703418892354,-0.033497879060585004,0.0009042390464116378,0.012497009174468537,-0.08707148223753693,-0.09003625387386321,0.0033922406125010255,-0.033756031610299275
0.1573448,0.018300807286725156,-0.0235236696088308,0.023442957440177215,0.011850942866726902,-0.08926572465561675,-0.08324128016538218,-0.00434443922906705,-0.03389248255877345
0.1578103,0.01889455896382989,-0.007458676668958368,0.03351330238510808,0.011449920518085056,-0.0834740995721515,-0.0656383359493711,-0.013216804975533365,-0.033156845900437826
0.1582759,0.020921963984777733,0.003031110782209091,0.023732504641198422,0.009514740453998746,-0.05520921532219654,-0.04064915879609513,-0.020849551134996862,-0.03054525510722478
0.1587414,0.018587013721733932,-0.003657658834798207,0.007628719764214186,0.006863213071926129,-0.019549827443467862,-0.03955134995210762,-0.02287351603282299,-0.03093031273476831
0.1592069,0.01835940503750691,-0.022452297093217166,-0.007807383771001119,0.0056103599251715874,-0.012848873621529698,-0.07284329299549858,-0.024749326378470302,-0.03139873882239535
0.1596724,0.02123455718013298,-0.035904609564819216,-0.005301070020543734,0.0058465482704320665,-0.03343650560803512,-0.12252227382069401,-0.025399382704320662,-0.03385030691827174
0.1601379,0.0230259706278927,-0.032077530867820156,0.019257284365747637,0.005062142604668678,-0.04388468626214506,-0.13182785851267811,-0.020552703792794846,-0.03431979150843218
0.1606034,0.025368522289170053,-0.017725770791713117,0.06200699858077149,0.004685862445081296,-0.036474039249336315,-0.1127037850760204,-0.009462000393921343,-0.032974472092209384
0.161069,0.027326743286321866,-0.0019390217449579599,0.08478079206955744,0.0052033,-0.03032977755988453,-0.0877001471893265,0.009456412528604704,-0.030921473145287467
0.1615345,0.02707318963205854,0.0051604050445807756,0.06145393140716569,0.0052033,-0.03514729699088776,-0.07400832538894123,0.021626912403410005,-0.029907258528234157
0.162,0.02639016871025945,0.007031540508001138,-0.002100063474001382,0.0042844356314783345,-0.04188428535774006,-0.04449259304647894,0.025786472792478376,-0.028968551355999836
0.1624655,0.026208855712666183,0.0002484926813958694,-0.05285955648228218,0.005649571116149651,-0.03499283722830134,0.010733882541482019,0.02236882002601422,-0.026882253786208808
0.162931,0.025235341206676504,-0.00807264159357749,-0.08087704852553616,0.005811893261491819,-0.01749722843478579,0.0993001059067829,0.012575381127875887,-0.02649638433710492
0.1633966,0.0236667,-0.01264474354087732,-0.0897998946376418,0.004904371433207286,-0.01272091784207632,0.15424688124752542,0.002141671871734521,-0.023441920068056288
0.1638621,0.0236667,-0.013048930396940306,-0.09222525660034904,0.00274849413302307,-0.01972751906767502,0.12756806020863198,-0.010254542328881606,-0.019399730405653997
0.1643276,0.022256143331728765,-0.009278946725376064,-0.08127594789149337,0.0005070587910966193,-0.029412327287041677,0.03394125772968393,-0.027132758141366908,-0.016516561296967477
0.1647931,0.021010690569397486,0.0035851211231114457,-0.06229123345277758,0.0003849557863505548,-0.027210733452777587,-0.02323241197133338,-0.03689752394266676,-0.015995158526397553
0.1652586,0.020129159980843296,0.014667691569461126,-0.055994318426442535,-0.00037059898654421934,-0.02091381842644254,-0.02474367157765379,-0.03992004315530758,-0.01738051734732398
0.1657241,0.0203367271846591,0.031183184216765754,-0.04824623691446943,-0.00018575323910637506,-0.016326280423765476,-0.020910321531041602,-0.04311934676089363,-0.019764072673744627
0.1661897,0.020748272970737943,0.03831735289611704,-0.03397798129276508,-0.0004601443421583476,-0.017012217312896292,-0.0377853335002388,-0.04284495565784165,-0.02168481039510843
0.1666552,0.02066699773556258,0.042078825456166764,-0.04518723180970865,-0.0019669585867593113,-0.018145064604970028,-0.07206223109704708,-0.04075275797853697,-0.0249151299850416
0.1671207,0.01921639885680086,0.04031530985261138,-0.10499723985056682,-0.005690027000598496,-0.017322145998803006,-0.10241951627956575,-0.03233873527974046,-0.028052375285799788
0.1675862,0.017976976007597043,0.038475921017093344,-0.1291172401406227,-0.007859016986705178,-0.015138418150080305,-0.11251153822039167,-0.024616992777709075,-0.029356523992402957
0.1680517,0.0179599,0.0329020680909852,-0.11048202802834366,-0.008504591206065679,-0.013540091206065679,-0.10239457086118084,-0.018071317587868643,-0.028828314255845512
0.1685172,0.018214269980447145,0.02544728986313002,-0.08302615226003032,-0.007348363791549815,-0.013433139960894293,-0.08491250131599089,-0.02130585412439555,-0.02808033377199696
0.1689828,0.016978639035070128,0.010069694777204872,-0.03869241305698782,-0.0072042131928811495,-0.011415005222795127,-0.06834726060571729,-0.027986640860108526,-0.03008162780312071
0.1694483,0.01775754584505551,-0.007747988461943488,0.004393883380222047,-0.0061799769497252344,-0.010464024752794666,-0.06137726434422563,-0.03639286370914882,-0.0310521
0.1699138,0.018245265373263923,-0.03101281096959686,0.0002902849573522689,-0.0075077849573522695,-0.009708551183570816,-0.03789066291026118,-0.0449402764387219,-0.03179467880586353
0.1703793,0.02116270743715525,-0.05688318141047893,-0.0365838864176657,-0.006721961577479198,-0.013195818941009537,0.02286034402719813,-0.049709839167261176,-0.035658786066177235
0.1708448,0.02055664502368486,-0.06779866324510968,-0.07428555056396058,-0.009593186419732372,-0.02247613597017311,0.08663478916332248,-0.04314315407719661,-0.03448943031549608
0.1713103,0.023108968659568623,-0.07415564582913702,-0.09324846104096522,-0.010705737680771515,-0.027741100723122556,0.07984077861581351,-0.03061348514973308,-0.03998893784889935
0.1717759,0.024467962455546156,-0.06321048591492542,-0.07117702836869419,-0.012041108639493408,-0.021340810553441104,0.012181411362283992,-0.011735373008987263,-0.038561302417641656
0.1722414,0.027031164337412036,-0.04896097622494136,-0.019926858393647377,-0.011400027588079073,-0.008184822731059412,-0.0352048405623534,-0.0027751232530590277,-0.03860161783129398
0.1727069,0.027726040792532398,-0.04087030077323788,0.029892038436358858,-0.010983762403345265,0.0004402031958776634,-0.043768076842711376,-0.006553691215611236,-0.03875801756877753
0.1731724,0.030819658451412053,-0.03945016979340636,0.06452141359647627,-0.013925930206593638,0.00555378505895112,-0.03168108040803069,-0.01734473122667036,-0.03957967675389244
0.1736379,0.025615492215406082,-0.040656573051222264,0.08151809384897078,-0.010944301198331991,0.0011343536322090365,-0.02539962438222747,-0.026002733365153387,-0.04097430633143251
0.1741034,0.022551255915439935,-0.03452801351766821,0.10544857271303627,-0.009922918076217199,-0.011998187006070738,-0.030944511579252567,-0.03359047374002983,-0.04112026788237564
0.174569,0.018603253661267933,-0.0225814864838437,0.14447412480247804,-0.00860691788708931,-0.029427316467759153,-0.04304178454442388,-0.03665410975404905,-0.04079905447177233
0.1750345,0.01584076351149764,-0.011048360381579914,0.17177918165989048,-0.0085603,-0.04732375713569942,-0.04964392560459662,-0.03274783861376843,-0.042021603503455865
0.1755,0.014638036363157969,0.0007825456891687003,0.2132620403303593,-0.009532263636842031,-0.06795928834675864,-0.04208729953745104,-0.02818305757368453,-0.041806212121052656
0.1759655,0.015582017772190362,0.008355096996062652,0.2744050924390985,-0.01022014518146024,-0.08235794881066506,-0.029392341552255417,-0.026072564455619278,-0.04048900963707952
0.176431,0.01693496211796545,0.011599437882034548,0.3053916336086615,-0.011266709976767344,-0.06551563673290503,-0.04098683291861128,-0.022222820439683485,-0.041821255937445526
0.1768966,0.016003858882923983,0.014275301829908896,0.27259075726294657,-0.012003997559821422,-0.02309331300066907,-0.07008291694564678,-0.014969270758707092,-0.046242109150444625
0.1773621,0.014813397299958743,0.012948925599121567,0.19933894429432888,-0.012987870632633678,0.017143489097294237,-0.07821165022851315,-0.0132165396334296,-0.04508880486598076
0.1778276,0.01719993115631619,0.012115676573068496,0.15557496111429914,-0.016687163954020295,0.027634046853863007,-0.061538977127998336,-0.008705338388672856,-0.04222785013663883
0.1782931,0.013941272430210582,0.008514653922102005,0.1495600321463098,-0.012277429619996187,-0.011119403917693595,-0.03309018702062557,-0.015186348128104765,-0.044682102050206764
0.1787586,0.012454166737921981,0.0013013003420255117,0.14242226699444113,-0.012400689318663503,-0.04770882225969525,-0.00901288912667151,-0.02088816639589647,-0.04095461085234925
0.1792241,0.011260415162110363,-0.003408652338496112,0.11090163989275968,-0.014546538912450526,-0.0643893211947898,0.007472298722224815,-0.024379251577740978,-0.03732667127520157
0.1796897,0.011245321896134393,-0.02073834789801842,0.07090445088681874,-0.011408295566930913,-0.046212938762669194,0.05308885266045624,-0.029157008287610964,-0.03367843490812732
0.1801552,0.0108441101403418,-0.026526802777322386,0.014357235461682718,-0.011824804602364904,-0.021557392636980588,0.10390918801794781,-0.02572334237998686,-0.035355347456580616
0.1806207,0.009828579685126853,-0.030042645400892336,-0.07061361984416903,-0.013710661304752311,-0.011388111892239051,0.07406457382994888,-0.02602001436875362,-0.032982885180171964
0.1810862,0.0025177,-0.03524134442087572,-0.21938502391749506,-0.012103258745233008,-0.00927430990326479,-0.002906978821721658,-0.024309661794576744,-0.0361024691118189
0.1815517,0.00035614815514646076,-0.01862898378334371,-0.42699707631332806,-0.014215028225064905,0.0028828776022076616,-0.040565121218961164,-0.022767404770348918,-0.04119681173328754
0.1820172,0.0027136265577444476,-0.005491025459078176,-0.5454740047490915,-0.01725657272680938,0.011381745048198399,-0.02783097475045627,-0.022947494744996858,-0.03673491475318598
0.1824828,0.001985857013584118,0.01119163766072121,-0.5461027530055789,-0.016138746692217276,0.01986090680719501,-0.019597306121732005,-0.015509213231130902,-0.04063001663472841
0.1829483,0.006579978832000911,0.021946159515744683,-0.45767991176765965,-0.02044617601804474,0.014793680737700144,-0.028802131029959502,-0.009661366494807554,-0.03457664351403697
0.1834138,0.007597122596718239,0.017336732556144357,-0.34597031510634996,-0.02151221229099305,0.01096063478330721,-0.03225011698721375,-0.013091101638968781,-0.03605238266648717
0.1838793,0.00842250862634928,0.011114031041098451,-0.21676961053492294,-0.0197366262318965,0.005499442281718706,-0.017199093661019387,-0.02484824419029237,-0.043061806411145806
0.1843448,0.013960229741998774,0.012128244612998159,-0.10256496833421531,-0.01936034293252287,0.0015966057774709935,0.0024215826307342697,-0.032404449815988716,-0.04004832576971501
0.1848103,0.020460518842376752,0.010058961592126573,-0.04324417449477409,-0.017074406521832227,0.0001825320270581334,0.015493191739298005,-0.03474971688296395,-0.042590067029278915
0.1852759,0.025177517599466348,0.004598446651906223,-0.034176211743290906,-0.017120817599466348,-0.0039952492785057725,0.016180924639252886,-0.03274685396654013,-0.03936025099634159
0.1857414,0.026683163912804793,-0.0008972330463424846,-0.05354672466306658,-0.018650644348780828,-0.008316485656708934,0.01834396087195207,-0.0282987947792671,-0.035509041368773246
0.1862069,0.026368315209711946,-0.004675417483456645,-0.07558604009085478,-0.019910039161152217,-0.014298611015473021,0.02149244790288054,-0.023890912935967245,-0.030628933365189664
0.1866724,0.02376764828678383,-0.006604790113667226,-0.07641948993360068,-0.02019241977266555,-0.020003445056833616,0.030154775942537473,-0.0219149329871896,-0.021743505421469238
0.1871379,0.021170003166229703,-0.007318494308114936,-0.05468190659119078,-0.018893551583114853,-0.019924195811352973,0.04617313511139198,-0.020827665911025337,-0.01369279264512327
0.1876034,0.01757023073330358,-0.007344974109484517,-0.034501669872021426,-0.016181145797292868,-0.013472313853339284,0.05986823073330358,-0.016080712642689277,-0.00863365904530715
0.188069,0.01568460005963507,-0.013678029996955067,-0.049433270003044934,-0.017641752955208253,-0.0067260177908845835,0.046147530056590134,-0.006571381200100185,-0.009955758865624756
0.1885345,0.013387142670734244,-0.019148712048810922,-0.11336768042583177,-0.01911023150513465,-0.008717984497538658,-0.0007993292385000276,-0.005776438451716992,-0.012929944819524367
0.189,0.012431218017516246,-0.03253679243703629,-0.18187597387738627,-0.01835780810509748,-0.012014675451830322,-0.05548261881694928,-0.0032077344605884453,-0.020541808096956802
0.1894655,0.012253,-0.040654504256694694,-0.16513351560324693,-0.02136291147172751,-0.021906568106427445,-0.10726599104988246,-0.0031499415241621966,-0.0209812
0.189931,0.012631437737805624,-0.045317526692621186,-0.10671402726192998,-0.021433945637404344,-0.03377064780563678,-0.11879278895481557,-0.0026536391849685858,-0.022108105935388516
0.1903966,0.012650194068924257,-0.0467436227373907,-0.040950458142313705,-0.017213420856125858,-0.03280542386614961,-0.11220605018812649,0.0020544252821897264,-0.016521824242402575
0.1908621,0.015546834376921285,-0.04824580156538193,-0.017950985151863028,-0.012046477324953389,-0.010311901565381927,-0.09612123409802822,0.00492865049604868,-0.014368698155725008
0.1913276,0.01724575223395365,-0.04914080049745405,-0.02133573365119331,-0.010495286596278075,0.024745516876721125,-0.08213238489023886,0.006691975284621306,-0.017448141206073884
0.1917931,0.014902850130254873,-0.04529217539387937,-0.02564552432373303,-0.008524924323733031,0.0651699435197179,-0.07144128917972849,0.0018986309342699957,-0.014867848647466061
0.1922586,0.01195760506243767,-0.0414479015499453,-0.025129821942313897,-0.008748694876440366,0.06656975725201165,-0.06537970946195963,-0.0036082772521524704,-0.013506186693738107
0.1927241,0.010675204222143153,-0.03444905932616282,-0.02095500427580765,-0.007335380758865574,0.030598519241134426,-0.06343296141040217,-0.0001760573492524916,-0.013835640192357395
0.1931897,0.013351255542569582,-0.02807526538012024,-0.015532193151405032,-0.0078110931514050325,-0.002902314944778445,-0.0466276372985504,0.013246763888866548,-0.014585073166018668
0.1936552,0.01443925449328053,-0.026188751959335753,-0.014773029052325628,-0.006864787094767438,-0.002385547640049299,-0.03202061861882839,0.04529206134651176,-0.014430748040664248
0.1941207,0.014590601710983359,-0.02622931710983358,-0.021525967249806884,-0.0062104,0.01601583987407315,-0.01704618041621784,0.06319061086066388,-0.014242603421966718
0.1945862,0.014334322001960878,-0.02245833398163231,-0.027157944003921755,-0.0063446440039217535,0.026352389990195617,-0.0008730409688866105,0.04946588842365612,-0.013528677998039123
0.1950517,0.014896120379618178,-0.017709159240763644,-0.02829003668331272,-0.00762966331668728,0.022965677795524813,0.00759579188476967,0.026416020695976972,-0.013183524418924874
0.1955172,0.016896648042619762,-0.012555843712838077,-0.031304177936070356,-0.009497512989345059,0.010108586595633727,0.006063804982337213,0.008373934638253491,-0.014746841518209874
0.1959828,0.017358007145720448,-0.006621928030607232,-0.03929565888998798,-0.011869462930797629,-0.010036591918380714,-0.008306748915494013,0.0006298800510120536,-0.01479958194388674
0.1964483,0.016790460194928518,0.0005035,-0.047296752812781846,-0.012227025631188562,-0.03652719747524575,-0.02954696212927234,-0.0028988551454200147,-0.014685002332638171
0.1969138,0.017313723993157646,0.00594196398175373,-0.04927623076707839,-0.012597107997719216,-0.061567685413275244,-0.04176086800912313,0.001255134680408609,-0.013914684004561566
0.1973793,0.018429273165700918,0.00869397316570092,-0.046605594304750766,-0.0129244,-0.07317186911239877,-0.03947143011819325,0.011645402411355062,-0.013237821139049847
0.1978448,0.020030347549501722,0.010295047549501725,-0.047939822957918106,-0.0129244,-0.07103710326733104,-0.027730217970320686,0.020451311522259482,-0.01297097540841638
0.1983103,0.02321206970410248,0.012348119937337615,-0.05333246136458203,-0.013569370170572755,-0.06260246893131549,-0.0069768611168650515,0.032952696836261904,-0.013569370170572755
0.1987759,0.025772940430671548,0.012573466740508545,-0.05094938375600306,-0.01542725532300366,-0.05586200636948719,0.0003522694438382037,0.04683258144151035,-0.0135958
0.1992414,0.026688,0.016197835525559385,-0.0402173725266502,-0.01858809881612787,-0.050059452677903286,0.014752367207843082,0.06094986717084362,-0.013295726717084363
0.1997069,0.026688,0.021510454975883497,-0.035141989960258656,-0.019339261774827622,-0.04559761954066825,0.042879699143835874,0.06357667721853452,-0.0135958
0.2001724,0.026688,0.025366397519362864,-0.03221676212101421,-0.0161481041320155,-0.03961423856864747,0.05803761873068956,0.05958773016501937,-0.0135958
0.2006379,0.02742282298022463,0.024226713706551377,-0.023918881216461078,-0.004675768343388005,-0.0286774579219665,0.0474486904120568,0.053503698254965856,-0.014072284784606894
0.2011034,0.02971792813157632,0.01999410241987129,-0.010854225245225476,0.006452860329244016,-0.003807779094730561,0.01913897546803549,0.045568049996888134,-0.013719507226306885
0.201569,0.02788598557579433,0.015216374230317731,-0.004364719346588169,0.016191884521149637,0.04274892787897165,-0.0009629363261501302,0.042069643092186054,-0.012982325769682269
0.2020345,0.0252427840570588,0.013967039868494983,-0.00972980356665944,0.018800381387635207,0.0686692016985874,0.0006481393239927536,0.04236748847301194,-0.014772186325806617
0.2025,0.02482063088734076,0.013990232354936303,-0.02214368522729572,0.021402987491520708,0.0274221544367038,0.017735635961093493,0.04789372568792468,-0.014208467645063698
0.2029655,0.02528116725211735,0.012033752697416421,-0.03532015087817603,0.021103457507057846,-0.0610239349322053,0.020919550909620197,0.049323404935418085,-0.012524667252117353
0.203431,0.025041077422671407,0.008939229072056857,-0.03906567092794315,0.02010040969068562,-0.10542574737087126,0.016131022770857643,0.052252603195957356,-0.01137220969068562
0.2038966,0.024044426125245315,0.0028328959393398574,-0.0354162,0.017414578375735942,-0.08356162036240403,0.01643374313914514,0.0517918542808207,-0.010637539187867973
0.2043621,0.02349290245664709,-0.003464453413777871,-0.032637753684970634,0.015142574855490303,-0.03554120598819472,0.014511646450625746,0.04395869933188861,-0.01073640245664709
0.2048276,0.020892548979279547,-0.01305455192802752,-0.0404677224571725,0.011322281398882543,-0.00821330158778737,0.0048487099624305,0.032128946937838646,-0.01239445034024015
0.2052931,0.018195379372211853,-0.017886053221629786,-0.05169133416511655,0.009582331673375988,-0.01226618613907151,-0.005428231403719593,0.02404798922767765,-0.013436804005462696
0.2057586,0.0172885,-0.021662266358360497,-0.06701878884704804,0.012131297086321574,-0.030944923674994636,-0.02265150363752627,0.014542981611297984,-0.01350498934880978
0.2062241,0.017465827936233316,-0.02683230850667327,-0.0790429364429066,0.018696367192456407,-0.04350968338375645,-0.02719370002784052,0.007100446940849865,-0.012498812953040036
0.2066897,0.018814270361778074,-0.032576963848687523,-0.08543347787464474,0.024977742355176826,-0.04505844334825686,-0.012497977829331553,0.00309868303341979,-0.009323642987021392
0.2071552,0.021177559800321658,-0.035796865012569214,-0.08625374962578174,0.03982704313299597,-0.03881006098681104,0.02099572993108959,-0.003427949469875382,-0.003035829931089589
0.2076207,0.02196205465032006,-0.03299881195796587,-0.07923897835445984,0.052690522762411075,-0.028197781011785595,0.04154329562707721,-0.004486907971977248,0.0018106818695841126
0.2080862,0.01978160360239486,-0.02783995626782996,-0.06754801974044963,0.0638374065704499,-0.01563727126811319,0.0194602196968136,-0.0007755911103709788,-0.0015003196968136014
0.2085517,0.017104555254867,-0.017653618958146808,-0.05053463894695421,0.0757,-0.005187255254867,-0.03032721270977142,0.0013414647339404047,-0.014289940199084295
0.2090172,0.01633361206846441,-0.010353902971038175,-0.04039715552854448,0.07488865665684327,-0.003999964742894049,-0.05368511218538774,-0.0025935957794395057,-0.031085293163471535
0.2094828,0.01867141272425748,-0.009577428181064369,-0.03298607455148504,0.062211688341579856,-0.006871771818935631,-0.058629783477355785,-0.006974559928034197,-0.04385883941169941
0.2099483,0.02101649792213974,-0.010331231408572387,-0.028619414085723875,0.038814312785919604,-0.006129525959240618,-0.08210523159917658,-0.012318090394947712,-0.04601021427632807
0.2104138,0.02118893752338069,-0.007115371326986623,-0.02794901787087318,0.0015559247831000676,-0.0017698179423099928,-0.1285348783242828,-0.022297721219831403,-0.043213782057690005
0.2108793,0.02266950800400829,-0.005633127513801749,-0.034867479389544674,-0.021195662630782514,-0.004166475987975121,-0.14474374277107277,-0.03305522281115569,-0.0326723241122322
0.2113448,0.02213803908345138,-0.004212531900753822,-0.04345666809924618,-0.03689702885293505,-0.009758935151737825,-0.11639673037684442,-0.04492392086777259,-0.025149143178024688
0.2118103,0.02202152234243766,-0.0004770328210711493,-0.05030321779607941,-0.03764668135971938,-0.0157761612091228,-0.0468405961197565,-0.04965180654905264,-0.013163780856280725
0.2122759,0.0223239,0.007003028435698468,-0.05113270303474665,-0.022857179431649964,-0.017535321845309038,-0.007605362899771349,-0.04699076417673035,-0.009302220527231155
0.2127414,0.0223239,0.016173813773935713,-0.04926984457792438,-0.010820609045199228,-0.01954143113804844,-0.010757820359790402,-0.04011276054303806,-0.009875394610870981
0.2132069,0.021450197097231328,0.027302053515762075,-0.04502996026809853,-0.0009606417416612033,-0.02150754358146925,0.03457265848373632,-0.02577872907455139,-0.012735490624082574
0.2136724,0.0226596,0.03320343502726381,-0.04158352101962216,0.0060419746946466825,-0.029334504242088916,0.13182063611775038,-0.010612352540895717,-0.0142672
0.2141379,0.0226596,0.030926692307264633,-0.03916443949165163,0.009883935646673898,-0.04043362500208492,0.15174205014180042,-0.0071972384608969455,-0.0142672
0.2146034,0.022619494732612436,0.019893887293028194,-0.035390677775054426,0.0034521465730674803,-0.051039227785192744,0.1038768238071895,-0.002869807687657041,-0.017936017726286575
0.215069,0.02012788711067079,0.005207227327727806,-0.03282202591116822,-0.01278922479711157,-0.0479967781022625,0.04673754935797511,0.027766354787965415,-0.024635955902022066
0.2155345,0.021516027886045137,-0.005451025944924083,-0.029071088804878163,-0.035477424004196186,-0.04605826770141847,-0.013997206782585443,0.08202341969302608,-0.03429675113414479
0.216,0.020952069928770405,-0.007124125458501865,-0.023055091843175276,-0.014472679358746843,-0.033679526820994315,-0.08813899506654287,0.0829759842653363,-0.037299644149539145
0.2164655,0.019605362516193412,-0.013628837483806588,-0.020546387548580236,0.061206812895701054,-0.004588806737746026,-0.15233841048314548,0.03426709165163004,-0.03701541003886419
0.216931,0.017931131084357173,-0.0152743,-0.015581231084357171,0.07396127751456552,0.026387718154809597,-0.15657274188624654,-0.015074708502576606,-0.03298574703620008
0.2173966,0.016481994170843114,-0.015447786632217568,-0.013763433260521622,0.012667045930028662,0.04717855597335652,-0.11586138501970718,-0.04192147276007627,-0.02786772451926181
0.2178621,0.015671671437723775,-0.01697195639839491,-0.019182850032033218,-0.03477708654111907,0.06017528030289024,-0.022026112348324803,-0.04843916066984691,-0.024108287523542334
0.2183276,0.019239206338171663,-0.01633835503671244,-0.022601237388268754,-0.030792505901075608,0.07920081143949619,0.11546460095368703,-0.04343331239318322,-0.02009772885956291
0.2187931,0.01789973045732467,-0.015731809803171654,-0.02990888765097131,0.015739138757011523,0.06572438615292399,0.19864788103946002,-0.0225149111793205,-0.019864898824854343
0.2192586,0.020512344099108244,-0.007510157236529506,-0.0317011763638539,0.08226937721387273,0.04324023369357199,0.12632331482116937,-0.02584040133563775,-0.01892858335757395
0.2197241,0.016645023467178256,-0.0030732403805869605,-0.03887858831922119,0.11895137147130384,0.006292776980666378,-0.010092934038058696,-0.03059883809529888,-0.02056312301933362
0.2201897,0.0193027,0.0011320664164975853,-0.04560704117954281,0.13239174711124835,0.016499405820612913,-0.06411615299984427,-0.0175362756246451,-0.013424455457795989
0.2206552,0.0193027,0.0001511929801544023,-0.046852942203899094,0.12480935916068428,0.035647960158414656,-0.03554165842697832,0.004471585499628799,-0.011099861258973592
0.2211207,0.02053926593977077,-0.0029102395475901145,-0.04660043406022923,0.10791695214504604,0.05056031815610011,-0.02365182575286539,0.037659349224274566,-0.009775133816894115
0.2215862,0.02004840347259404,-0.005876034373326832,-0.047091296527405964,0.08118920511667972,0.03958785838493517,-0.05217863743724371,0.05310280500455248,-0.011526500649163465
0.2220517,0.019553360396770286,-0.007922878870364893,-0.04828874712014732,0.03404239248308239,0.004306119558617789,-0.10508683212468188,0.04538497991701829,-0.012345837696117858
0.2225172,0.01855036383456854,-0.00923369379079962,-0.04613902530626133,-0.019538281734306308,-0.01850391348449792,-0.09458767422832734,0.02021328591886473,-0.01118040464996975
0.2229828,0.016756285455449833,-0.006327052730211962,-0.041767978170739524,-0.06054853454952426,-0.0162814,-0.011999156366349503,-0.005250360002487044,-0.008583874818585814
0.2234483,0.017153010790173905,0.0023781800907535923,-0.03887532074479711,-0.09026041246127531,-0.005171946884681172,0.06629242866119361,-0.017942163062613304,-0.014410249398662004
0.2239138,0.019211417813028445,0.010727635626056883,-0.03663678381264535,-0.10542056081733531,-0.001992950687817065,0.0767235588714066,-0.01866721368612605,-0.028894245255495794
0.2243793,0.020478747222629615,0.013262294445259228,-0.036003081356000576,-0.11505218882661583,-0.002753348333577768,0.06810571888611862,-0.015372157221163004,-0.04207447111534798
0.2248448,0.02111871751516015,0.008547645248404779,-0.035761992156814554,-0.13020192556688684,-0.003326711500763955,0.06886485803184822,-0.013992070984075896,-0.05611348322140954
0.2253103,0.021816306972536188,0.001595115722967603,-0.034602585751628556,-0.13739393831418786,-0.009292838348949044,0.05262950177789522,-0.020792634862680952,-0.061956120882847396
0.2257759,0.020962891873572403,-0.00506283566640026,-0.032175202482868856,-0.13939731854588186,-0.02539709751713114,-0.01357117964907031,-0.03507718538755015,-0.06322458716739829
0.2262414,0.020054797441194438,-0.007178769294333239,-0.030729310235222254,-0.13150669744119442,-0.03865695296016831,-0.05532569390105733,-0.05008925821872822,-0.05187346820971017
0.2267069,0.0206455,-0.009727833698751095,-0.029339221350267623,-0.12561259099821587,-0.041689009035248595,-0.056850351769248283,-0.06719863598266158,-0.039356296653300676
0.2271724,0.02058946626986797,-0.013594795238415627,-0.028590634920528123,-0.13204136626986798,-0.03010233133630819,-0.03821637101842069,-0.06278760308226643,-0.02968479145467498
0.2276379,0.02143189443374236,-0.01847271755974756,-0.026832023577918022,-0.1454532439207944,-0.011562964880504878,-0.013117141467508128,-0.02303116230514833,-0.01588872959608848
0.2281034,0.022369805080350063,-0.0212178644577429,-0.02511567459824969,-0.14440640186634762,-0.0073121219284014785,-0.006330779399060058,-0.002965198133652403,-0.010606040642800492
0.228569,0.022555391674045796,-0.02137902889092428,-0.023927240217642257,-0.1340553679138429,-0.014110875869414645,-0.019376312521441622,-0.015166059870314443,-0.013210994239406486
0.2290345,0.02236612318144787,-0.018314292721418227,-0.025645398010944516,-0.11993448940061122,-0.03582093509544457,-0.06861347086852929,-0.0357613463349937,-0.027448554959278015
0.2295,0.02398346748976067,-0.021903100884067456,-0.02935975267406859,-0.1124185480270785,-0.0557525102867012,-0.14535529611907816,-0.017231001175641407,-0.04247606472890471
0.2299655,0.025485533224698945,-0.025967758306174735,-0.0326146803476093,-0.11399716677530106,-0.05674818306174736,-0.1930503349611275,0.006891130510560887,-0.054514542019728426
0.230431,0.02428797328845439,-0.025129521104994577,-0.033178670148586796,-0.11476864219740977,-0.05408010684618244,-0.17293028171466235,0.005742597873710655,-0.0557875060662614
0.2308966,0.023688548663684427,-0.020575922240774695,-0.034373372717364716,-0.10917452879213917,-0.06401023741683601,-0.11394657291980731,-0.005876670297655721,-0.05309305461575012
0.2313621,0.02297334781863296,-0.01220907432878599,-0.03585103946302879,-0.09573397708948339,-0.07593996728119587,-0.04591065134242802,-0.018029495516490454,-0.04262527325530946
0.2318276,0.02207065401248854,-0.008512860510831643,-0.03831395978107215,-0.06942019642069484,-0.08637659122175281,-0.010133201710262503,-0.008920622571807875,-0.03135469113112721
0.2322931,0.022381248295888938,-0.005503562858996842,-0.03989498737864741,-0.05320497884558074,-0.06207299392696796,0.007062857605179837,0.012961770787802565,-0.027639685350910468
0.2327586,0.022377117934049034,-0.00405209514484545,-0.03944750143021564,-0.04105730893884776,-0.00881280035755391,-0.0022951937428065715,0.04737941435850993,-0.034278497675899584
0.2332241,0.023769288014017138,-0.0026139529791100813,-0.03782506398205556,-0.028900454935638163,0.03582345998991017,-0.043133721190578726,0.06419237896759973,-0.04208090105257993
0.2336897,0.02355417119733756,-0.0021006322190184647,-0.03602347825277971,-0.018922365760532488,0.036046738576507135,-0.07846105349101537,0.047409548276940404,-0.04690158067504072
0.2341552,0.022038817402931236,-0.003148116622383739,-0.035993861942093086,-0.013944997432039079,0.014985779045075854,-0.10871972902010803,0.008957787590858753,-0.05231675840151715
0.2346207,0.02044398473342994,-0.009502118906231483,-0.037772689501840484,-0.01916646754229499,0.0022798788437626,-0.11040942260293522,-0.05341323781246296,-0.04792336368567288
0.2350862,0.0206455,-0.020975724459358126,-0.040638346747913334,-0.026294868915422084,-0.006303377114447895,-0.08995588481261502,-0.10858549289882978,-0.03753637566168833
0.2355517,0.020673595652471448,-0.02430933043269987,-0.04257048687425771,-0.025512330269808262,-0.022565704520685095,-0.07387544356186379,-0.12637645217376425,-0.035115617473270834
0.2360172,0.021961377528861424,-0.018751594854096214,-0.041240279319154964,-0.022326372358650166,-0.044293246507593864,-0.07539076201512288,-0.12432641376895519,-0.035055506884477595
0.2364828,0.02463623537587683,-0.012222660434209985,-0.040578087453445,-0.023855505152975697,-0.05664803857954294,-0.07835043047941831,-0.11960811153712336,-0.03356767715908589
0.2369483,0.02805085287023152,-0.008442227392724017,-0.042163481903087836,-0.028489628895314204,-0.05347732233478502,-0.05103356317910853,-0.10838872671019997,-0.027226244669570035
0.2374138,0.029437442762357366,-0.00040259513690778107,-0.042702157928512674,-0.037364515591552044,-0.04033347103574366,0.012431832747733598,-0.0862938523515844,-0.016589906899050513
0.2378793,0.03319936618828331,0.0012188977250374852,-0.04477633492141542,-0.047350850674715714,-0.029051793800603676,0.04672113207652675,-0.07514200056992615,-0.017022269003018394
0.2383448,0.030770464046655968,0.005891397239378966,-0.045165582685713905,-0.06001241552466572,-0.02947732751011236,0.06310569213996789,-0.05726395031161061,-0.021339531440128408
0.2388103,0.028185191094313305,0.006104258997084207,-0.03990573988970495,-0.07071834137159598,-0.03289261001889753,0.07370104359801767,-0.02444677179795872,-0.029423679034879274
0.2392759,0.026913693951438968,0.007342029129417027,-0.04054062291453143,-0.07025768757022881,-0.025181777251793137,0.024917185255881942,0.045986107993572,-0.03878663765864949
0.2397414,0.02696322193863978,0.00895389421388133,-0.042966563848395534,-0.06595953230504223,-0.017416399366823557,-0.08037779294752843,0.1162423056780971,-0.04409453272965202
0.2402069,0.027058363222702525,0.0109102,-0.04305641914702745,-0.09837480053756842,-0.01889704793216779,-0.1750998526085195,0.1372386596516193,-0.04678368236972997
0.2406724,0.027988295066735037,0.0109102,-0.04088657817761825,-0.13030236817843047,-0.026026433065496186,-0.1985029988436231,0.1130605240443615,-0.04554377324435329
0.2411379,0.03030340511005661,0.00878510986088148,-0.03738531067461665,-0.1255838345821821,-0.029024260762264702,-0.15918937755121648,0.08248068267652035,-0.04001647755121649
0.2416034,0.03165932989267136,0.0013318023651807595,-0.03708022946203991,-0.07024311354842958,-0.024420507265246263,-0.0806212513979061,0.07227749089142789,-0.030198227236986546
0.242069,0.03137286512005455,-0.004643911599590863,-0.037183974480900106,-0.023591909313105706,-0.019642132607767124,-0.016262730287848953,0.05609508608049096,-0.019060341887439814
0.2425345,0.030878791224829862,0.010201002601586956,-0.03894650877517014,-0.018902043510068058,-0.006662574265175323,0.026770456194589072,0.030112756897726363,-0.01893858032630696
0.243,0.028303312595230733,0.03264574798525505,-0.03827962909240896,-0.028874399622738346,-0.00470128488790304,0.08144707141060659,-7.126324034955348e-06,-0.029023571284852702
0.2434655,0.02779590550000682,0.05052566047698156,-0.040827656699995905,-0.02607721454867259,-0.019970580525660975,0.10256931889999864,-0.013575671650002046,-0.04313081805003479
0.243931,0.02684490158113642,0.04753468973270524,-0.04098837400405584,-0.02312886132336921,-0.029821153542089147,0.04036230079056821,0.0012082897327052402,-0.04927971648828201
0.2443966,0.024791161984779757,0.03852430314520713,-0.044095149129057536,-0.0381956895878238,-0.024857160029511133,-0.010614358351295225,0.03660177966392502,-0.04863064235036587
0.2448621,0.02409214856528689,0.022223262975595983,-0.04544922000781668,-0.046154094056624725,-0.0253452,0.01235363702440402,0.06671101017684218,-0.039031545715402384
0.2453276,0.020720624189193716,0.01257698991222414,-0.04658339312834129,-0.03778252219592671,-0.02065601715203878,-0.04277106678038435,0.08364175486483771,-0.04039071772985142
0.2457931,0.017547288909509892,0.002597944934995872,-0.0495065590248644,-0.0342081634224478,-0.0050297868302418445,-0.18100316854146573,0.07827586858183722,-0.04012970566476871
0.2462586,0.009905364415981622,-0.0027129464799927456,-0.05063401400006166,-0.018402910959922632,0.022017956480178912,-0.24755256352019342,0.06866475244826524,-0.03225331427200193
0.2467241,0.0026670211796158056,-0.006145140147451975,-0.05470814525086522,0.012129261499832919,0.05020257115966104,-0.15629789945300165,0.06568747864761906,-0.01819431386442293
0.2471897,-0.0046863318095398294,-0.007208551095238205,-0.05065516280393741,0.03837036394678254,0.06799009106443042,-0.019629451095238205,0.057840261156889165,-0.01573756536134175
0.2476552,-0.011478783266726248,-0.011755901570842482,-0.05153686779739724,0.05606092333864538,0.05269253115157079,0.04209879450574433,0.0532467732916529,-0.02060979161456613
0.2481207,-0.010542519045075804,-0.014605918116912728,-0.04910399398482943,0.04958274664882592,0.013633698225118276,0.04580251557508288,0.04756551896697918,-0.02049076037093045
0.2485862,-0.01347258770482716,-0.021533690607736057,-0.05431543422506437,0.028879189128024986,-0.02183574938137184,0.01127288717814339,0.021644088601341215,-0.02019714899680258
0.2490517,-0.015299356272778656,-0.02441514716062985,-0.05451213399321719,-0.002563178581565901,-0.019234632396148945,-0.035450035561059655,-0.016331216063825572,-0.035547697188446845
0.2495172,-0.01614203293287372,-0.03347365888350094,-0.05434194939931058,-0.034245391350577095,0.004179053296288645,0.018946205856996013,-0.04427657218854101,-0.059930482701154184
0.2499828,-0.013229618011538444,-0.04647036415682388,-0.05439428598866631,-0.061573453341470095,0.018532506100874566,0.12315929718505574,-0.05070028147521709,-0.06858112601194795
0.2504483,-0.012476396395902123,-0.05859518265233678,-0.05213103176405474,-0.0782478017893065,0.021288975450512233,0.1326017664275251,-0.05469122815358564,-0.07718363355973246
0.2509138,-0.011516823511816796,-0.05927926632664617,-0.049120712204580065,-0.04595150514005397,0.012659615002476548,0.03340069269418486,-0.05697926082258503,-0.09471093571639685
0.2513793,-0.00837403403388982,-0.06326014659380327,-0.04209310743727881,0.0024415030209651843,0.016271662666400795,-0.06096443579104558,-0.06050994372004328,-0.11201127978983305
0.2518448,-0.00480914110914968,-0.06903766500249829,-0.03803444737758178,0.022588858245059077,0.02147381047401738,-0.08921075991444596,-0.05518293348489895,-0.11082179760493019
0.2523103,-0.0034798254722247716,-0.08177105187368244,-0.036470441376882476,0.005657671642154613,0.021175555737496913,-0.06642314560408046,-0.0514970942962474,-0.09551865966880002
0.2527759,-0.00044304381978416206,-0.09890320830327301,-0.03432771550826902,-0.011801035450856687,0.01921433894265108,-0.04530021862290344,-0.040242423811542034,-0.07249267810670938
0.2532414,0.002573281714315237,-0.09848802342837215,-0.03223510464096368,-0.011248109714108577,0.01630330006954249,-0.04720507657162785,-0.027597831999948336,-0.060698872641015346
0.2537069,0.003752422147335839,-0.0905288255054831,-0.028845119802062853,-0.004173267115984969,0.01320810033889681,-0.05516427449451691,-0.02553433624216228,-0.059372383559900564
0.2541724,0.0043058215552923135,-0.08053499844613869,-0.025391468296323338,-0.01098555948156923,0.013618051925338737,-0.06500904703636873,-0.030079262073723086,-0.060165359481569224
0.2546379,0.005706728274792858,-0.06544157374803013,-0.02142211952413623,-0.04263038843753723,0.021483810432615033,-0.08023061102272144,-0.02450655862603571,-0.05891517172520714
0.2551034,0.011207634212258975,-0.04595039235895281,-0.020616797373339605,-0.08118043105217328,0.033963865447271084,-0.08841609718038425,-0.0010079864807873043,-0.05116314719804636
0.255569,0.01260746559529884,-0.027564024191532973,-0.016607717202350582,-0.09594482741551877,0.05958710837653763,-0.0860319209774295,0.002778945995342269,-0.05435515022957882
0.2560345,0.01799397563180359,-0.007978933850575734,-0.010856794596562238,-0.11455750077073525,0.09339950187415447,-0.05904167375764912,-0.017530783461105426,-0.05739048401281504
0.2565,0.02163971221752106,-0.0009166515081542504,-0.006959245097298757,-0.16177456538843718,0.11279670193318177,-0.03817894418389358,-0.03268116362497699,-0.05914743529189627
0.2569655,0.024181870937670553,0.00161315482152603,-0.005359529062329447,-0.19914164330598136,0.11505279236973504,-0.022604270628991445,-0.03068836446457809,-0.05713883883855478
0.257431,0.025894511849962512,0.0024871712982491956,-0.003555337793146722,-0.18347434770578352,0.09733741634011416,0.009475589078737726,-0.034241245557172374,-0.048935713379440166
0.2578966,0.029183342940299214,-0.0012853987102595772,-0.0009909556839358391,-0.15240593561686952,0.06337739774136843,0.05504893629312758,-0.057218639950772913,-0.02837070849575775
0.2583621,0.033363702155726996,-0.008876942441342139,0.0019806251152648395,-0.1292771094308206,0.06618542374022368,0.07865933007410872,-0.07052084597211028,-0.0052892331710442785
0.2588276,0.035250989352149105,-0.017112740232331357,0.001297941217377511,-0.07807802400535381,0.09825063540092899,0.10574592353071006,-0.05982729325921656,0.005486281449708869
0.2592931,0.04068816093239668,-0.02217504435477815,0.008115437025636349,-0.019569276856475692,0.1184741724664138,0.08957447580421493,-0.05704975860140498,0.009221776093239669
0.2597586,0.041289150159560244,-0.019291900957361458,0.013224886901649087,0.05003969405317243,0.09709191727564961,0.0855964513929884,-0.059572101276481944,0.010949012779230424
0.2602241,0.03983620235923019,-0.010294425775447402,0.01830814052771234,0.09382198753412745,0.05695568676326295,0.16283543091575892,-0.04564797901585078,0.008180961584699368
0.2606897,0.03786534156962334,-0.0012769829698371484,0.022235116884954685,0.11936162507865443,0.016471332618917416,0.24365989758377327,-0.017513474679331967,0.0011749
0.2611552,0.0344765040666483,0.006524805071264468,0.01621630838240348,0.11724360451667841,-0.00370230474169346,0.15309990167966134,-0.004583499148123428,-0.0020360983444304955
0.2616207,0.036940375428205385,0.016357218570872727,0.027922555712618185,0.12172685049653502,-0.01625418021932559,-0.05287435728229562,-0.03257710557595892,0.026662806425884852
0.2620862,0.0376447892256416,0.01776477775521237,0.02760549414153984,0.12352568069119753,0.003782499222650092,-0.16900911473418453,-0.09388030723709165,0.05365542680589537
0.2625517,0.0339058843082421,0.01784410085624266,0.028086781999537208,0.12825151065071214,0.044536081999537215,-0.15255031383806059,-0.14286136563235236,0.06990663677796084
0.2630172,0.04115863642273298,0.010918097244215186,0.028597577953721486,0.14917638761035298,0.06697193894665068,-0.08452725821437507,-0.1431913310826103,0.0703012291185722
0.2634828,0.042550742958648295,0.011505835577518952,0.03144675210198759,0.16779974536943074,0.03716214269206706,-0.019022305792552267,-0.11311897312560623,0.054813140430066624
0.2639483,0.043128040491750515,0.015200231288657214,0.0343504631895186,0.1703299656443286,-0.009001934355989323,0.007230395706685682,-0.07149776932527979,0.04368903190275318
0.2644138,0.03977877827061123,0.018778849310828544,0.036827851244531314,0.14804581754341734,-0.0198804217166531,-0.024055164051975254,-0.02971234345877754,0.04077826962366738
0.2648793,0.03549892842553145,0.01972832953916445,0.0387732,0.1369483433605142,0.010642494127904766,-0.06987403393594288,-0.011273994910736744,0.043652859078328894
0.2653448,0.034266925084442665,0.016169090971148062,0.0387732,0.13913864401775503,0.03350363490202858,-0.10218088707302707,-0.021404053893257294,0.03653438194229612
0.2658103,0.04218300398645796,0.007334843584326483,0.0387732,0.14577181887591187,0.05165887668978121,-0.11155868273434605,-0.04517262059220085,0.022506955991549314
0.2662759,0.057224111475175705,0.002392883794075756,0.037567045948518944,0.13832253717824336,0.05699155471879451,-0.0890044911823398,-0.0267918020258484,0.016594758079269807
0.2667414,0.07416249899491181,-0.005636857578815242,0.037115437928650075,0.11454057332759789,0.05670194310702488,-0.08194155689297512,0.054140098037167586,0.01923723386095331
0.2672069,0.08264724076933967,-0.014996910192334916,0.04081571362315269,0.08126613861778609,0.051268145607507636,-0.07972218073043294,0.09895400512596252,0.024454720384669833
0.2676724,0.08483524121439341,-0.01643244080538481,0.04726213959941299,0.03334754292196963,0.039387993887666235,-0.008256141418897713,0.07090790559141666,0.02174490891397329
0.2681379,0.07399328002247789,-0.0017493355321426462,0.05199613062797246,-0.010858648213623099,0.03393961262126684,0.12231729340357206,-0.0015351571417088908,0.020325048123302672
0.2686034,0.06437204294554592,0.010714993731341979,0.059163379206286754,-0.024602697803313128,0.016987471208471962,0.22513316707368064,-0.06715073135472724,0.030316905722345588
0.269069,0.04577066814651698,0.0185430624335864,0.06794919306064907,-0.02577229717730034,-0.06201679347864378,0.23233722023860826,-0.10036078126375249,0.033354320865012076
0.2695345,0.018803178435972345,0.03279890750499873,0.07107960087868931,-0.027312113655823887,-0.14026153697723018,0.18123481036863212,-0.10939249696072705,0.02511258813769435
0.27,-0.005113501970458414,0.044023593912147475,0.06878002000270657,-0.0427664707976303,-0.17675407958950673,0.13128085609437862,-0.11459843020795318,0.01584259283867963
0.2704655,-0.016364848541687675,0.045727177340845415,0.0710002,-0.08550685774796356,-0.1791077144320793,0.0811679618449183,-0.11368979510059678,0.013755577014445212
0.270931,-0.030723302093254492,0.04184463481651161,0.06770047084174434,-0.13430331062371106,-0.16215362279977288,-0.024707187718350957,-0.08476463572791292,0.007381948953372754
0.2713966,-0.036544060739276026,0.03249062487436496,0.06215892916512907,-0.13479220510158987,-0.1325632937603774,-0.06224091569908886,-0.013371774949665786,-0.014194299255650453
0.2718621,-0.03722094787587198,0.022044916023800695,0.057685018795651265,-0.09851403424599996,-0.10150748117049804,0.029891442332170854,0.04571144438202832,-0.04634070565839153
0.2723276,-0.03061072665397324,0.013777467954489376,0.05820429618050176,-0.0494320887813019,-0.10327130739919986,0.11802921700731428,0.06451755649599465,-0.09154867417330355
0.2727931,-0.020958252920553855,-0.0002922130890130451,0.05460505051445802,-0.011149397999082877,-0.13795475251537515,0.09021696160255394,0.039650138454361016,-0.12868619916002474
0.2732586,-0.018592771648937998,-0.015510090226064909,0.04998116106715482,0.015932318828676306,-0.17671396987034665,0.04627279940713621,0.012908738339981395,-0.15902770583887288
0.2737241,-0.022487147225439975,-0.021198808204913117,0.0478554297791451,0.03203349281361803,-0.18108359281361805,0.051756468700601216,0.019342297377230505,-0.17383008414000595
0.2741897,-0.03297537671196165,-0.01052779131677499,0.044408576112644316,0.04028920483535051,-0.17744054632410622,0.003613329209626679,0.036750358259273815,-0.19144991796915278
0.2746552,-0.043350921063402804,0.022223341995063095,0.04225226620893613,0.023721595915575634,-0.1889281406218715,-0.08434910917310386,0.04193792322421198,-0.20048226954089343
0.2751207,-0.04458226444661281,0.043896203383944433,0.04102084946160653,0.01436290199999028,-0.20690675176876402,-0.1400089260600429,0.04082961146955555,-0.21636750889938544
0.2755862,-0.015458326713477546,0.04163647830687229,0.04117850143438567,0.025023350358596416,-0.20962587758967946,-0.1603045211166103,0.0324747107578925,-0.25163597524963593
0.2760517,0.04783711413284932,0.013706174199633124,0.0398156346055029,0.0429871491743351,-0.18711652026763984,-0.11822760592977678,0.016206230776016493,-0.27536559715059616
0.2765172,0.11055686859296154,-0.01637549692808027,0.03611780151937101,0.04133654255296643,-0.1576384608404742,-0.06281667059974198,5.971372939473458e-05,-0.24801769454367975
0.2769828,0.16883864047048375,-0.05516490625442504,0.02917483366994381,0.014828217503086218,-0.15225464277852394,-0.0064224111419816515,-0.022043438763479407,-0.13306027460414407
0.2774483,0.18038498504558084,-0.07315372791243337,0.021569405068518312,0.00015643251132168228,-0.140297454891047,0.04144008975371627,-0.021456430149093576,0.0475765477059961
0.2779138,0.1583966744433523,-0.10240121227046661,0.01253491815533539,-0.024637107631203775,-0.11534034636193496,0.07510513757674983,-0.011180740289292786,0.21705543378590123
0.2783793,0.12847778103419447,-0.1245675936912567,0.00570600599602867,-0.059860295814233994,-0.09793611590468433,0.11328953780539736,0.002350704884608604,0.29010869528866756
0.2788448,0.09956323173614245,-0.1369721094299077,-0.0013222015175393849,-0.12105963053896346,-0.0956008631476135,0.09925409704011169,0.009151353717705792,0.2855612441249863
0.2793103,0.06385682841528242,-0.12652041267048947,-0.009590824035732779,-0.1831644034837933,-0.08239650827283274,-0.0671045947609082,0.005244520961429311,0.23109405150093754
0.2797759,0.03393699153146677,-0.10791190715817504,-0.017109105861124574,-0.19989639994380218,-0.07255110450344038,-0.21447109739702724,0.005877131201654601,0.17701299858168207
0.2802414,0.008676276706111711,-0.08817908789530661,-0.022098986141671228,-0.17868790488946049,-0.06223829647338884,-0.20064275991119276,0.02258165235405478,0.11093072671505372
0.2807069,0.000551308126890657,-0.07408843137764692,-0.030158092299542114,-0.13503045629980107,-0.06834641990796046,-0.1141575380975717,0.03815647658724299,0.0758093560227509
0.2811724,-0.00014796947951589297,-0.05610351759557018,-0.03430993262734225,-0.06929083859101268,-0.09033467192338122,-0.07428373646192431,0.036003993743782804,0.049025536450809204
0.2816379,0.012548114288975381,-0.03620740200569916,-0.037197672076679754,0.0035495664879591805,-0.11265950304689896,-0.11420126745245854,0.019190780658426505,0.03478437913497703
0.2821034,0.04474011750172992,-0.019370370727078822,-0.04104840130514056,0.058988026637713784,-0.10784510238650727,-0.12633793996274573,0.004054987557487223,0.033789989086401614
0.282569,0.08868626439377116,-0.0025321970567679227,-0.042282363891018734,0.08683226617362871,-0.09484319689889825,-0.07449945961154676,-0.011731907523447712,0.01383190422033719
0.2830345,0.10606499930275189,0.0034505904580946862,-0.042139956982116956,0.08426817800995214,-0.09797708243228073,-0.0421635861813107,-0.022273073995957567,-0.01764927315534001
0.2835,0.09693002498066317,0.0044862984860204146,-0.043851099232558075,0.06312834392631225,-0.10851747501933684,-0.022895231067937907,-0.034572571991377664,-0.0473412401769021
0.2839655,0.058298751402460894,0.0030557424632482026,-0.04674402529224079,0.027805808760995625,-0.0982387715355027,0.025806323939610274,-0.04905911246790333,-0.05387755482604048
0.284431,0.003998935561268757,-0.008784620211668478,-0.05301250800513143,0.007812135006414287,-0.07189938711567818,0.11691067991126182,-0.05611854973113386,-0.052718970012828575
0.2848966,-0.034093055698536205,-0.022636229952662318,-0.056475431931070526,0.012140789913838155,-0.054007699461088736,0.15298271817703152,-0.051645649308177125,-0.06137627982767631
0.2853621,-0.056656858460232884,-0.036198801940222985,-0.05946352969419529,0.027388625806465575,-0.04613705744816759,0.07614628896036635,-0.03703814745891115,-0.08253298519485615
0.2858276,-0.05558959895767552,-0.050623013421623585,-0.06230359895767552,0.023757023105424848,-0.029960126718671962,-0.06901750396398597,-0.018078809333062412,-0.09374113699140287
0.2862931,-0.0458780097944256,-0.07624880975482118,-0.06576983718055492,-0.006127582939386766,0.004885320713509261,-0.14188786216340044,0.002154392733812364,-0.08660683174081531
0.2867586,-0.05574566433730383,-0.1299712892968798,-0.07137615128733499,-0.059571985287901544,0.035838837317991895,-0.0798129562156875,0.03810259290141777,-0.07485149433572603
0.2872241,-0.08678228756201245,-0.1449611229523989,-0.07351005010044259,-0.11556693539172613,0.05450256041396875,-0.0218776718768487,0.06674989026115075,-0.07582139712795519
0.2876897,-0.1021090970973686,-0.13512962549763366,-0.07419485533081462,-0.1242852274858354,0.060003130681010146,-0.04338296442815672,0.07230948470794721,-0.08532083919093263
0.2881552,-0.14188598492241614,-0.1009342504647863,-0.07631432013595965,-0.12650358853024263,0.06277511525124277,-0.06113728530408231,0.07404099235349508,-0.12209168564398143
0.2886207,-0.16461274250009653,-0.06956200458015914,-0.07751605008558345,-0.11012885900256737,0.04749072384462345,-0.026452417833967855,0.06403067311221058,-0.1685331704148873
0.2890862,-0.19005310181934448,-0.03031630180794031,-0.07795208327168969,-0.07603135454053529,0.04288609963013813,0.040907490896121106,0.0514252247226036,-0.24507318963369323
0.2895517,-0.20825881721060058,-0.00024091648050930453,-0.07908626427805163,-0.03856127240140563,0.0368396328101268,0.022457670755260225,0.04559912280682609,-0.27363681724778355
0.2900172,-0.20719850123403072,0.02084528425846677,-0.0753708322885725,-0.005335337890916409,-0.006796695979420956,-0.05289938688577165,0.048834917164054636,-0.24224987902615305
0.2904828,-0.19698816866839733,0.03282239847596899,-0.07621670963770694,0.016322706828218268,-0.04599032307830314,-0.04265144561282721,0.05648488210899354,-0.16869440097545974
0.2909483,-0.17564351873678788,0.03372504346853059,-0.0731862267853269,0.015566777826140422,-0.06937267813429682,0.0858198599987282,0.05129020656813118,-0.06700600908287786
0.2914138,-0.15216058090497073,0.031755273138522756,-0.08016612431834662,0.0008686613903520991,-0.11449808126461875,0.21927771138852264,0.041527305283258674,0.030069306584794658
0.2918793,-0.12004966507435211,0.058659043138212096,-0.08460611432101119,-0.021564744520169505,-0.11676038836372338,0.21300200414587223,0.039802234169852006,0.10250120476012563
0.2923448,-0.05657036838781587,0.1138373160244778,-0.07444779008497614,-0.021186270491576054,-0.039650872169604175,0.05958455831964714,0.0414445014651621,0.09951919978713397
0.2928103,-0.01683080208800357,0.16767704486179433,-0.06998527276683351,-0.00012008359395246273,0.02359600060201503,-0.07424853181229725,0.0560415743173389,0.058798498514011456
0.2932759,-0.009312467674386392,0.16914010268819518,-0.06780504984742142,0.024847052192994584,0.023320801641020083,-0.10849722784822546,0.06384600741680632,0.03952648717983627
0.2937414,-0.03638992272388591,0.1350512963686001,-0.06455480939521467,0.034140580605457306,-0.0055560244569365915,-0.08832216111399518,0.06938885804686991,0.07293069866592541
0.2942069,-0.06744558003705059,0.09677589341014585,-0.05925226860169328,0.026229074340569085,-0.004491314314087457,-0.10255077242141564,0.06495915607435114,0.09747174953211653
0.2946724,-0.07895825789996193,0.0748749998159513,-0.055160261955743806,0.019508301340289008,0.03271142550881317,-0.08874371412961045,0.05354186753586339,0.09200477047189888
0.2951379,-0.07671580269225295,0.05351433355146536,-0.04667335976934406,0.011301556794281142,0.06240071712924514,0.03362638376357283,0.03283752640367175,0.07167077118688528
0.2956034,-0.06377661364504035,0.0587498647484308,-0.04018346792358234,-0.02091656425174923,0.05994653274646257,0.16968739059792376,0.011867000248340785,0.055136578194587324
0.296069,-0.05409415628922832,0.0800642110334167,-0.03785412376534907,-0.055635342861513844,0.026654770659970742,0.17636008663199115,-0.0032552288574285077,0.04838175644270405
0.2965345,-0.02290300758760582,0.11001424169945727,-0.03638524293330766,-0.08476548182393395,-0.024863616601085464,0.0795728324585575,-0.0164401311893104,0.03269412475724161
0.297,0.011904787455693563,0.13857058581776305,-0.03312748448912552,-0.11752076364826267,-0.059978892321455306,-0.03709970342964614,-0.025851661393468926,-0.001346117101923714
0.2974655,0.03223376857178497,0.16475332043108926,-0.0361431038608775,-0.16239721951145986,-0.03825424330909986,-0.13536349957469737,-0.02910471751199699,0.0
0.297931,0.013915919627292935,0.17253436364261607,-0.03962165622953177,-0.17043829371588629,0.005064016642051964,-0.1551915663426151,-0.02809690157102843,0.0
0.2983966,-0.06668290661144462,0.1756806864404725,-0.042421196148755794,-0.1332033287955288,-0.02315405607624212,-0.09896086950115429,-0.01880535903846546,0.0
0.2988621,-0.16540808263212034,0.16392753042049957,-0.04059209955875341,-0.08337434280861898,-0.10525791371712044,-0.048747619026278326,0.005591717035058862,0.0032717101770691607
0.2993276,-0.21875027130692815,0.11144087578409669,-0.03923384294905174,-0.06195182256279326,-0.1870815130550471,-0.00589058945668313,0.030608442060447213,0.0018275667997752416
0.2997931,-0.2196590851297164,0.04741157704839032,-0.034965248702836155,-0.06809415958058211,-0.20685492165604427,0.03574421691467782,0.04672672165604427,0.0
0.3002586,-0.23754434519544665,-0.0027796587749220475,-0.02764609639832302,-0.08002444242100219,-0.15050823484895653,0.06400895805174531,0.05278383881932521,0.0
0.3007241,-0.31110909246491353,-0.03153131255960376,-0.021794102524674144,-0.0652459802901629,-0.05462238583383782,0.06853016548859901,0.05189012098797495,0.0
0.3011897,-0.3829809607850439,-0.0629148147501517,-0.020178423202492683,-0.021619309025544632,0.04433145490840463,0.03580581488412001,0.04160814842554732,0.0
0.3016552,-0.3899396634991699,-0.10118750693673853,-0.019018639416805025,0.005345491250587496,0.11710754197809338,-0.025952412592088962,0.02218185638583199,0.0
0.3021207,-0.3149479805713715,-0.14084599633215222,-0.01744881691081,0.017173381624329995,0.16012411603918023,-0.12070373340971845,0.003705976165396007,0.0
0.3025862,-0.15417204837901913,-0.17192966676244606,-0.016478047500732926,0.014448562889031782,0.14793406971706966,-0.18738734077989844,0.01229214123121618,0.0029888509147518666
0.3030517,0.01969524458460459,-0.1915942880604116,-0.014549588312214165,0.0009861843898825867,0.08423689050743093,-0.15870218344002834,0.026720749989073568,0.0007054429148458227
0.3035172,0.11302389701868507,-0.18545205143804877,-0.018728963014875772,-0.02833955567127519,-0.005204372623033635,-0.039962298471117264,0.02331396365025791,0.0
0.3039828,0.1491816220845402,-0.1489651866446612,-0.022443352781700728,-0.03236389341083253,-0.059965718878458384,0.036855284906855044,0.010372515338509802,0.0
0.3044483,0.15389704366500678,-0.08259192424516694,-0.02852039636741367,0.01137999851695467,-0.049713574476205766,0.00827457232666476,0.0013332801180825052,0.0002016014830453278
0.3049138,0.09132894010355297,-0.011940165953222176,-0.03309623493910956,0.07152884015667099,-0.023326566291781623,-0.06836921402156036,0.005894108527112782,-0.0005304385872203604
0.3053793,-0.038912014651631945,0.03091338442524518,-0.03884480436450059,0.10717292305778088,0.01361922616202148,-0.10645902368271935,0.03855721713093406,-0.0005482959521846959
0.3058448,-0.14525644554294462,0.0488337196969921,-0.03997274824820601,0.09489686193229634,0.094235848790696,-0.08641032634308964,0.06833784573889225,-0.0032019221083320385
0.3063103,-0.16217439431426525,0.04385465734067671,-0.0363804248402139,0.06310089351793453,0.19056732653615205,-0.03873069920366929,0.07613668686056982,0.0
0.3067759,-0.12744524199344426,0.012240177389721163,-0.030967818583916597,0.02260056942933418,0.2460020695844297,0.012529661060610507,0.06036457256411009,0.0
0.3072414,-0.10776497751881971,-0.01812370469240824,-0.030124375088587264,0.015290809552873126,0.19160017351000408,0.005219817434422981,0.04799406796594658,0.0
0.3077069,-0.10423467996445322,-0.05868103618246194,-0.032003963602485815,-0.004752986888626671,0.06988290585308155,-0.039722853462086725,0.033039666880329145,-0.0006805178933629537
0.3081724,-0.11311215870986126,-0.09406728096450782,-0.0323219565682004,-0.046712229226789394,-0.018794605356373166,-0.08692685764125187,0.01755205763680979,0.0
0.3086379,-0.11298648577273557,-0.11190744884548409,-0.03181941451944408,-0.0597783224944538,-0.031483679812660516,-0.09835965182552163,0.005491048466658027,0.0
0.3091034,-0.09990423994568583,-0.10548201854747231,-0.0323949,-0.031433983869012486,0.004520242402860404,-0.07048521566263335,-0.011506488101175279,0.0
0.309569,-0.09784650713353904,-0.06923218265826775,-0.03220733408469399,0.011321564944974155,0.030995618697524357,0.03192278877155506,-0.030519245399079818,-0.00014706908979994306
0.3100345,-0.12533025988764762,-0.03686129277900117,-0.032783159759750734,0.023069371785734833,-0.026883540640664703,0.18836865346747966,-0.03886304076856159,-0.0014453855647628077
0.3105,-0.16567395276891314,-0.052666807610812647,-0.03420400188086256,0.011415732085224624,-0.14073783780937504,0.323521941291614,-0.04949710940431281,0.08640746058344892
0.3109655,-0.17216797865953898,-0.1015223257772499,-0.03509735768334422,-0.010132451958887068,-0.17877376888261973,0.28263312051736156,-0.054081952477901804,0.1272995320207218
0.311431,-0.14848757707868016,-0.1474266954340953,-0.034482640147182386,-0.03176835064745241,-0.14179362169997087,0.10297674082837262,-0.05427918432619088,0.13135028104303065
0.3118966,-0.10655631678565472,-0.1678577888966498,-0.028295013271019822,-0.03334138840718453,-0.06458617029296235,-0.08538314927500104,-0.051092986221117055,0.09388132484543743
0.3123621,-0.048604622784783905,-0.148545692028624,-0.03527195448077266,-0.005522221926135649,-0.00023228838132934287,-0.1433332872519852,-0.05590016688069092,0.08552010362023445
0.3128276,-0.0042471885714835175,-0.13859362434370523,-0.04396161127730744,0.03155215135459206,0.051964302734385626,-0.10740980606895177,-0.05021962431010321,0.09873971995463729
0.3132931,0.02664659365497823,-0.13217926015816386,-0.051292279779361766,0.050926189093565735,0.09463956383306756,-0.06997087045456614,-0.038569012630249096,0.09167078583731506
0.3137586,0.047799783133636864,-0.090534546623573,-0.06269163234253676,0.05599190515764006,0.1855565396840125,-0.0332365871026464,-0.022794928967029143,0.05037893571153753
0.3142241,0.043390319261371976,-0.03235556836904863,-0.06760813610692337,0.04246118200097582,0.235208864106658,-0.026356663840723455,-0.01535488857988223,-0.007501402734108301
0.3146897,0.03440792483556352,0.026339150773783133,-0.06908029663502713,0.030042735289037982,0.2672367076521433,-0.0501876642930404,-0.012277133145452755,-0.07021347045934441
0.3151552,0.03542840138218479,0.04744948897264151,-0.06609106577698783,0.024710942729162612,0.26074093635514367,-0.06598818859766815,-0.011881866468080225,-0.08985813497295889
0.3156207,0.050103944318147776,0.09447959016756026,-0.06839929860714415,0.03176434788420944,0.2022293674666401,-0.06248249080950137,-0.016250072702375343,-0.09425159286787667
