Time,Rectus Femoris right,Rectus Femoris left,Hamstrings right,Hamstrings left,TibilaisÂ Anterior right,TibilaisÂ Anterior left,Gastrocnemius right,Gastrocnemius left
0.0,0.010013930626774062,-0.00908428573056188,-0.0133865183970489,-0.01640642450763519,-0.010155855090729811,-0.016979983673285494,0.06095648367328549,0.003295050963119033
0.0004655,0.011217082994195693,-0.009774882441791012,-0.016787119475829986,-0.015732454157048128,-0.008207309796517416,-0.017585280641374858,0.1764628933431178,0.011464907527281885
0.000931,0.01107576477512977,-0.010747798194442054,-0.019202868137189768,-0.024126134708996532,-0.004420469160056211,-0.016722202597130403,0.17116213470899655,-0.020690267879252915
0.0013966,0.01128179276067027,-0.01196585791463783,-0.02115876648496191,-0.03911628660057888,-0.004097494908156754,-0.015010385521340543,0.07526300429497296,-0.022476444232848652
0.0018621,0.012960095459164498,-0.011960382754406971,-0.021273813893043298,-0.04984363913817535,-0.007140653717255372,-0.0118385184338788,0.0014430762958744163,0.0017768410124978447
0.0023276,0.011937231900480112,-0.01290446809951989,-0.02032973190048011,-0.04627809140288066,-0.012907831404912602,-0.008008491402880666,-0.024873663967970017,0.005765074547359391
0.0027931,0.010084476260365858,-0.012253,-0.018828200366920757,-0.03405435035670687,-0.021212674116768783,-0.007341010604344269,-0.045633520862195555,-0.0082246
0.0032586,0.010565886012490117,-0.011766627975019766,-0.02241003987509883,-0.027376556501565952,-0.026059669937549417,-0.01567898337353288,-0.05856647773574627,-0.01665155595003953
0.0037241,0.01043381484674091,-0.012446080778133096,-0.025825355442030302,-0.02149730932403963,-0.027435082355901037,-0.024522123937423767,-0.05797107088030582,-0.018071851891795693
0.0041897,0.009963003331087744,-0.012886292738175438,-0.027923743570947374,-0.01947144023985963,-0.0221333750424595,-0.024994980638740193,-0.040966993950282374,-0.018083267621614007
0.0046552,0.010160001099020984,-0.012285892969056699,-0.0259946713539622,-0.022245104365128526,-0.017766736199245695,-0.018857356769811005,-0.0223348643230189,-0.02194315292694707
0.0051207,0.013215233193839234,-0.01058758559491567,-0.02033223228931794,-0.024640151009141867,-0.019054414195843184,-0.008927780097482655,-0.01483391078562488,-0.022726900209241147
0.0055862,0.011191533998296768,-0.010081484251206457,-0.015918516999148386,-0.02367282350655609,-0.016828781750496777,-0.004191659622112279,-0.024700983000851617,-0.026860269752767753
0.0060517,0.009234866064920811,-0.010520174868143928,-0.016000025131856072,-0.02628190114919848,-0.007841028695156248,-0.004095511088710013,-0.043047767822983425,-0.03063179242741521
0.0065172,0.00926512721087975,-0.008425163265278493,-0.017792763945601257,-0.029441882312962013,0.0021862936310727997,-0.008142464842735772,-0.05825084941347783,-0.03274874647537502
0.0069828,0.008403738565589994,-0.005773049500197689,-0.019747153380685768,-0.02527429800079076,0.005407757868161046,-0.010394833000131793,-0.07817932018424527,-0.0331124227508896
0.0074483,0.007822202163736618,-0.004479474576238995,-0.02290746525420912,-0.013789862711880502,0.0039285749548309944,-0.010169358474507865,-0.10361474213843044,-0.028418925423761007
0.0079138,0.005677756024285434,-0.005411434036428152,-0.02730121204857087,-0.004126821987857282,-0.005392965542794299,-0.008525610993928642,-0.1296238353308863,-0.028748079066784945
0.0083793,0.007067170116404442,-0.007250601806500793,-0.029510691133101678,-0.0032864689653007238,-0.015450095073801802,-0.008343766503402855,-0.146144657308806,-0.03206582036130016
0.0088448,0.009064871231009134,-0.009088703912293543,-0.028461830725137638,-0.01132148296788976,-0.01842871865938319,-0.009472069274862362,-0.1491474731871559,-0.035489740505871496
0.0093103,0.011439868072550638,-0.008524866724942057,-0.026549727142823748,-0.024752540611239875,-0.013753758009986223,-0.010562210948025131,-0.11962925563325608,-0.03758696569582049
0.0097759,0.013369073660993422,-0.007884569264701921,-0.02507048812870377,-0.032133292685761636,-0.011398533653244936,-0.010692140326849517,-0.07159972008425744,-0.04105333804953644
0.0102414,0.01544976866982186,-0.007662874452324611,-0.024381967167455467,-0.027328059428660657,-0.013654904507099186,-0.011136238615047285,-0.04845298519585221,-0.04710834034437651
0.0107069,0.016854261416099414,-0.008629661416099416,-0.025086923855895966,-0.01899668232896595,-0.01591417879475914,-0.01067446318320282,-0.058791773493448926,-0.050681422679969945
0.0111724,0.017898609823587264,-0.008243140598755761,-0.024757232694400923,-0.012850237604976958,-0.014827356407465436,-0.009720358558993385,-0.0879354940124424,-0.04840943330192106
0.0116379,0.018568892048310384,-0.0088460766129341,-0.02436306169353295,-0.011059970161197696,-0.011209740322395394,-0.00910133882244218,-0.09324803577456359,-0.037048621483161306
0.0121034,0.02070444886441255,-0.009560031254758508,-0.022014089510825827,-0.010179850038068053,-0.01035669992386389,-0.007125391782000733,-0.04267448969334394,-0.014481055206519032
0.012569,0.01951939439214181,-0.009070827770305974,-0.018208140906989693,-0.008785521121571637,-0.014170676662183584,-0.0023729197854180533,0.022567977542274777,-0.009759899575971199
0.0130345,0.018252629733152254,-0.008932591216644031,-0.014837503383084346,-0.007662973649932094,-0.024137700750722132,-0.001022156083220157,0.03647349630932818,-0.021702707209303358
0.0135,0.016258414984161956,-0.00967973215417003,-0.013637867336558926,-0.010708520707497981,-0.03812608147834814,-0.004281657750801712,-0.010594892090817858,-0.04152905151002422
0.0139655,0.017090344960237692,-0.010156273023857385,-0.012109862944332767,-0.0162814,-0.048324003553519734,-0.0056984618568556855,-0.07077967657851952,-0.0661186615669096
0.014431,0.01839793283710401,-0.009371720297737595,-0.013940485971945613,-0.0162814,-0.04976238916915629,-0.010405778213574433,-0.08464010807330251,-0.07396411092594028
0.0148966,0.018106833835416378,-0.008971506465833449,-0.01822417263041707,-0.005990525553267664,-0.046855427190287575,-0.01829967909625052,-0.06241087564291534,-0.06744021262160077
0.0153621,0.01666848202428737,-0.009546847190285052,-0.02023786516599768,0.0033587183727256144,-0.03937608346510729,-0.020888712356282733,-0.0557944573117219,-0.05694028724670428
0.0158276,0.017046970751470367,-0.010773041481255163,-0.020231386119623433,0.00922854357876871,-0.022082470751470365,-0.01778100252569049,-0.10321151789384354,-0.04831555326411818
0.0162931,0.01593604044810521,-0.008834328651447359,-0.020008424417121713,0.008116269964615118,0.00022865916062005337,-0.014045183145210492,-0.1516877484429687,-0.03238256573028947
0.0167586,0.015213433010163053,-0.009509665020758904,-0.01943944316437949,0.0037797942651838657,0.016474184667438167,-0.01310967803833771,-0.10858169326561666,-0.010024829906178579
0.0172241,0.012801970748083933,-0.010590511476781894,-0.020940589772938178,0.0003794017817221602,0.021611376551373584,-0.013989262797806901,0.018336202901644824,-0.00356769241498819
0.0176897,0.011541429598396321,-0.0109102,-0.023468774138977997,-0.0008972769211068323,0.017422385273896134,-0.010554418679559672,0.14246899787342754,-0.014912547252817612
0.0181552,0.010252947020838225,-0.009832390173392266,-0.025822328079076598,-6.88045575769454e-05,0.019387556847445957,-0.00845088492652256,0.1948960331494372,-0.02937732738978384
0.0186207,0.010392050599727351,-0.009224991052551458,-0.026934698268212383,0.0009045890983899108,0.020265860524256666,-0.010822329773587947,0.1606699644987163,-0.03148464464965766
0.0190862,0.009966356141804116,-0.00875140837992243,-0.028520131288312236,0.0009426077584748329,0.01459129504545348,-0.015382743715058177,0.07852248652239334,-0.034545986522393345
0.0195517,0.011349245247263816,-0.008164143218822034,-0.02791023054485888,0.0035420242078773026,0.0038344967654100857,-0.021338635774841012,0.010311964291258111,-0.041518912673963154
0.0200172,0.01346603711853888,-0.008190277146910186,-0.02914086855926944,0.005401708587640747,-0.005210828530898133,-0.023925176136613834,-0.009395785734550934,-0.041936560416248554
0.0204828,0.01604188987439929,-0.006187317091797685,-0.03205823543960249,0.005801593033803027,-0.010023337342999109,-0.024241910125600712,0.0020617626570008903,-0.03428789809660338
0.0209483,0.018885688280153412,-0.00432731348711627,-0.035489673025767464,0.005127275535307063,-0.011141009210306984,-0.022790713487116268,0.005895727630920951,-0.04371954958607428
0.0214138,0.021951252641156747,-0.0031302030188713804,-0.035316087924514475,0.002181175876379763,-0.011740609056614141,-0.021968522466118343,-0.02556227013476941,-0.06333642517518191
0.0218793,0.018611036276653052,-0.004457143291594087,-0.03528428592109164,0.004355717929830832,-0.010614192249128766,-0.024240294702024507,-0.06435733664461815,-0.07015727993621224
0.0223448,0.01739897242969704,-0.006008076579851791,-0.03489334135929598,0.004723800853772926,-0.012215568271859196,-0.024005956659801684,-0.05440127308743679,-0.0669718
0.0228103,0.017021627216101586,-0.008143252402729471,-0.03325404394632302,0.003309349583927319,-0.016738235489916556,-0.021210503650947513,-0.0027461177449582775,-0.06514543595687894
0.0232759,0.019437414611677854,-0.007989935958758392,-0.02962402185468974,0.00046548526266805817,-0.01657798870110734,-0.020276121347080536,0.0448032917417697,-0.05672817065099021
0.0237414,0.021194740517454694,-0.008011059482545303,-0.028235396254679256,-0.002133342790273537,-0.016068863108622607,-0.018083053345162275,0.06626772406366982,-0.03248085527744437
0.0242069,0.01957402748908503,-0.010818723273962938,-0.027257666019738877,-0.003951976726037063,-0.01417402976513903,-0.01495892816134157,0.0501869,-0.0027718010075271733
0.0246724,0.02047699835767014,-0.011645105039313302,-0.026223384994383814,-0.003452911131842678,-0.014834906681643162,-0.013079939977535256,0.004730902807869655,-0.003305754983151442
0.0251379,0.0223239,-0.012307453460514688,-0.02687808502478451,-0.006772806585469608,-0.016753995218806668,-0.015119965268375685,-0.035869613170939216,-0.042556582634187844
0.0256034,0.02234341148982183,-0.012330998863623918,-0.028426575958817316,-0.011659085033839976,-0.02038779886362392,-0.017693718901878337,-0.0375278985795299,-0.07502756056651627
0.026069,0.023971692626615314,-0.01334293378274581,-0.029573593234944164,-0.01672779879497055,-0.02131965704213945,-0.01699279571079293,-0.015840685927349343,-0.06922313190359765
0.0265345,0.023894843602968688,-0.014006468152231534,-0.03652978099650166,-0.014515989384077178,-0.02328970196544046,-0.017266772346019293,-0.0380464022283473,-0.024543434076115766
0.027,0.021222481831609727,-0.014424563613983789,-0.044799968326227894,-0.007783981880845393,-0.01746683638601621,-0.018862099635089093,-0.09475087333388599,0.02093910957219521
0.0274655,0.01842836940902193,-0.015379391772934214,-0.04910973881804386,-0.0033846776360877133,-0.009304675785208548,-0.022604144727824575,-0.12902349513229378,0.042112679486966884
0.027931,0.018478268977345395,-0.01605999148558601,-0.04810248439024102,-0.0028462255432419653,-0.008212089204483528,-0.024271482610999862,-0.1097157061781373,0.039803572480653526
0.0283966,0.019360366951397156,-0.01642036938732155,-0.04480609170445393,-0.0030501306126784517,-0.011515012439853398,-0.024654577682867614,-0.07553661316739485,0.02654176669809712
0.0288621,0.02041070866407501,-0.015970927166018754,-0.044710964157649496,-0.003373437003887486,-0.015870018501943743,-0.024186737003887487,-0.07380522479391782,0.006443212209969665
0.0293276,0.021624081990614146,-0.01611029194368488,-0.04543006398122829,-0.002080960187717069,-0.015166744075086827,-0.02198169238245745,-0.08657271231911902,-0.004707932164220281
0.0297931,0.024997323034715434,-0.01693047807426295,-0.04493740327184871,-0.001504052005583816,-0.009220542058263233,-0.019016687651924068,-0.03091215089660544,-0.012191129340527844
0.0302586,0.026631750756959473,-0.014361173915747226,-0.041066850756959476,-0.004449321593682369,-0.006006498588453926,-0.01679287679002581,0.10026404260680785,-0.011107072350641843
0.0307241,0.02726387293217965,-0.011481455242446923,-0.03505408817993571,-0.008268297746023843,-0.009822138847520931,-0.01784437648096254,0.18333319058154868,-0.013396604803225918
0.0311897,0.026632571259837923,-0.0109102,-0.035515087489068974,-0.01043657497813795,-0.009041486742713538,-0.01916476203242782,0.1286056025371655,-0.015341698731417257
0.0316552,0.025824097033444068,-0.011629725741638983,-0.037142825741638984,-0.011738005076342362,-0.00853451684197118,-0.019830895798587267,0.017361861635962695,-0.01704905148327797
0.0321207,0.02484732255898053,-0.012276359393835042,-0.037523168417427255,-0.0115816,-0.007159436094368852,-0.020298454882038935,-0.025380584007663083,-0.01856121148054081
0.0325862,0.023052521483088017,-0.012285762752550415,-0.03668492916583632,-0.013354070472886361,-0.0016129744948991712,-0.022258384254432252,0.022102642966176034,-0.01934399832208018
0.0330517,0.024335696487911295,-0.0109102,-0.03806717056898745,-0.015540741137974901,0.0019323944782048967,-0.024268852169533763,0.11992852006544266,-0.019680239967278666
0.0335172,0.025879836169893634,-0.009626024789603135,-0.037738511380290496,-0.014779965436670373,-3.221543833477027e-05,-0.025666026421704114,0.21388021340598382,-0.021445685352178747
0.0339828,0.026089587995765516,-0.006998406019545387,-0.03581016040345435,-0.012019527974593098,-0.009428680201727175,-0.027593176792244403,0.26027572004234484,-0.020981240432115314
0.0344483,0.0260166,-0.007931276283109728,-0.03573232330251394,-0.009528333981768094,-0.01811616407292763,-0.024507605132438912,0.2504459461919502,-0.019765528849329184
0.0349138,0.025366271710289594,-0.007637478472726972,-0.03261964259393859,-0.008505528242423238,-0.023312720283586597,-0.023918878472726973,0.20180603118667803,-0.020687639236363485
0.0353793,0.026038626718362174,-0.006969906873448689,-0.02917006031017303,-0.007597253436724345,-0.02240262380625111,-0.0235492263558782,0.13960547724297548,-0.02363268950858498
0.0358448,0.02721242798448469,-0.003965481500245028,-0.0283665,-0.007427222199705967,-0.01971871645887634,-0.02304772139214433,0.08930939050184532,-0.028782686859268387
0.0363103,0.029087112271666476,-0.000405161233266775,-0.02721469181888902,-0.007841152045277747,-0.02023817095621648,-0.022443276998505773,0.0693548763384795,-0.031293768407499714
0.0367759,0.02827983260272521,0.0014355497983692923,-0.02482422420653388,-0.007119203339654694,-0.01885708614401061,-0.019542888755174032,0.05508329332069061,-0.030939212961707912
0.0372414,0.026606856995243015,0.0006657900004989552,-0.0225382637854678,-0.007102860658271179,-0.01410642716089915,-0.017771575102509114,0.03612779320977521,-0.03154932942430741
0.0377069,0.02283675977459052,-0.002999106113267884,-0.021623458777346425,-0.007939654829535032,-0.008108035109385693,-0.019098131161574303,0.01679194733592146,-0.039205003162700584
0.0381724,0.02288847071114778,-0.005808171010038189,-0.02397577044995874,-0.01047147651668042,-0.003267246406559716,-0.01863901161106527,0.0183088698898793,-0.04199633007241933
0.0386379,0.021575792042155716,-0.007582741522247802,-0.025174444967777536,-0.012559158477752198,-0.0003386532722270963,-0.0179303584777522,0.04202385051990792,-0.03973244776758873
0.0391034,0.020154863925827056,-0.008977772679028823,-0.02566480538247119,-0.011855964401014425,-9.14180925820397e-05,-0.019687895623399117,0.05732585801267293,-0.04105209668476499
0.039569,0.019747097081217142,-0.009539024635152143,-0.02623879854060857,-0.0109102,-0.00818661587880356,-0.021352210706308362,0.040236436800851934,-0.041832033216998556
0.0400345,0.018774368450912737,-0.01059039649454586,-0.02705549298909172,-0.011045317835976037,-0.018598522571303577,-0.0216526,-0.001094528352338458,-0.021610982781434633
0.0405,0.01859083451758201,-0.012332825003340419,-0.029610886539746317,-0.012885034615898527,-0.0211080403316028,-0.019579351923847788,-0.03796511539078231,-0.009249194221775794
0.0409655,0.019378901949187597,-0.01399204559589173,-0.032257736491462324,-0.014214016617297855,-0.015594759610162481,-0.017441315321949764,-0.05269003128540811,-0.023513728966262946
0.041431,0.021843092053749513,-0.01350502277127653,-0.03367718184751769,-0.012392016004432484,-0.008164081847517688,-0.0162814,-0.04871078882512479,-0.04009183286557685
0.0418966,0.023274659282028907,-0.012849279042705209,-0.03334565928202891,-0.00949227904270521,-0.004980281435942186,-0.015647560478647397,-0.043526996410144535,-0.045672563679762315
0.0423621,0.02225494390953148,-0.01185745175257535,-0.03257880116838357,-0.008822278797246596,-0.007065701168383569,-0.0162814,-0.04019842035962202,-0.042700527877413706
0.0428276,0.02023191820457871,-0.006262491526691951,-0.03066536117276175,-0.005539,-0.009979921415720799,-0.018140061104391026,-0.037351465505125005,-0.028573596392327278
0.0432931,0.0206455,-0.0028412612761170163,-0.02903463563378484,-0.004793830556856633,-0.012801138561479233,-0.02002919280739616,-0.041840723039445284,-0.01827850784221885
0.0437586,0.023280919656653194,-0.003153882060080835,-0.025515796566531943,-0.005539,-0.014462829279113396,-0.0223239,-0.04961016755362973,-0.025410142746774448
0.0442241,0.023075868508983563,-0.005069021272458911,-0.022807308933136535,-0.005847845951103664,-0.011380129667171298,-0.022109054642735763,-0.05608179318762832,-0.027641387660677624
0.0446897,0.020307147806065688,-0.007551880128459722,-0.021209050305578764,-0.00767595280509184,-0.003399407451827604,-0.021067434775195487,-0.07587644161586557,-0.023119372676632118
0.0451552,0.014247831540083118,-0.009014356153305628,-0.01809833974449062,-0.009725208204407504,0.001135447948898124,-0.020941747948898123,-0.10164778769338875,-0.021780816228037375
0.0456207,0.00849837708792537,-0.010755392719813427,-0.0151166260664761,-0.012291701820046644,0.0006118650961306015,-0.020062108351701483,-0.09800316691617725,-0.023946834125266037
0.0460862,0.005581648267343388,-0.012635033872971733,-0.014309848267343387,-0.01647790777310812,-0.00593593872366485,-0.01616457444303461,-0.06600552894645101,-0.028960037104749654
0.0465517,0.004255697796585086,-0.01488653942798805,-0.013625548898292542,-0.018392282811731882,-0.014849353305122371,-0.013991461351408413,-0.037825597796585085,-0.03502286206341764
0.0470172,0.003879654804139859,-0.01525514519586014,-0.012329619216559435,-0.017029419216559438,-0.018737142350321694,-0.009509441807063384,-0.02890283451591605,-0.03856249715446155
0.0474828,0.005163104702112596,-0.013971695297887403,-0.012628895297887403,-0.0173286952978874,-0.019289623155102846,-0.0013684360932546505,-0.041794821587731984,-0.03959272194319211
0.0479483,0.00823742616744729,-0.01358297383255271,-0.014241547665105422,-0.023110735507025602,-0.018455925182729562,0.005514507488290665,-0.0627466643748266,-0.04059081596129906
0.0484138,0.009132023156846735,-0.013831823156846734,-0.013881661578423366,-0.027160046313693467,-0.0206337423171886,0.0048163503101983345,-0.07354945368630654,-0.03791136661393577
0.0488793,0.008513996605667422,-0.013306403394332578,-0.013688406788665154,-0.025599869451006806,-0.02191301446738647,0.0013659509149886611,-0.07297968820278201,-0.029113183968258273
0.0493448,0.008884380856362905,-0.012287857430911282,-0.012623557430911281,-0.02115548369338761,-0.022977873015128755,-0.005486136270895219,-0.06270200485340367,-0.0088810798849114
0.0498103,0.01170519990667306,-0.011554133354072653,-0.011392388778279182,-0.01752348896493306,-0.019841344544684492,-0.014833311190611837,-0.04313272222567878,-0.007978165917438688
0.0502759,0.014479675734784958,-0.010819513150024763,-0.010200761022670993,-0.015932538031838445,-0.014957975447078248,-0.031774700945490564,-0.026919139265035717,-0.023473611259043632
0.0507414,0.017647197163906267,-0.011070010476540364,-0.009827202034980394,-0.016398663563535153,-0.010613587854511717,-0.054614268068576804,-0.020132715782695362,-0.030462334767516933
0.0512069,0.01835602312599459,-0.011056013502646228,-0.010688531965046393,-0.01758200160389139,-0.013258212831131148,-0.059502103207782785,-0.004643051211743115,-0.030442116710429016
0.0516724,0.020086829021204324,-0.01160978225530108,-0.009818553234096758,-0.02066078046192123,-0.021347560923842466,-0.04557580223170928,0.03619240135505042,-0.02808467744698919
0.0521379,0.02136922260905576,-0.011969624340904332,-0.009052973022712997,-0.02246774581519935,-0.025537055916649218,-0.03161815066416626,0.046659892880272766,-0.02516937906461673
0.0526034,0.022770263505311555,-0.014466198022850431,-0.007122655864501623,-0.025074596179595034,-0.02675355182423944,-0.023766249980984044,-0.0029054769436760264,-0.02246060197714957
0.053069,0.022090557501947262,-0.01895455635462753,-0.008662952332315673,-0.027426486718727185,-0.026175632304194982,-0.021331061594560847,-0.060962833884695485,-0.016592333811109538
0.0535345,0.024811667099156835,-0.02226482248134003,-0.008145822152873277,-0.03032162248134003,-0.02058909906378924,-0.011150110140225879,-0.08790335503731994,-0.008323078175593475
0.054,0.025872897860422822,-0.021651671893857128,-0.007601410081906683,-0.029129936549915893,-0.010853137051359412,-0.002877512221483861,-0.08464616167814734,-0.01051018809613945
0.0544655,0.025835809551368383,-0.0205311216738945,-0.007981140585568956,-0.024699627363959305,-0.0005736028450324053,-0.003036058493691033,-0.059737719927945625,-0.01925286794952826
0.054931,0.023426832396815287,-0.01817184746155394,-0.009882796916075005,-0.016192193163444484,0.009118738577814724,-0.009464595223777631,0.0022435641380744984,-0.028085738577814726
0.0553966,0.02050911107239919,-0.016909882824763564,-0.013091325750783346,-0.0115816,0.007318609154255867,-0.016121137401891496,0.06941846747666222,-0.03132960802098057
0.0558621,0.022098097808171794,-0.014712137804414743,-0.014226585059105186,-0.010841575092246892,-0.012078567511103215,-0.017079755057226663,0.09966442527674067,-0.03231941260147158
0.0563276,0.02462859578633154,-0.013912187323918036,-0.018327855560397146,-0.011368569756690204,-0.03543562009542891,-0.016326530243309795,0.055916354991312305,-0.03403785583404599
0.0567931,0.024371816230425766,-0.016013717469901715,-0.02230963168854899,-0.008195624497055376,-0.05106235965867013,-0.018801643428244363,-0.03644264791897475,-0.043954701403815896
0.0572586,0.025412585639167835,-0.017192442767109614,-0.021933012613291124,-0.0015393715937225489,-0.04957679259838299,-0.015668534870616455,-0.10568877862747839,-0.0566419441247231
0.0577241,0.02492045406358591,-0.018009230812717183,-0.024140776749131274,0.005944514558373545,-0.03261980325540378,-0.010554016254343638,-0.09394434063585909,-0.05991802568675275
0.0581897,0.021564070904318677,-0.0129244,-0.026039429901442087,0.00339063564548935,-0.0013335663526922016,-0.008247429901442086,-0.035562621489615136,-0.05878092337346193
0.0586552,0.019848604435796485,-0.006266940049749295,-0.025011519889006534,0.005670753767950787,0.01816838548957957,-0.010869814250179074,0.001923032924659759,-0.04699598105378309
0.0591207,0.01936815652069271,-0.0018955492781527728,-0.02641775652069271,0.010483804706611819,0.019548318840230904,-0.01547908695861458,0.01983476956207813,-0.011684293837659895
0.0595862,0.016724206797987015,0.003017728485104231,-0.028812878123565075,0.022256066084568333,0.017134978731829092,-0.019556283972838817,0.03669473528309125,0.026734510900965756
0.0600517,0.015165029357196871,0.007400148119137795,-0.028411785871439374,0.02493762715704563,0.02367752431831632,-0.027189080832558825,0.05766873074634761,0.02179633219592618
0.0605172,0.016773057625381865,0.015684716347952328,-0.0273594,0.02057077876171418,0.027505465705327643,-0.0385360010971886,0.08717946250779224,-0.0213293257210706
0.0609828,0.019600175839824867,0.023124529117351668,-0.0273594,0.013130877342908598,0.017982480538662738,-0.040321577437701935,0.08836975808539489,-0.05198154226773711
0.0614483,0.021693808213465497,0.027877465088990423,-0.028230583828321845,0.006200018592306458,0.007415083279019071,-0.024480082984969134,0.06275670682081001,-0.06554060326398102
0.0619138,0.022535817050814696,0.027910763364056502,-0.02945413741097876,0.0008375672811560123,-0.0011159879347175917,0.00027861237963503393,0.006286613887795335,-0.06802570527856104
0.0623793,0.0204346883494191,0.020948083766630737,-0.02871535068277638,-0.0022839501966463093,-0.008533998634447237,0.0014414007099532874,-0.04503285324441251,-0.05865830409665829
0.0628448,0.02389999452545669,0.012313847153659336,-0.0281010645008177,-0.015875435499182303,-0.016852610750136283,-0.005265803248773454,-0.06439169675122655,-0.04805234087425045
0.0633103,0.025936548075280542,0.008671339507747412,-0.029994967547050336,-0.02660843213090962,-0.023069866114187217,-0.009241706490589932,-0.04916258141447806,-0.021264073151392414
0.0637759,0.026481035980625425,0.00535625272214393,-0.03141390675397944,-0.038862575890325574,-0.023301213221098696,-0.008743047277856068,-0.02962361191140712,0.0005389762176418763
0.0642414,0.02595904574360639,0.0030246617166683346,-0.03167416778023405,-0.05157351892432886,-0.018860113523840434,-0.010877311853489363,-0.020152177802340458,-0.0031898505262562527
0.0647069,0.025608009260722667,-0.0005176824968480768,-0.03500274833403376,-0.06483581418627513,-0.01392178104175422,-0.021175973657870172,-0.016257498544906143,-0.01747315731153778
0.0651724,0.024944990191514315,-0.004047584017561051,-0.0402710671554583,-0.06920880543301533,-0.010942455865096732,-0.026165217904146727,-0.013789574193574374,-0.02693338357772915
0.0656379,0.022161296460446348,-0.008607663022448832,-0.04377466697875636,-0.06615701892561643,-0.010277244930340155,-0.020339321112147125,0.0009428498630906964,-0.03651802604489767
0.0661034,0.01857516437357917,-0.01712822174231985,-0.04517946781321042,-0.05568329140092188,-0.010931250859907812,-0.011644752579723434,0.03295514250568332,-0.05316019299516151
0.066569,0.015989235188276888,-0.025209154157694758,-0.046472432405861554,-0.04598605695603833,-0.011900974304396168,-0.014553922913188501,0.043298859246892446,-0.06641298378114098
0.0670345,0.013702841558439231,-0.03207377532468231,-0.046334043548025915,-0.03717187002739755,-0.012237708348794396,-0.022933421623808056,0.025369976015539763,-0.06343211195690227
0.0675,0.01189277871978985,-0.03771935166837629,-0.04636543277021739,-0.0282932970881985,-0.012759994653747669,-0.023257436159369555,0.010022224989514224,-0.04175234012596946
0.0679655,0.01096247515580497,-0.03683813455137086,-0.04775772202421099,-0.01852491920422694,-0.01308710004059409,-0.012918142306130998,0.029217159517348157,-0.026004084612261995
0.068431,0.011659326423141401,-0.030354238678820988,-0.046819339695095656,-0.005793416260394708,-0.012093989837253308,-0.009188387774512191,0.051652517306861156,-0.04505599863902648
0.0688966,0.013379659576276126,-0.0283665,-0.04708282553158616,0.002368248718249612,-0.013214110639448443,-0.012326570215724569,0.04293032038913408,-0.07449056595531003
0.0693621,0.017215213699937244,-0.02768294057675027,-0.045661110560953413,0.004066521857867049,-0.015039324260890658,-0.017560115707515634,0.02032656042703893,-0.07109172861656245
0.0698276,0.022641302505665487,-0.025642521852231773,-0.04474590877179038,0.004309558037737673,-0.016726083924524654,-0.0241724404333726,-0.0010319120409201374,-0.03594719624150177
0.0702931,0.02777863800241812,-0.022891520364861122,-0.04651204002806624,0.0017344216888532356,-0.016968962418575484,-0.02691665983160256,-0.00780622092618593,-0.01724389727269587
0.0707586,0.030873815789950222,-0.023538203947487554,-0.0464942,-0.003068114055681376,-0.016388473664252255,-0.027316567982495852,-0.009267575877470962,-0.016702764035008297
0.0712241,0.035170050058035494,-0.026955655690927376,-0.04682309556909274,-0.009122829105483803,-0.014308026585443575,-0.025057131016350837,-0.018118684796411176,-0.016452603228922637
0.0716897,0.03826532873658018,-0.028747691966075576,-0.047117231994345934,-0.007795040028270353,-0.011106548062194776,-0.01955027769932318,-0.033236778114092494,-0.00883494494578079
0.0721552,0.04306089914466257,-0.0258545888247067,-0.04583206683996564,-0.004705539035582847,-0.0076550678071165695,-0.010637004388500631,-0.056220198121604906,-0.01940219920056932
0.0726207,0.04530113465678438,-0.0216201250412363,-0.0461585,-0.0049105160625922215,-0.005539,0.00018982959358450975,-0.07262147858321037,-0.05590905274012487
0.0730862,0.040085404473738914,-0.01645807065937809,-0.04565561685659072,-0.00548356919463956,-0.0057704893637688165,0.006739899877164556,-0.07108845077213093,-0.07130397076055747
0.0735517,0.03131585546623332,-0.015228291161580382,-0.043011427934091684,-0.0017303962218611013,-0.013487833199349982,0.01694679433279165,-0.0450035548593057,-0.03467683637056126
0.0740172,0.01848079943116707,-0.01051848058397417,-0.03818958826249717,0.0069202692087586715,-0.022763704058979817,0.021418224819217114,-0.013053580015141238,-0.0011305857034705435
0.0744828,0.0037011000693631417,-0.008258023653128081,-0.03363486034686681,0.02257585715017632,-0.026882296242801657,0.008701703757198344,0.006719828312175018,-5.467791327307754e-05
0.0749483,-0.012182733699768807,-0.004596396484197995,-0.03053944420015413,0.034862197178000404,-0.022629834728659565,-0.006551037862352534,0.015037799617890965,0.015521522100077064
0.0754138,-0.017802294615380285,-0.001943124548497243,-0.03108814371237477,0.04028278802675322,-0.024865325150500918,-0.01825743234113166,0.02125611916387753,0.056698776590794954
0.0758793,-0.01629960392580041,0.0014039332705840768,-0.030177713972175155,0.032917925749576395,-0.02355218995362526,-0.021925771261309127,0.008536809582627317,0.06524393170485415
0.0763448,-0.00845252655744498,0.0006445804003400693,-0.028046592868882177,0.0162988994671558,-0.01737877397539922,-0.022658839389989655,-0.022062695728264116,0.003471809266985764
0.0768103,0.001509496974124585,0.003934854883138797,-0.0267251774415694,0.009233399001511728,-0.012477167675291804,-0.012964290543559333,-0.03180448411299408,-0.04675444209098579
0.0772759,0.0039064922637711864,0.004697450800352385,-0.027106475400176192,0.0050377491996476155,-0.01222310935136549,-0.006587487700088096,-0.016860821636845488,-0.04857507994942738
0.0777414,0.010460979992511325,0.003099839201198188,-0.025928317853055022,-0.005852384800299547,-0.012264154276168412,-0.0163250583949077,0.009279253060244148,-0.05540189360209683
0.0782069,0.029516456967793026,0.0007976314072568974,-0.024542573063764866,-0.020123604814946516,-0.011692877452122259,-0.038930910922927664,0.034532120828253986,-0.05399585765564253
0.0786724,0.059610166820916875,0.0004003482207205353,-0.022751022007267103,-0.029227409691247784,-0.010491341776769218,-0.06020274356859991,0.044817757129669095,-0.012375142634812526
0.0791379,0.08063221613416537,-0.0003542792740007065,-0.021801267408824487,-0.03138897341753079,-0.012794300792903278,-0.07552003005855508,0.03890031012713329,0.020734473568092927
0.0796034,0.08404278180493893,0.0004620706391666715,-0.019099581853496174,-0.0317235,-0.014839163609877871,-0.08695231804938935,0.013042068134819222,0.04446788440640086
0.080069,0.06865733859617644,-0.0020164325168832826,-0.018651996706044418,-0.03424352635164466,-0.020608659291200492,-0.08555948023626651,-0.0051031354744816146,0.033202065370493646
0.0805345,0.038472315341366636,-0.005194598757400475,-0.020657948228182094,-0.04783204574298305,-0.02634601330026926,-0.07034620767068331,-0.010636636711568137,-0.017728646024099907
0.081,0.00370201797245596,-0.0067697979752180506,-0.020645653037172924,-0.06007194968519332,-0.030978151709975265,-0.05012181057091245,-0.012178745635629418,-0.04477888166867201
0.0814655,-0.028292064338306926,-0.008677846262619306,-0.0198062,-0.05422989453382505,-0.026949264338306928,-0.03751359568635455,-0.008593866404615087,-0.034747717254581784
0.081931,-0.05314949564579155,-0.007193552593622736,-0.01960551524676774,-0.03495749684811758,-0.016359338148405685,-0.03305737426144831,-0.009357532961160214,-0.025136971825309915
0.0823966,-0.06898408076433513,-0.0008469903524873652,-0.018651882455459786,-0.014764928883177516,-0.004241216792077174,-0.017331584146584447,-0.02268282662578839,-0.03033183132676522
0.0828621,-0.0769718023437693,0.011341144987006495,-0.021198279850266042,-0.0035058082995963894,-0.0018055904936317222,0.003891665365791503,-0.027215363770691996,-0.05177103222892258
0.0833276,-0.0930109505435151,0.016025410688922492,-0.021453228488425367,0.0023620958406354855,-0.012686464885794313,0.00576668041132607,-0.013634363602631058,-0.06666710464416459
0.0837931,-0.1157663203358465,0.015183676460088252,-0.021213177847431368,-0.0004343570478334324,-0.025688151666411856,-0.02020913595152615,-0.006732681446503229,-0.03608392931633993
0.0842586,-0.120947555150165,0.00928377975334728,-0.018080184262033835,-0.0027672639817394023,-0.029572899003766966,-0.03823288647394033,-0.004155813559701384,0.0036486326243223583
0.0847241,-0.09903447468614603,9.737838272735151e-05,-0.015428727772435995,-0.007825108341346008,-0.019222166634615966,-0.023915140468730736,-0.003858861708743632,0.01583158701388931
0.0851897,-0.06135939268832521,-0.006751285245957017,-0.01594994514733237,-0.01172760075432236,-0.00798374962283882,-0.005804740541132524,-0.0012796196722449809,0.023356804032998578
0.0856552,-0.015660118536029225,-0.013447344736196288,-0.014768057830914276,-0.007104252702058688,-0.0037907227861738997,-0.00479907606521894,0.0024714985814965947,0.020638312830187286
0.0861207,0.012224614495643866,-0.021817314252645086,-0.01598392915328692,0.006319015965150929,-0.005548852104547215,-0.010669508617615616,0.002678169377206019,-0.0027163985304929374
0.0865862,0.032275875301078255,-0.028207949649007618,-0.018513023469985467,0.009626379220018496,-0.008540852319978863,-0.011285543528949487,0.009152006627976923,-0.028011034230001324
0.0870517,0.06452592351775029,-0.030419067993735206,-0.019204617738015895,-0.007488516764119282,-0.006879794220265605,-0.010735325252633788,0.036049232006264795,-0.04189047648224971
0.0875172,0.1010640580556119,-0.03453093313947991,-0.01886938235799328,-0.025729335878449854,-0.0019368419508261664,-0.014668848627295995,0.06227134923138951,-0.04334967020680259
0.0879828,0.13310621272010342,-0.03859763427705869,-0.020382836628360178,-0.024564244280424728,-0.0008269548079051273,-0.018379070654421632,0.05982132616002253,-0.029667563895754177
0.0884483,0.14215575883491027,-0.03613367198430427,-0.023186579160898935,-0.007697627990247777,-0.0033799895677254907,-0.013390732347931153,0.01897876197874283,-0.006546727238613454
0.0889138,0.12823564359774647,-0.03389048227737905,-0.027299852179853774,0.0033592230660854693,-0.008660465117416529,-0.01215461047850582,-0.036992845148413965,-0.008761253305170632
0.0893793,0.10812982679552968,-0.031976833944067806,-0.02841721409661015,0.007432720990911036,-0.011568891908474594,-0.009130390076271172,-0.07051861612927968,-0.030643609352002138
0.0898448,0.08862778838832766,-0.027626584644668932,-0.028318614974634945,0.003860383999237717,-0.013061430710662136,-0.004936357561704505,-0.0546228957432776,-0.049878580901010196
0.0903103,0.07795329342076678,-0.020361495527859413,-0.029922538534602312,-0.007551261578146971,-0.01205978684153355,-0.012196444173038504,0.00865593736830671,-0.04566127123772661
0.0907759,0.07077943324802381,-0.019443529614178962,-0.028265842783439212,-0.01259345370075528,-0.009687509535415403,-0.020562290838552506,0.04702477038582104,-0.03563696675197619
0.0912414,0.07110404232540511,-0.015180898759278602,-0.02884065643387349,-0.0030577937963930076,-0.009185044224127166,-0.022943383992809575,0.04376034364140643,-0.015892362515292722
0.0917069,0.0799275308121028,-0.014582046125264795,-0.031000339394813052,0.017457703704975108,-0.011415427786626174,-0.02433345134297822,0.025016945445766315,0.005105093609526547
0.0921724,0.0955462191238549,-0.016994318689827807,-0.03225941116242022,0.026644856069483424,-0.014733767177657415,-0.031184489705633953,0.01810773401593138,0.0075069826122534525
0.0926379,0.11817120412732914,-0.02089457119272405,-0.03227577201818988,0.02705619917453417,-0.01703397119272405,-0.0350805,0.0058315054735194015,-0.006091218530967106
0.0931034,0.12745372648034545,-0.02036414134398026,-0.03360184664004935,0.025199694703930912,-0.01650354134398026,-0.0350805,-0.010876955758357874,-0.015638955808355316
0.093569,0.126937571269218,-0.01590841380765401,-0.03579168022309479,0.03322542089237918,-0.013955124861237206,-0.04593716520065358,-0.02535267625423677,-0.014856545523061603
0.0940345,0.11306454541547385,-0.009908571510337562,-0.03734659397683756,0.046202856496851026,-0.012541372761460381,-0.06500896066141204,-0.015416757622969098,-0.016343221161653727
0.0945,0.09572010338774462,-0.007524606195556979,-0.0371084424978105,0.045593499418877775,-0.013188615488892446,-0.06451046239051896,0.0004892030977784893,-0.03245208760888604
0.0949655,0.08254059262576564,-0.006856291689557057,-0.036541708697282176,0.017386433678986568,-0.011012233241771774,-0.032803032967087094,0.0022922247687987146,-0.05236852553677547
0.095431,0.07312195689971535,-0.009703500757695889,-0.037736935551922306,-0.017341656411818507,-0.0026784162074178896,0.007976393344233071,-0.0060788511365438315,-0.06625644158489287
0.0958966,0.055912487868181295,-0.013857531858818294,-0.03684678603025322,-0.029210228313338044,0.0026623925351950146,0.010646841909240331,-0.012309897788227438,-0.07515784841418212
0.0963621,0.023844753469648802,-0.017299360462719914,-0.03387774408306841,-0.037002492765698655,-0.0026901444856191727,-0.005713541984562873,-0.019553956010659953,-0.08451928597390293
0.0968276,-0.012561539616315925,-0.014694130439467141,-0.028384611797990972,-0.06065467470343559,-0.009681624194967951,0.021711702724877987,-0.017411772780661056,-0.0805070516100641
0.0972931,-0.026552816135960416,-0.012718388466034014,-0.02737621737031646,-0.07328865709303949,-0.015176953966761794,0.08598121462413444,-0.01870633076009486,-0.0561447682469098
0.0977586,-0.027679233432352245,-0.009469746805965075,-0.021320560851742647,-0.0749663488415447,-0.01668480479975517,0.07123946133635338,-0.016642725962198526,-0.021445075532339156
0.0982241,-0.023138911798568824,-0.000422721037042722,-0.016433098719952535,-0.07352423672661007,-0.013900083582194226,0.003470945575536691,-0.014861418752852315,-0.009159921537995627
0.0986897,-0.00938083509445408,0.007498290035326742,-0.014478104428743671,-0.0738499107363639,-0.00931780885748734,-0.051927797785628164,0.008698814310488991,-0.02065297852727221
0.0991552,0.0017229267406462844,0.012281411366539957,-0.013161891117250678,-0.07058431673050967,-0.00719604970274226,-0.0525368,0.030141393341270608,-0.026162866706353035
0.0996207,-0.007872276414229202,0.007609566836908734,-0.01179941490939374,-0.0693998548162279,-0.009218896144970014,-0.02609853039488736,0.024158696655696216,-0.018451883678936645
0.1000862,-0.028195596702362383,0.002186249731110767,-0.00992174010130713,-0.06772088401834755,-0.01273837450041574,0.0016685567326098609,0.00017297893455650373,-0.03691343729052237
0.1005517,-0.04002443825099037,-0.000979594657168939,-0.009006635450249016,-0.06443735379910581,-0.014068061462300503,0.0006362546311757222,-0.010615706064037922,-0.06682226890376909
0.1010172,-0.0422222646130108,-0.002870971311134342,-0.00933798799597957,-0.052136207926014075,-0.01284247554271935,-0.008955670390401118,-0.011337964613010797,-0.07784960577739032
0.1014828,-0.038996625971239644,-0.005114602863272783,-0.011912199013940061,-0.03599665869071064,-0.009455125971239644,-0.003338430782976979,-0.007138908179867751,-0.0590722836402645
0.1019483,-0.035408136123732815,-0.012273221404486305,-0.017506835773744026,-0.02318139231598208,-0.006493499662808274,0.012598698988424823,-0.004948485617945221,-0.06200730135516543
0.1024138,-0.028515478543969908,-0.017378798531354652,-0.018727722924675446,-0.022159202014223896,-0.006813435121335841,0.007528243968212611,-0.003963047317996239,-0.09346495887099714
0.1028793,-0.009747581676799353,-0.01786658081111991,-0.0215936087287606,-0.021786830877262683,-0.01033050159907334,-0.01715255153293057,-0.0021525111935133865,-0.06482014760138999
0.1033448,0.004218687881301992,-0.0125887,-0.018642486608011856,-0.021867349440300377,-0.011886039522268185,-0.026692649132518585,0.0008435702418731145,0.014155547705337553
0.1038103,0.011221586118033387,-0.0034358786302422415,-0.01940779370377712,-0.014202491388196662,-0.01487389138819666,-0.018010338593364435,-0.0013164838024529273,0.04208991715605061
0.1042759,0.000755888563933055,-0.0017953520870532809,-0.021568470478688984,-0.008057977127866111,-0.014183070478688982,-0.0034212742688493735,-0.0011025606641034897,0.009606198684910175
0.1047414,-0.015743610865885337,-0.0009077545352578289,-0.02572073579265717,-0.005152259023772069,-0.013516128414685661,-0.012139301097200373,0.0001678,-0.01692747946202966
0.1052069,-0.026450891628821978,0.0005697582313143111,-0.028788422393353785,-0.004868445718149487,-0.01385605540581544,-0.03979182351731871,-4.924741968343088e-05,-0.01643228918836912
0.1056724,-0.02015102372752328,-0.0024421865113967716,-0.028435527575555963,-0.011048158251338452,-0.014623714920911742,-0.06278738809316194,0.0006648171871792626,-0.010513312419034719
0.1061379,0.001881015375961953,-0.005615102260918421,-0.02846713304311184,-0.017772980102201203,-0.014481986434489473,-0.06554623756494869,0.0005796022609184211,0.003269463855574778
0.1066034,0.0220905216824789,-0.006020499749626392,-0.027992595848824877,-0.019019759446608046,-0.014369427772903266,-0.050423675528258285,-0.0001184316737047811,0.018818607201963065
0.107069,0.018184174744846893,0.0035967309918194376,-0.02675197722124753,-0.013478505251403594,-0.01456576036582181,-0.02624567129792078,0.000578143267764719,0.008980587668083765
0.1075345,-0.008825178472101871,0.015390918952792015,-0.0252149324273537,-0.0010894410300424458,-0.014838503587983021,-0.005057406163089136,0.0007891517939915109,-0.005177379620485282
0.108,-0.024850018924011837,0.012504396832601346,-0.024484728641555282,0.01760747671146809,-0.015851121600523523,0.009909533496962324,-0.0007022643241423208,0.0028855674848116135
0.1084655,-0.020101956750893803,0.0014719830066809612,-0.02532263664859025,0.027103684257784293,-0.016270117204081076,0.011864652180043922,-0.0027969927416896813,0.01266116090021961
0.108931,-0.00612764697420802,-0.011343245073527674,-0.027103406468882416,0.039689812520466376,-0.01809090519414975,0.02012340827896993,-0.003672767446938699,0.005304556618503444
0.1093966,-0.0033869706045034174,-0.018999854198717154,-0.027803448041158717,0.04592538085273124,-0.0203098,0.03835135028103459,-0.0035248,-0.009708610308690375
0.1098621,-0.008165782161200128,-0.027942573241800193,-0.029212923474628606,0.037519341779085315,-0.02006913620527684,0.04626251678344569,-0.0031091257648658823,-0.020235907156839757
0.1103276,-0.011276470784924532,-0.032404424334671,-0.030096617235178064,0.026981961886178355,-0.018658712189815022,0.02992565864006855,-0.0006730429942261094,-0.026607100187438094
0.1107931,-0.012632269614449234,-0.03213457210836925,-0.03215970539608494,0.013197984807224616,-0.01612017845779693,-0.029168063945815375,0.002692187709389541,-0.04111856548639265
0.1112586,-0.010229897400863544,-0.020685498939809324,-0.03647589090302241,0.004610799521244895,-0.016784387654101837,-0.1054194141242215,0.00311021364546639,-0.05997786792120088
0.1117241,-0.0015564048655593889,-0.006364094622375556,-0.03955849829930035,-0.0056454221510497775,-0.017669397823252834,-0.1452354048655594,-0.0011834367117104089,-0.07014257261539592
0.1121897,0.016047061688073565,0.000916967299257056,-0.043176178737483716,-0.01651937021277864,-0.015906821262516288,-0.13762160350698968,-0.001345709122891691,-0.07203438154307547
0.1126552,0.03833280108250185,-8.09454801263738e-05,-0.04379132806105721,-0.023354010273870122,-0.011790063267313461,-0.12438240044392844,-0.0011922719389427885,-0.05671027595547075
0.1131207,0.05825891923766538,-0.0004896685194154507,-0.044502002991241685,-0.04357518120934505,-0.008208356978685731,-0.12344771338277152,0.0006794715106571345,-0.049089779782192734
0.1135862,0.07003997500640557,-0.0021278447162301085,-0.04443700958752098,-0.06385937393684045,-0.005956999295497348,-0.11138415283082177,0.0015171058824764822,-0.06526661969701338
0.1140517,0.08410041297008264,-0.0055831813207788,-0.04607052754803681,-0.06309673870057556,0.0004770692454516023,-0.06585820976357104,0.003229324835737483,-0.09179498221553424
0.1145172,0.11153992006238572,-0.01283283529783082,-0.04205747359514242,-0.0471045997006804,0.0035600313814580053,-0.02546966259432297,-0.0007969793389750778,-0.07429153272207198
0.1149828,0.13216200645071097,-0.02201377440929271,-0.04001234996000659,-0.024621842049293872,0.0021435073799955396,0.00821140822929329,-0.0011223987785920113,-0.02459599792929426
0.1154483,0.14372740205918796,-0.03143281813204746,-0.038293520347657706,-0.01837613948163067,-0.002386690894870702,0.010294778094883925,0.0017938058322565886,0.0016477687779953955
0.1159138,0.14860822958325193,-0.03448485154802911,-0.042799917955930224,-0.029170640476355324,-0.007740457162356006,-0.030984939563566592,0.003132111071673789,-0.0232110032740774
0.1163793,0.14423558720381882,-0.03440599416182604,-0.04549336098664839,-0.0332599151656306,-0.012042208057282334,-0.06489053395032679,0.006411833024836611,-0.07656972718666266
0.1168448,0.13061900421511774,-0.03829413341048078,-0.04872462784206732,-0.029996033179038435,-0.010310483294759608,-0.038910669682783616,0.007865005568413465,-0.10872613209803841
0.1173103,0.1096943958163602,-0.039321292703019636,-0.048991442661937244,-0.03147688540603927,-0.009060409729307158,0.005327174232539761,0.005826717026287526,-0.09916448504927285
0.1177759,0.07537896207926467,-0.03691892884080923,-0.04997675082799341,-0.04379015682562364,-0.010314130496796045,0.04324102415800589,0.002266605823955272,-0.057662292576060724
0.1182414,0.043530667084383294,-0.03400391677109582,-0.05189013258074974,-0.05202559225811099,-0.011285948064527748,0.04729464773865184,-0.001399872903388485,-0.027887119028846604
0.1187069,0.021478051003133478,-0.02881018637513849,-0.054306633484208104,-0.0532082,-0.011414032963008136,0.037129609799373305,-0.005434270601880085,-0.0145362394580932
0.1191724,0.007314288362083662,-0.010738484032564763,-0.05441876136811964,-0.052763967252034485,-0.011072848984685434,0.0036501316655857966,-0.010321459540222047,0.03470161048795943
0.1196379,0.0018026330987446506,0.004665821257873818,-0.05278172551077388,-0.046271437975846194,-0.010597403667535345,-0.04208431933980612,-0.015206622551740042,0.09221585723135228
0.1201034,0.0007416862862827962,0.008860090074742533,-0.04836044770850193,-0.031863475167721034,-0.0066325941353184955,-0.08697155620012358,-0.019582650335442067,0.06266344966455793
0.120569,-0.004160698902738041,0.008710448393844527,-0.04954078425993032,-0.031512485217214815,-0.0064395967082141225,-0.09723345563577346,-0.02357439926216789,-0.03507339978054761
0.1210345,-0.007120276358634503,0.013081833302725256,-0.049562584239089665,-0.02938156285257855,-0.006579132553716465,-0.05441833996022184,-0.01835767293435482,-0.07991118869526515
0.1215,-0.022244916460653113,0.0073395232577678545,-0.0461543137630703,-0.024854131011348146,-0.00799154651702222,0.004624902361387687,-0.013476474832274064,-0.0698488243801012
0.1219655,-0.04056307306217718,-0.00046594527018606596,-0.049480876586286346,-0.018274531725726982,-0.008293846827427303,0.03635551398900068,-0.012602255139440632,-0.06989829823794542
0.122431,-0.052516112606288516,-0.01058775773115781,-0.04712277964889626,-0.01259904369685574,-0.010703105630109722,0.06095898428980391,-0.0068433507003493625,-0.07583310980489108
0.1228966,-0.0543003227606907,-0.010769193936211096,-0.0474574311564241,-0.0033869283584573176,-0.00989996744459252,0.10169022369273527,0.014972649814729622,-0.06819907947577226
0.1233621,-0.04059311438772081,-0.0034516346495222557,-0.04295575659732712,0.0013241515608619315,-0.00823998908945417,0.09066389916238456,0.02944997146721226,-0.0437607450886763
0.1238276,-0.016075323552217254,0.009595135317030145,-0.038933878812139944,0.010741283438035935,-0.006384234368895646,0.04785498653342714,0.03316295938318091,-0.010644935099929649
0.1242931,0.007373827895244758,0.010275549036468042,-0.03833758457570215,0.006514516806085093,-0.009850609366574505,0.012359322727489276,0.018630852345319193,0.018434844837649022
0.1247586,0.028062246235826194,0.0010631057462217777,-0.035503627789120876,0.0030177601144155777,-0.00988387264792307,0.010527290490608396,0.011852615255613382,0.020860509509391605
0.1252241,0.04617065146842906,-0.013180118922346572,-0.030803717606985578,-0.0075016473955229115,-0.010261912218718434,-0.008736037844693144,0.009251187997761205,-0.020038293475684827
0.1256897,0.05469585713615171,-0.01480358212661814,-0.03092269867224283,-0.00934360791960497,-0.014238707680455612,-0.06854923305311511,0.009389689071673313,-0.07910530960056951
0.1261552,0.05482039660999826,0.022539450851914274,-0.02900474830499913,0.009361586817976445,-0.015101623817131964,-0.11020608480475581,0.005105792393550228,-0.10725993868532871
0.1266207,0.06129996379365346,0.08717765195098945,-0.031089692025793318,0.04927599871060427,-0.014640492025793317,-0.09511714977946877,0.004828738259086145,-0.08795993016636852
0.1270862,0.0577709812062525,0.11242689783241203,-0.03152441180663568,0.0722580296947908,-0.014870294096682163,-0.07728688620397797,0.0029841822900464874,-0.07337177994425689
0.1275517,0.04518745758660716,0.09363438462159185,-0.03223699133702753,0.07650579244084217,-0.012018546481937915,-0.06725456319822819,0.0024089216574311647,-0.049494704854519886
0.1280172,0.026371257347604416,0.05332144555099706,-0.032887196338983925,0.07056666182217962,-0.014962357815641947,-0.03748228047458092,-0.0007171965721030269,0.05932305537496456
0.1284828,0.01629623025315222,0.015992252729366684,-0.032423183235593254,0.046398687349716215,-0.01518944324900117,0.03478717837549942,-0.004532361438310085,0.15832771057190156
0.1289483,0.020909565792781977,-0.012354739528562678,-0.03344332936300553,0.03165032593707265,-0.014334667780288999,0.13240813060651846,-0.004441196466614544,0.11669896214954949
0.1294138,0.053062069178307865,-0.03480896560100327,-0.033696023444225814,0.0375153803504013,-0.006548008857819676,0.14829424061655888,-0.0021400543202485774,-0.0038193741871697957
0.1298793,0.08538882734995908,-0.053794423957422,-0.032906161272215566,0.047599343901445955,-0.0090019075900019,0.0631176813290268,-0.003102644014233244,-0.06882065208515602
0.1303448,0.09910923442178221,-0.05606274916563018,-0.03146083609738274,0.035486735396917296,-0.0034192791700990892,-0.026222175727920866,-0.0026461904717688355,-0.06736929453541897
0.1308103,0.10156637065055643,-0.05478126050626221,-0.028662568393255212,0.0038380562670399703,0.0023173327308749735,-0.05124824544854171,-0.0047195697009721925,-0.07290447799582989
0.1312759,0.09681731308230661,-0.04910227743830806,-0.026903386845178793,-0.027584239319434437,0.0008274694146412983,-0.004436839246919843,-0.0013216040031082262,-0.08705612083336531
0.1317414,0.08341855902146236,-0.05486101176603672,-0.02380427156183734,-0.046959462646494976,-0.0020687011854172268,0.048447745131249845,-0.003625891447916921,-0.06492483259087488
0.1322069,0.061060647637355484,-0.060641793440804614,-0.020140245914367704,-0.046384594789436316,-0.003383527848850749,0.05603010989425237,-0.0010154472629994066,-0.007229078599426066
0.1326724,0.03841388815324435,-0.06071794009014373,-0.018988135990985627,-0.030875590800899924,-0.002889201630363588,0.03780027669420096,-0.0030160144282298383,0.013712047950420947
0.1331379,0.00767989261420608,-0.041183225850278726,-0.020189027784699536,0.0015160293998407615,-0.0068241736729904535,0.008417348701949805,-0.0017472158683844116,-0.020326559521468356
0.1336034,-0.031288773472551,-0.01980373335398778,-0.018395501750372138,0.03665088990963007,-0.011185321208365859,-0.026917267673638216,-0.002182,-0.05014343263124164
0.134069,-0.07562036417481859,-0.014627865041779044,-0.016392849444619273,0.05631966626044476,-0.013327724695333571,-0.04765182724056927,-0.0035698831302223804,-0.06482486737120621
0.1345345,-0.11259239699884362,-0.019160850104207358,-0.015684612725750148,0.057452912526051836,-0.01417765939453888,-0.036886072111572625,-0.0041365062630259195,-0.06737458707455155
0.135,-0.15091947623758933,-0.02690414283702554,-0.013644042837025543,0.053288839653744126,-0.013891644446564537,-0.016425804740308095,-0.006577563521179419,-0.0691322760800524
0.1354655,-0.1580242349798619,-0.023817827260719144,-0.010108919985874893,0.04657694212098684,-0.012443921504791912,-0.010524181782157431,-0.009996033460944869,-0.050987732572347885
0.135931,-0.14450724127689799,-0.018108134651718014,-0.004341551193821356,0.024511143975107987,-0.013320089758417324,-0.044374156469896335,-0.00922189124195936,-0.0036517048169786284
0.1363966,-0.11241400822820245,-0.024051849783855543,-0.0012287370390898036,-0.022724597754438924,-0.014146334335798674,-0.052784553173741755,-0.012542642792866147,0.023254533556315675
0.1368621,-0.07332629599990173,-0.04750452426495859,0.007561459784328901,-0.06548187973513969,-0.017844930387897587,-0.015105975474010831,-0.015247622543056621,-0.00441042129055977
0.1373276,-0.043987708977899914,-0.06107708290000583,0.013867920146068509,-0.08124790812209426,-0.019215900031754024,-0.02031566012066529,-0.017166980044455632,-0.02867654314768721
0.1377931,-0.012070795579763717,-0.06528146292465872,0.017422615655745956,-0.08327341735215621,-0.013949490821252707,-0.10094584693063803,-0.023593347612224116,-0.02459513129445115
0.1382586,0.0009206840171787764,-0.0645807760344058,0.022910886815367827,-0.08598145089449635,-0.011015876006885986,-0.1424758024139147,-0.021505549747700914,0.006561917782058466
0.1387241,0.008732702985940281,-0.05134106418673481,0.022110646373389057,-0.07762327452819291,-0.010061387916467763,-0.1222453262729586,-0.02163014585177978,0.04489206841654123
0.1391897,0.010936794573049578,-0.04106148204013934,0.025154976916906952,-0.07689732308309305,-0.01115215034382284,-0.08197452380518025,-0.02280509108305851,0.037707291644726505
0.1396552,0.01190908373300898,-0.03278703011262033,0.027216239013877177,-0.072185875680525,-0.01646210404477508,-0.057667242246945576,-0.02576303820217049,-0.008906344631241108
0.1401207,0.010965036730172737,-0.025881168964832828,0.027604595508868707,-0.06146140977900363,-0.019823259181447846,-0.06458568083598192,-0.02738956816371043,-0.02090412569933909
0.1405862,0.007326111463170527,-0.023597059120681243,0.027335031902829904,-0.06005301700161098,-0.019294324738348325,-0.07103444822976648,-0.027402595701311053,-0.0082246
0.1410517,0.0034697454226594055,-0.012319619892408975,0.026773419387418725,-0.05087623264902471,-0.018487787260403225,-0.08170028009057206,-0.0276951,-0.0082246
0.1415172,0.009476197511765788,0.001138936324688789,0.024966682602314428,-0.026039813583570014,-0.017434941301157213,-0.07875769235181498,-0.027981986232947596,-0.010806576096528355
0.1419828,0.024840113808778427,0.004802752328168954,0.02124720432476449,0.014166621673533279,-0.015777630544111205,-0.04214933206265062,-0.02571839628867152,0.0013795779340796577
0.1424483,0.03274401713378593,0.008533558652877886,0.009885313325397757,0.03164331936316845,-0.013438370618702844,0.00955849581156518,-0.026295885413389827,0.016135828401771007
0.1429138,0.03845393198063805,0.02958253674482077,0.003685447167969341,0.02857275688502105,-0.012364337639603892,0.0422660091996411,-0.02305568178940405,0.004409829334745909
0.1433793,0.04211794310222798,0.06605624695304613,0.0006232704191256413,0.015418576068623836,-0.013357228205871503,0.030482540414574093,-0.023910944900908025,-0.004826584659156603
0.1438448,0.04218840060149158,0.08295969002230456,0.0003424018044747418,0.0015064138343063543,-0.01454469939850842,0.00842985819976287,-0.02509680090223737,-0.01559858947389734
0.1443103,0.035542187286554096,0.08854716569346995,-0.0017287465385355189,-0.011559501586172227,-0.014356163927274972,-0.015184316654544746,-0.0241283872865541,-0.017739136145456556
0.1447759,0.028928739091275215,0.07944769808711272,-0.00383929106672983,-0.017780144818950922,-0.014834635755053024,-0.0022481180026611538,-0.02313346948307029,-0.010435289393125647
0.1452414,0.02940504056060677,0.049200530538316765,-0.008566308086508247,-0.024229777045943028,-0.015501666488173487,0.05401966354668013,-0.021669318108798245,-0.012711745405865497
0.1457069,0.038956417204387174,0.004328141650196626,-0.009743320890147482,-0.053801884139498594,-0.018321988330039323,0.11725183306488858,-0.021508213427613075,-0.04160098557971161
0.1461724,0.043686893137656134,-0.035142133331639805,-0.013352874099294053,-0.09642708002661565,-0.018673858777892453,0.1843195491125753,-0.020709334997433118,-0.08568478002661566
0.1466379,0.03762361174696311,-0.06127165339863358,-0.01783460283133623,-0.1181041696385423,-0.0187078101204859,0.2426465986091792,-0.02107683195280275,-0.10894473198793492
0.1471034,0.02866927052366541,-0.07436102563404436,-0.020504369407842078,-0.10858511367609087,-0.01987659632894105,0.13705624360256644,-0.0184344602840339,-0.09789156067080658
0.147569,0.019230843215762655,-0.07445058287498701,-0.025146458383176414,-0.08875250088161875,-0.023160450986315455,-0.15324462592645127,-0.023140886102928502,-0.07599767495516747
0.1480345,0.012817292862506848,-0.06023733827578467,-0.027789926740371014,-0.059416746795649275,-0.0236667,-0.30832628901736897,-0.02195221291778511,-0.04191640924865632
0.1485,0.0012655681734008092,-0.03201501820972979,-0.030516702260101215,-0.028332068302320882,-0.02278269206151469,-0.2164193741658872,-0.020116079602826954,-0.01695164770356981
0.1489655,-0.010432042042484643,-0.023074344290793525,-0.0316405511418413,-0.012479894982222654,-0.023874072145396764,-0.12869502100355548,-0.020483506851047766,-0.016570926920281174
0.149431,-0.023564966000458803,-0.02256007803456386,-0.03298295641382297,-0.005626994896760792,-0.023791715379265544,-0.13822091793088515,-0.019518035931318217,-0.03272827434470812
0.1498966,-0.03400873776658321,-0.02904603089993172,-0.035765017302132385,-0.00525789485001138,-0.024936706866651493,-0.15050426866651495,-0.019357294850011378,-0.04176115335205273
0.1503621,-0.03245959351150714,-0.02684834286038697,-0.037862676627800414,-0.008128950651120166,-0.025905009092973528,-0.11382241211224661,-0.017112215581466392,-0.04774320995771263
0.1508276,-0.0248391879231542,0.0013143646538590335,-0.037181333284530375,-0.01057351516926168,-0.02551354241536916,-0.04299487254503987,-0.012283847422986766,-0.04823144866264471
0.1512931,-0.003560029320176249,0.05410982730711309,-0.035572648280114354,-0.009370540687954258,-0.024907548825545113,0.037302123867341795,-0.013209124412772557,-0.03628798083047776
0.1517586,0.011350082007180982,0.09013977074391093,-0.03525515715808992,-0.00945708963945543,-0.02374330532981716,0.02411305840554873,-0.016712088564363282,-0.04973305563163502
0.1522241,0.023267269143494862,0.10146966999562314,-0.030497665913759305,-0.012641154940652183,-0.024699794947122693,-0.029486266990337823,-0.01746595365484765,-0.08355468289743706
0.1526897,0.02011792322740722,0.10179017791082991,-0.03171524981029381,-0.021957593768572422,-0.021219336449087127,0.014272208727963412,-0.01906455468342268,-0.09509916121372783
0.1531552,0.018020452113529078,0.08664177328319453,-0.031527287089561803,-0.020154759089246715,-0.022027720374539126,0.0689372696419642,-0.01639422580426939,-0.07548124082991577
0.1536207,0.01673243408373772,0.05947116591626228,-0.02818196546601965,-0.012622069067960701,-0.02702863149990154,0.028158898649272106,-0.015215401800970526,-0.029980731049658912
0.1540862,0.009623154642020319,0.03780192047061711,-0.026930819882345726,-0.006209094994983147,-0.03173682959824374,-0.060760817235124505,-0.01764272916638636,0.002014868931077808
0.1545517,-0.0006325310751113404,0.016371931270691562,-0.027340369411952555,-0.002324732244819352,-0.035397169411952555,-0.09239356664944169,-0.015590969411952555,0.01186554332312413
0.1550172,-0.007056897625795416,-0.019518020382265654,-0.028096461609673284,-0.005969642394498776,-0.033117467988049924,-0.0329924315041013,-0.015626415402418322,0.008126107585490079
0.1554828,-0.009057575345489653,-0.06201239541585611,-0.030178049625514243,-0.015343991315287226,-0.03248366142597652,0.03733851596979757,-0.013918821786487984,-0.006878569045224234
0.1559483,-0.014427427841388615,-0.09771114147745716,-0.03193712045410282,-0.016880251419008393,-0.04187841988660012,0.04404128664593397,-0.015110210510802757,-0.021843355115274535
0.1564138,-0.017082432628349593,-0.11663368912227028,-0.031398762838427526,-0.008051683379911564,-0.0461585,0.024966487917974022,-0.015826767973798537,-0.030207368580786237
0.1568793,-0.02101117482257442,-0.11958157501572592,-0.0290279078963922,-0.0001678,-0.047481315792784404,0.010689409191489682,-0.014227231585568807,-0.0310620921036078
0.1573448,-0.022883342901609247,-0.11336135576866035,-0.028423914335145774,-0.00031707727137901694,-0.0461585,0.018421909827033688,-0.011661980069204086,-0.03169479283242711
0.1578103,-0.01788793088667951,-0.09836658062024237,-0.028307050784276606,-0.004548886213055021,-0.045049487781608236,0.026839360901240852,-0.009937072426110041,-0.036644120769715266
0.1582759,-0.00907962373561837,-0.0819471933554281,-0.026857215591019903,-0.004154274041197478,-0.042067291140570805,0.010275649677767187,-0.01070825110742865,-0.04181281187613604
0.1587414,-0.0007788346573989914,-0.07674891551832624,-0.024506544154803224,0.0009425629424255138,-0.03467280181037326,-0.014682997248374043,-0.01160250775916312,-0.04857112327748936
0.1592069,0.013096282543846517,-0.0742304245438424,-0.022157805318575256,0.008546051903456644,-0.026960362271921202,-0.03211760734514062,-0.013951435958965133,-0.050774735953348
0.1596724,0.030373209605008975,-0.07360953050677015,-0.021029886451803433,0.013286315266830365,-0.0264857615665188,-0.023339858169587082,-0.01059084633330167,-0.042161527123283714
0.1601379,0.05653234050265657,-0.07063715819207132,-0.0197505302516623,0.014798437185422123,-0.02268832331790248,0.005925255786896854,-0.007469793066240177,-0.03748715588081805
0.1606034,0.09238921607221978,-0.06915513773142101,-0.01838380793752531,0.013755084124949378,-0.023629887312778413,0.032635100780933624,-0.0042452307719984695,-0.03571763649979751
0.161069,0.10337356029043221,-0.06435743698070694,-0.01888883698710504,0.01274502602578992,-0.029185206858155434,0.026322237661187006,-0.002603923971011027,-0.03167740410315968
0.1615345,0.09416966035078685,-0.03378710286438036,-0.020156345327776524,0.012214714480252655,-0.03470095580793615,-0.006095230847523869,-0.0007988433528286795,-0.035039435144094404
0.162,0.07210542513444859,0.03191975026889719,-0.018955110020679632,0.013700151686073662,-0.03389677475799253,-0.0246247374327757,-0.00012680696531066618,-0.05892283504756935
0.1624655,0.03248167363671148,0.09446291958670872,-0.013695240476395407,0.014745889880901149,-0.03498105952360459,-0.021880419159198645,0.0005035,-0.07248187599177318
0.162931,-0.0037868089680118872,0.10618203248940124,-0.011756623521389353,0.013444866552960368,-0.037421896372237105,-0.011421412457446559,-0.0008803973298755017,-0.0779142047660554
0.1633966,-0.04960992740234505,0.0799308447188604,-0.009069488328018365,0.017551631957851335,-0.03526537205314123,0.011234115866491843,-0.0021315881918899356,-0.1016491161387487
0.1638621,-0.07125767609073845,0.047696264882724264,-0.009227454366004762,0.01075711539547454,-0.026258671982634308,0.029879568438400023,-0.005449816384347952,-0.11397404440171365
0.1643276,-0.06825324019482376,0.02461330083048475,-0.007949664544615898,0.002608889531341348,-0.018936306896889223,0.030106371635056563,-0.006363122935472278,-0.06935160332511979
0.1647931,-0.03143192994375488,0.02623180606000502,-0.005000498697177287,-0.003119678968117541,-0.010782263205695636,0.005808259809505743,-0.006948249348588643,-0.02117309603336216
0.1652586,0.002676389061376007,0.03626261534406013,-0.0014166858265708014,-0.00498027500529812,-0.0016386130239907492,-0.01441766638674351,-0.005915584773291183,-0.04855474347740838
0.1657241,0.02322211274284176,0.04748005704700128,0.004556705754315612,-0.0006593601285274466,0.01273753452589367,-0.011203314094002551,-0.005051002672789441,-0.09554423279552829
0.1661897,0.026640106912613162,0.0374304,0.004961229613591565,0.0092338602887198,0.019932239390480423,0.009909577138621707,-0.005636950191031165,-0.08001620691261317
0.1666552,0.03681147247259731,-0.005259944273048188,0.0017841673929733966,0.02059503236314128,0.02192815823700901,0.01924330456411111,-0.005778008543327469,0.001498188702730012
0.1671207,0.04779601399396032,-0.054532506208415814,0.0009739683926728972,0.016334192200075297,0.031827641095004584,0.016002947811428858,-0.00696326401553061,0.10830685330083195
0.1675862,0.048894925722115096,-0.07781175149233781,0.0002434740163678677,0.0019907926478272666,0.0481727,-0.004815407627254109,-0.008893266698738413,0.20893493646480338
0.1680517,0.042174495724530706,-0.07464773958857031,-0.0007497438640396024,-0.0029207182673052284,0.05506605460898047,-0.017154949320818364,-0.010261319621449926,0.24921282288422641
0.1685172,0.023480089884173536,-0.033794294326065774,-0.0016458975496066591,0.011523386674323281,0.04743274012731139,-0.03179185208435552,-0.013966591732236515,0.13459527259603496
0.1689828,-0.0015824655021822657,0.012373104682767441,-0.004625608793414109,0.027385680871797713,0.03334244092731178,-0.049363785129151676,-0.01596167011159606,-0.04712767157961648
0.1694483,-0.026889498211484904,0.03572967770638518,-0.0070160978863525614,0.03134301416415741,0.016662167463280326,-0.060638230116829915,-0.018429646069502426,-0.18037086205995498
0.1699138,-0.046803864729726675,0.04450046907215392,-0.00962147920470369,0.017023945738710446,0.01083870741077119,-0.05446600488264347,-0.016437887706585337,-0.20826728986745024
0.1703793,-0.060136630000856166,0.05524426338642411,-0.01028383482306294,0.002917831349851986,0.01007472172988288,-0.03324198618807245,-0.016347620015157518,-0.13544617350438215
0.1708448,-0.06114236089057544,0.08854899059312321,-0.01644866542412239,-0.014526056357028486,0.00869607930137195,-0.004082418771637456,-0.014924998094067467,-0.014191256017245604
0.1713103,-0.0429445372191561,0.13999898482316642,-0.013892436846982043,-0.023903902332119677,0.012590963982421814,-0.00842727034799675,-0.011849651580761766,0.08884655352653144
0.1717759,0.005318011542831031,0.15868916546378437,-0.016082814532783624,-0.02363308883956755,0.012943701468063585,-0.07208289812262512,-0.008806361338175386,0.12842267319804024
0.1722414,0.0535405606205662,0.1390537038808493,-0.0139315,-0.03436642522296811,0.01747718460472873,-0.1566398488019515,-0.00653581336681326,0.11681360133979196
0.1727069,0.07734407958402434,0.12482482613686226,-0.009673324829282421,-0.05013597115551015,0.012186951103326689,-0.21364319251527344,-0.004668107165648437,0.07254310155286346
0.1731724,0.09199385890473294,0.09319257413020192,-0.014895448981645713,-0.07194601320194893,0.006443415499113144,-0.21127080903496073,-0.0038777604073417147,0.05233662018701261
0.1736379,0.08573949365213437,0.03854890617988478,-0.01979044776459408,-0.06400447745888757,-0.008350625391462493,-0.08942579425961504,-0.004885088702137889,0.01452381558576614
0.1741034,0.07421612433837356,-0.026665569469288927,-0.025559010222676187,-0.040738241599182864,-0.02407084040619785,0.19592286204453524,-0.006481956933197143,-0.02392336838828951
0.174569,0.05641164930852721,-0.08384780275267108,-0.03101042010640384,-0.02387177422585638,-0.035810613401635376,0.40853112989855367,-0.003289114088150634,-0.034361062544459954
0.1750345,0.054650432628350336,-0.10898522448547689,-0.027534111185263943,-0.02155129968307741,-0.03304330212661214,0.25347151057474504,-0.006085419938656286,-0.02599290544583381
0.1755,0.038232858126382614,-0.12027058156325982,-0.02797139184367402,-0.017238046983881122,-0.03526790361717598,-0.03792640534016393,-0.0014931465839674684,-0.008521640781629907
0.1759655,0.028525716099719597,-0.11184077891276799,-0.025361423281889787,-0.019944683750731183,-0.03515449766642391,-0.1246947186041067,-0.005170853436220427,-9.275781490506959e-05
0.176431,0.025625746293351386,-0.12139264047602623,-0.024217861561581365,-0.019257582473344664,-0.040581799483684615,-0.05506203210477809,0.0003633794307602439,-0.027289207117799606
0.1768966,0.02651364584296716,-0.12883516092119962,-0.02194821637846645,-0.019396612906731846,-0.046288920549448366,-0.05260886727096526,-0.003176081021065596,-0.08767267510026729
0.1773621,0.011713450336991732,-0.13829132206581862,-0.022802556542559173,-0.016004455174419816,-0.05545147056581515,-0.13721234803071475,-0.006482326209303781,-0.1367064579302321
0.1778276,-0.0016028961428447984,-0.134977152448762,-0.022373365433214644,-0.014040988898931807,-0.058681940150525885,-0.1531935245724988,-0.0057863271660732254,-0.15764267267712764
0.1782931,-0.024354222011226744,-0.12732569620365788,-0.023727411036909306,-0.012040961722249523,-0.05584785926654258,-0.09863450251829882,-0.0017261340666994297,-0.1382918553111002
0.1787586,-0.045639414009145354,-0.1260548,-0.024840742032609636,-0.011294118614054766,-0.04755683980758822,-0.10480021127997365,0.0019873096090002075,-0.08859779362949537
0.1792241,-0.06204020859213534,-0.1268440424529403,-0.025663598567977442,-0.009806264199436096,-0.03478302496057422,-0.1540563828576672,0.002133634676636729,-0.017341808242102054
0.1796897,-0.06760072920399021,-0.11803290137501228,-0.025564538421905814,-0.005991061578094186,-0.02769858572173397,-0.15009767894637802,-0.0015769869407286964,0.002511291041981706
0.1801552,-0.06303678825720203,-0.10268313905991791,-0.025325334527330476,-0.0024025332347465895,-0.01868108428699503,-0.12458677397546396,-0.001588054772922878,-0.056860239059917904
0.1806207,-0.043239935479911305,-0.07588186864983745,-0.02498099257443624,0.000224814851127523,0.02251911274328912,-0.12378968240408175,-0.0024749388616543576,-0.13096544620129005
0.1810862,-0.017305436041741222,-0.04458157396262055,-0.02438479310231993,0.0014172137953601485,0.06872430543396908,-0.13258358021807498,-0.0015806396534798887,-0.1634581398327396
0.1815517,0.014521049180880506,-0.004709566351055737,-0.02511297225054607,0.0008821272211581564,0.10614313029861662,-0.10481057191254851,0.003210721431426577,-0.1671816739985438
0.1820172,0.028813110409365485,0.022653217835938613,-0.025425301962319513,0.0011132849413830154,0.11361222384974173,-0.07380870215846812,0.0016678333172605317,-0.14075475080912037
0.1824828,0.03197389970925257,0.040979659091398085,-0.023104557638216047,0.0023445671437233788,0.10887022478193942,-0.05948503600991943,0.002256637754404,-0.0880348264824002
0.1829483,0.029286317449215088,0.07250079877162018,-0.021578734652272696,0.0019201523476452668,0.1065272285214679,-0.04183803973631098,0.004881030203139644,-0.04011589846091852
0.1834138,0.029615031256544164,0.10305669434781377,-0.023787415628272083,-0.00028860656431362085,0.10213390196797308,-0.015358607620159306,0.008039048130889747,-0.009251894415924002
0.1838793,0.03413011531733656,0.12332131079685203,-0.026624392246835507,-0.0028924630889593872,0.0967500787842808,0.023474606492835504,0.01154320484463043,0.023845558838781807
0.1843448,0.03722396017936718,0.10390786564382004,-0.026983182934014506,-0.0037886408509679543,0.09202910546445285,0.007162515476198694,0.012391425823187219,0.03702447435673767
0.1848103,0.038549938148492634,0.05853221733474878,-0.02874251406522525,-0.005008605274459468,0.0822191243673614,-0.039075273627702654,0.01668091494430183,0.00861918565068073
0.1852759,0.03575276944977432,0.020724852076934485,-0.028549609603462714,-0.0036521045117584366,0.0886196597144909,-0.0568442254585214,0.019726454886428026,-0.08053756551796173
0.1857414,0.03677834985585668,-0.015673557747698533,-0.03017347627990517,-0.003242989404204486,0.08890683460417699,-0.023757213344318445,0.02586462646861776,-0.14656954794849544
0.1862069,0.0357086510874945,-0.03359549832795944,-0.03229008147219745,-0.0013596088458911336,0.08920559917260977,0.016080561596796137,0.03212076961529705,-0.1458082355965914
0.1866724,0.0375524832053316,-0.04764888404140418,-0.03501207018511662,-0.00450863562358295,0.0724797763561451,0.027908894123010355,0.03127069660943781,-0.08320332371191705
0.1871379,0.038092263510145066,-0.05203482452114714,-0.03493931289904405,-0.007029285185544508,0.059809250319235244,0.0545665541135655,0.030874852873117163,-0.01194553742019119
0.1876034,0.03655496893297247,-0.04141940020187484,-0.0340734,-0.008545611626389964,0.049992326453341784,0.09943286111872487,0.02595998417558594,0.02951314208779297
0.188069,0.037385500407177405,-0.00919216387296284,-0.033774050050897175,-0.0074035696113808344,0.054587350050897175,0.08084884309094699,0.02693822017124976,0.03501634944013107
0.1885345,0.035859591094993426,0.029646923040573935,-0.033273553853810145,-0.006707745195178804,0.05559934996747901,-0.03057957402410598,0.021495144719673277,0.02348653341989413
0.189,0.03985142108801604,0.026244577292555187,-0.03397621729722168,-0.007367715409288769,0.044390992425875554,-0.07532606215177055,0.01671398080738114,0.043651843795460846
0.1894655,0.04648699452093298,0.002315294664476436,-0.03455367403321614,-0.007161092668634709,0.034854866720846304,-0.034134836051545034,0.013134010814590582,0.07310181193705943
0.189931,0.055215351517907324,-0.02207009238633107,-0.034327750339994106,-0.005444096102133926,0.026289705257842504,0.02401974984206911,0.010121972151171908,0.0722253098017178
0.1903966,0.060035057955376815,-0.027083250179994665,-0.033254561483078565,-0.003951552529198656,0.02421112296615713,0.036843519798444704,0.008819166549267399,0.04640687829528736
0.1908621,0.06271442762630128,-0.007367448922898033,-0.03342111636678085,-0.004396597254079523,0.023620821858621802,0.01259783586406271,0.00687033017993149,0.04428968324863862
0.1913276,0.056056467462095166,0.020836319779548574,-0.03502013855039714,-0.0072175,0.02148928868330505,-0.005238822092245724,0.00675991336357627,0.05891273656759164
0.1917931,0.046450063729674196,0.041851819225441365,-0.036124268587371645,-0.007756114172854956,0.0090639,-0.02202033589860385,0.0016838382559937698,0.0003205308979887881
0.1922586,0.036267532974735256,0.04401948423423353,-0.039207192673046,-0.005031423155095969,-0.004126576379095794,-0.064007936884272,-0.006560435136076688,-0.0721690560216781
0.1927241,0.02927496196761461,0.04932557135385174,-0.04169952854967186,-0.0037162095334791704,-0.014558714198687466,-0.06941961897048195,-0.014605833265645806,-0.0841208332174076
0.1931897,0.016160856449054677,0.07485857152017235,-0.04332023686777159,-0.004363328465706814,-0.02728068162700733,-0.0017801011147458405,-0.021098340759670958,-0.059779042464441164
0.1936552,0.005987668942512896,0.08686397460034467,-0.044867134641105505,-0.004078637294845824,-0.03850638210727961,0.1094149142092327,-0.023204713561758777,-0.03588416050569988
0.1941207,0.0007818405456297845,0.07130516923776128,-0.04177908461888064,-0.006406495639086331,-0.042906959568505786,0.22749306634193336,-0.022219508607691767,0.0018720605159339527
0.1945862,0.0030429615502702246,0.039350429576715217,-0.04189273943562028,-0.0141155827126208,-0.040164712816576596,0.24128825217045144,-0.017389602012653733,0.05148809362600703
0.1950517,0.006331874381954214,0.004048801059055439,-0.0405984129608122,-0.00712275148791718,-0.0314005649523806,0.11195589465422916,-0.01928805310237684,0.0602574933433481
0.1955172,0.004968125637186941,-0.015724355544693785,-0.04539584089731435,-0.013301602085369915,-0.02888941312496745,-0.06513753824898649,-0.022317436726574512,-0.009528677871014895
0.1959828,0.008247346467630621,0.021771963720641583,-0.04712019745637625,-0.014764176364653474,-0.01945205490156429,-0.1894695447270693,-0.008861432069280193,-0.08710536843652267
0.1964483,0.005931999667040691,0.0674332186859378,-0.05004468521975066,-0.01547230190087909,-0.009068876277343561,-0.19194516560053704,0.001251296063036856,-0.11471838381831054
0.1969138,0.003574305143418648,0.06417482654793331,-0.046424108823315983,-0.016116270898469332,-0.001401560173979638,-0.12211553847400505,-0.00011336987813788434,-0.09697128767249982
0.1973793,-0.0004473810690673384,0.034687685014619433,-0.04655012079742117,-0.017269788596791666,0.0010746377929826256,-0.06829127364822325,-0.007631337682546187,-0.0717100717472934
0.1978448,-0.0016930292869322308,0.0006895344981135971,-0.04441974463356477,-0.01894145424701395,-0.004682395193275408,-0.0357519,-0.004026547394409317,-0.024395579846642874
0.1983103,0.000742291611839749,-0.018135013848682484,-0.04371587158427568,-0.020424019572373917,-0.00944283270269705,0.010444360986836765,0.022992516513151297,0.003698522105258131
0.1987759,-0.003664676827945414,-0.03861436164447609,-0.04198628000846058,-0.02377362721200517,-0.012037593113505817,0.07122980100998766,0.05534342133549863,-0.024011104532547324
0.1992414,-0.016391171257074177,-0.05892723333387067,-0.03897870317450083,-0.0243381,-0.02049579515284557,0.12029300952350247,0.06570239064730392,-0.07140777276053341
0.1997069,-0.023753487962033706,-0.06430980309695132,-0.03788181728271161,-0.0243381,-0.030478939810168536,0.11124544288606573,0.05246207190439395,-0.1073792439915439
0.2001724,-0.023515365287949046,-0.05414162875759345,-0.03913648197448352,-0.024365681974483522,-0.03441853672052396,0.05210057086206983,0.03687876051032959,-0.13201514713576937
0.2006379,-0.01819830533296929,-0.03867011289725493,-0.03941789066021112,-0.024999041547962737,-0.030954808448385447,-0.005808857567937463,0.027108400266521858,-0.155515627218957
0.2011034,-0.009542476144318569,-0.03756077528966258,-0.03615697126304995,-0.028145969324550664,-0.03547161595207022,-0.00039699559935224647,0.017565985052199813,-0.16499858907881243
0.201569,-0.0024811616346406703,-0.04148466862825555,-0.03441930932881584,-0.030014129503769797,-0.046148520875328135,0.041351362334084284,0.010284869387381972,-0.1613135395329598
0.2020345,0.009214607722153543,-0.04260328837213732,-0.03179649225553028,-0.032010538496313155,-0.059496411842740064,0.10801424732632789,-0.00440531933885813,-0.13706243032208865
0.2025,0.018733367510549173,-0.04070109674528099,-0.03083110614790227,-0.030812695479457232,-0.06759588915078708,0.1624222707070803,-0.015908867691317045,-0.08081549715880051
0.2029655,0.0242230643222947,-0.047236464925446274,-0.02926259909527264,-0.029113518442004223,-0.07321633381981418,0.17274823653399626,-0.015647449849212108,-0.036113201903772395
0.203431,0.02856751467972285,-0.07318083351057426,-0.026804708563871144,-0.028284376682495067,-0.0796588684256882,0.10967905595233664,-0.0015372481987919301,0.05896191183076235
0.2038966,0.03671470130402345,-0.10471936318449435,-0.02753285576942102,-0.02843877754308165,-0.08020864647451752,-0.028765730006868707,0.013960409294903503,0.12845243771046172
0.2043621,0.040532783691944255,-0.11306507957771117,-0.029277384081796642,-0.03134190344998854,-0.07646967646649772,-0.11867479323884413,0.012496733090457512,0.07888585584425502
0.2048276,0.05442147136536528,-0.1198565532226228,-0.03168220651907084,-0.02871153974173464,-0.08040329353024714,-0.12637551206641812,0.002219525141472426,-0.030810008536343202
0.2052931,0.07009965397742159,-0.11936136541883943,-0.035198358411815796,-0.0297093,-0.08840068282789715,-0.11187235010850137,-0.009017242062093974,-0.08553168799310817
0.2057586,0.0797543351361059,-0.10605940666769455,-0.03681926506398263,-0.029994922276851695,-0.08331538409926613,-0.139039353495166,-0.016086634644440653,-0.04874042962076965
0.2062241,0.08640632511822724,-0.07491075981890576,-0.037388783830483954,-0.030927251491451865,-0.07153289827209368,-0.159139071581999,-0.019347086813387683,0.028743740337133117
0.2066897,0.08399596984215439,-0.02298198616123047,-0.038384655287649665,-0.030134317249763447,-0.05700963989004435,-0.10146006047243156,-0.01603886650031403,0.11765145890437916
0.2071552,0.08565978267969107,0.02636415952834414,-0.040068772971462184,-0.032594031724368144,-0.054389078759298916,-0.0360908678167619,-0.0007717348261208581,0.16156806499961263
0.2076207,0.08281873042734193,0.06341419873633286,-0.04225973654276176,-0.03265610737908697,-0.06587417371769858,-0.02010057442441074,0.022592791003889803,0.1554773220627238
0.2080862,0.07520017434217033,0.07426093438594358,-0.04303450886994984,-0.03020270014183593,-0.07336356261616093,-0.04695919457155275,0.026208318266411738,0.13468771334637725
0.2085517,0.05972412532950936,0.0861913324556387,-0.04250146166935523,-0.02653900141243707,-0.07531095749596715,-0.10552242619406108,0.015560923917072292,0.09838917011352202
0.2090172,0.03894605916866325,0.06591863813095533,-0.04163185512985134,-0.024048169946668477,-0.07643092105647913,-0.13107281611770522,0.0016396077147355348,0.04576917890548309
0.2094828,0.016135505156688636,0.011100955003608042,-0.04182814201587539,-0.02323419583681689,-0.08405314270321973,-0.09726416065848,-0.003512640644047828,-0.00046814965489726723
0.2099483,-0.00834801892220878,-0.03518992570584929,-0.042446975739947414,-0.023900832091557307,-0.09326984556031553,-0.0516284411547292,-0.0006499630367276157,-0.011822678699737051
0.2104138,-0.019897565717381587,-0.052458859147177996,-0.04131535976487125,-0.023881265898249855,-0.09431387930995944,-0.0351697058620762,0.002455019981913173,-0.011304354083663318
0.2108793,-0.029957099943387838,-0.07196231812438815,-0.041806958879772614,-0.026635050688794782,-0.09941624064216015,-0.04940687875109153,0.002949662369135856,-0.026908161413001373
0.2113448,-0.03196894637197175,-0.09146772031811078,-0.0426184173044446,-0.02690762374135168,-0.09588161141250409,-0.05211663316975204,-0.0005064878273427418,-0.09448328971425242
0.2118103,-0.04109069478702602,-0.10419350538586387,-0.038875590971575086,-0.026790390971575085,-0.10120403263979488,-0.022743209205548412,-0.0017601546849855332,-0.17795462187018396
0.2122759,-0.045758267887501376,-0.07883826690086423,-0.03541707977716916,-0.023352812274716556,-0.10653979567339773,0.03019478963355042,-0.0029789575835615667,-0.20599726388094058
0.2127414,-0.04500385457719061,-0.04617239945818731,-0.0331338455961404,-0.022111519714795535,-0.10674630735561214,0.07531228543602203,-0.0026784621279534013,-0.1912613486476008
0.2132069,-0.05050782616093054,-0.03069555706776853,-0.029807802041223828,-0.021963673022579934,-0.11134310122473429,0.12954382382124235,-0.007281971389600875,-0.15445796923859662
0.2136724,-0.03802005081110743,-0.03383827427099495,-0.02542281246725837,-0.024953751752874592,-0.10073595455454741,0.15346177644970055,-0.013131056233629186,-0.05458912074862664
0.2141379,-0.019211976638771833,-0.02615561403710073,-0.02424382337496439,-0.02464949260223766,-0.09433158912185133,0.14638035144916584,-0.018737262601671106,0.08138767234905198
0.2146034,-0.0030678820625106525,-0.009484122827321858,-0.019695315385776964,-0.0263523,-0.1165592930707114,0.10033350848115803,-0.022526800258893854,0.15193525587255605
0.215069,0.006391560010821188,0.023015600816154988,-0.018928409975358787,-0.02422516277660529,-0.14060948879739404,-0.006226872037991574,-0.02712328241841316,0.11784738358314496
0.2155345,0.002533025612325307,0.0684190298455576,-0.01695658284011399,-0.02053738108460227,-0.16056406569462203,-0.06691855651960511,-0.024248995766767704,0.053930017513793414
0.216,-0.001908900364365496,0.09724164580814466,-0.016324070070232257,-0.016520366630216353,-0.15812532751496863,-0.07760042901390189,-0.011376740031113566,0.04043745569078858
0.2164655,-0.008834973473327231,0.08722554489130863,-0.014185816870223036,-0.01305664217555759,-0.14432993863693958,-0.13962530314014676,0.011093322862658121,0.07851789973806605
0.216931,-0.013214437626277506,0.05016998202787992,-0.013618630431186973,-0.011591747194160553,-0.13404638885335518,-0.19352174101393996,0.01689276093908693,0.11089549928268222
0.2173966,-0.014003791045319252,0.0038564816782945587,-0.013785552925822862,-0.01101263681570918,-0.12466340937962322,-0.18122023696281042,0.004138542785496346,0.1225023002652427
0.2178621,-0.010760813063468816,-0.033478388855368746,-0.014932395645510394,-0.012078995645510394,-0.10997163820693037,-0.15365508512283993,-0.007242971590671245,0.10016737848595922
0.2183276,0.0004625329263177415,-0.06512916925936357,-0.01722788038147933,-0.018175800955885568,-0.07598546997767777,-0.11736910726660917,-0.0073421163779119475,0.03564704080345029
0.2187931,0.014109047844283015,-0.0845350031301905,-0.01900574692464547,-0.017137096979481438,-0.04997287351869079,0.026556424164148492,-0.01793601218868201,-0.01573905307535453
0.2192586,0.03734963227284734,-0.11272158021516804,-0.01937207647399141,-0.019600591812879882,-0.02845736670048371,0.13022578136074525,-0.046161081691330146,-0.04915969317013372
0.2197241,0.05185631424583392,-0.13506936237170566,-0.02209915716559362,-0.021815812627244947,-0.02014970554490587,0.0360690161278366,-0.0586134612584196,-0.08244818395331918
0.2201897,0.07157793804406848,-0.13870234665818468,-0.023849961860313514,-0.02346360977965763,-0.032089471348478484,-0.11068284646694865,-0.03327751432344145,-0.1061162311692018
0.2206552,0.08900147117102375,-0.12121960227621095,-0.0229953,-0.021069843735523043,-0.021284078933083,-0.10836621842496999,0.010490702900851473,-0.08737320103399873
0.2211207,0.10316571935044383,-0.07159613384659366,-0.025509889553327923,-0.01759631880400974,0.004730791642662337,0.02788790919494302,0.04738977521603896,-0.026540416585484256
0.2215862,0.09409913570303802,-0.010296529962209412,-0.030735354325168773,-0.014836208745086316,0.038196562021642996,0.11482312272183033,0.0501054249554763,0.041737637024493686
0.2220517,0.0873598742654872,0.04384145375647746,-0.032475545525916125,-0.01555672841465793,0.04991296080957741,0.09020893657774837,0.04170854781352259,0.05308745696425767
0.2225172,0.07865100715534076,0.09479654247957307,-0.032508049978719235,-0.017825534400270904,0.04467426463320615,0.025912020970989297,0.04561214286594001,-0.0014721316401581398
0.2229828,0.06717447474120289,0.10855696545030624,-0.034145151740579444,-0.017232938399011893,0.04080605418654989,-0.014461732429901963,0.047475788284123195,-0.14569438478197402
0.2234483,0.06393378514483457,0.09124587285371859,-0.0346095818984585,-0.016813602121101143,0.05192270806557966,-0.04159709448640811,0.03883050806557965,-0.29462245708038853
0.2239138,0.05368228936148372,0.04332062168066471,-0.04915910798526422,-0.0176242,0.05697548761847153,-0.06618251305843209,0.02840073173897789,-0.3656804368121458
0.2243793,0.04374033274566686,0.009751418747515242,-0.037233458398431625,-0.018029279199215813,0.06456432276930459,-0.0697658959113305,0.009463331201176282,-0.35363294099017306
0.2248448,0.031748838998087864,-0.02755799317016451,-0.03829133133460422,-0.017374249477596294,0.05813505625547126,-0.03358861246043352,0.00622161006195858,-0.22876360912438934
0.2253103,0.026277222412791273,-0.07136437207969079,-0.03970145604750489,-0.01882683297334203,0.06282523407125734,-0.0025029850429586385,0.015230497804169383,-0.05897278065612678
0.2257759,0.021880065940132806,-0.11179841050159171,-0.039238837550607614,-0.016918728744940388,0.059875769736842714,0.0033965245433695787,0.015872209032820533,0.01740275435455555
0.2262414,0.02501965309340213,-0.12902915729811879,-0.039096936127828975,-0.012999804790563955,0.05732396866273498,0.012740086988651391,0.014677392003761058,0.0033711100302193384
0.2267069,0.03201898374626604,-0.1197142445817849,-0.03534238022992454,-0.010832964278387832,0.059009020647084055,0.02761123704127862,0.016444970352282595,-0.03184096647506288
0.2271724,0.04643282737770029,-0.0688667803698221,-0.033684638814305834,-0.008436823670026194,0.05368506690399694,0.020889807245699627,0.011881929388328967,-0.07766273760049225
0.2276379,0.05065161550634416,-0.026416332089790485,-0.03321298286024737,-0.0102388,0.052476885781883684,-0.010608598536156928,0.012532148152440943,-0.08877401327506912
0.2281034,0.055637743470649634,-0.0036594365035973356,-0.03278499536876737,-0.010098147684383682,0.056859123444896596,-0.04895230354790873,0.01989080095916054,-0.07146994931397134
0.228569,0.060839805347263146,0.0006214425112622814,-0.03151957746182,-0.009310766477092,0.06298236818326401,-0.08433605297704144,0.025785660839627144,-0.06581699522146085
0.2290345,0.07020217266913305,0.01456819625217181,-0.03043113598198773,-0.00891281199399591,0.06776034908609428,-0.07629682328283423,0.0263523,-0.0831594368372476
0.2295,0.07384843484873303,0.026985563440530633,-0.030807249760012544,-0.007973694793284934,0.06427070728496243,-0.001521033910976566,0.020745883899879882,-0.05249002546332989
0.2299655,0.06443325261727599,0.02230073315049725,-0.0317168845328555,-0.00679823235741036,0.05428569486307684,0.08875041617870517,0.010668161712579591,-0.019684321666884382
0.230431,0.04003003631257769,0.00023244838514932054,-0.03286108943413837,-0.004519271572589316,0.04397034381758793,0.1371973551772774,0.006672741089461898,-0.0773342835237424
0.2308966,0.020770702781573332,-0.029922577898580247,-0.03176048114844183,-0.004494918851558174,0.03266812737534063,0.09463909761781578,-0.0012402533048129433,-0.18200947004265028
0.2313621,0.007547416639585616,-0.04078581311215677,-0.03178216919311341,-0.0046476576112225885,0.02026008183014844,0.03296080584545197,-0.011052258715727592,-0.21276536548263025
0.2318276,0.00504352214936543,-0.03564896037665907,-0.03536472389539074,-0.00497784592734095,0.008499611167707838,-0.01517750472417013,-0.016732320731195682,-0.1706373985109276
0.2322931,0.0034192824674501004,-0.04209569714852921,-0.04325726181631803,-0.0052797519851200455,0.00027332520591870195,-0.046234951985120044,-0.020544115027899913,-0.14348616701301994
0.2327586,0.0025177,-0.059474144386369714,-0.05036391265203546,-0.0074785236009578615,-0.00796323538397506,-0.10130473208159965,-0.019848206864772476,-0.12769175882876196
0.2332241,0.014975622992954168,-0.06633695031169867,-0.05001231075209156,-0.008979806829686127,-0.01442229349177986,-0.17775831726031172,-0.015759089197181667,-0.03222079639906055
0.2336897,0.036126304799126784,-0.04833366429325976,-0.0516998284016454,-0.011438963923511522,-0.022373817273096636,-0.2055755740530204,-0.014665050894919311,0.013977557149672
0.2341552,0.04282354301174595,0.00031866925960251716,-0.05364116963443524,-0.015912950228304412,-0.030481572733285518,-0.14926778051209308,-0.015201264767061604,-0.0649800828520717
0.2346207,0.025480006551542374,0.043185120307452945,-0.05065162336361488,-0.019375225358402883,-0.03576634922221525,-0.05015725374247822,-0.016298088458486674,-0.1382610934789471
0.2350862,0.00126102808746636,0.06944501325670038,-0.046246417553159114,-0.01782299501785768,-0.0377670410317178,0.060630403549989415,-0.013042271539298987,-0.09238644352278896
0.2355517,-0.031089394039992065,0.07724965622954742,-0.04147714183545919,-0.0116322357146949,-0.036377278437272606,0.08982206039076385,-0.014041696750456549,0.017666205990290992
0.2360172,-0.07038739322582134,0.08096627366344002,-0.0337170446388043,-0.010196297208673048,-0.02509642074235975,0.02191856176107019,-0.013589631458977985,0.118392281709302
0.2364828,-0.10401782777582173,0.06263713795146766,-0.03470921926424859,-0.0056534788963728795,-0.019760600685319527,-0.02969076861243692,-0.013906482611226623,0.15059424206286753
0.2369483,-0.12734599297544036,0.03513067865877307,-0.03502325274467917,-0.006886755190325154,0.009710282339335422,-0.06270168870890501,-0.018898793134652855,0.13778580760448594
0.2374138,-0.13994616972019974,-0.006295187329108498,-0.038127404497267856,-0.004527273230492015,0.03137854646098403,-0.05225334942505012,-0.023490116676241235,0.1218475100389587
0.2378793,-0.14166656020339408,-0.04621645123899398,-0.029351078639434248,0.0032378631279196433,0.0587997582636199,-0.0022233233957516096,-0.014373615448321872,0.1032587352834321
0.2383448,-0.1372181215594763,-0.09338941519846708,-0.029700159312056617,0.011771034469469213,0.08718155333010473,0.021524822648100492,0.01707570607593913,0.06296380953289456
0.2388103,-0.12608110436208922,-0.11749485906774311,-0.027867335485525155,0.01805718171491615,0.08654286642435881,-0.05538829249378665,0.03512277143857276,0.003329509883619763
0.2392759,-0.11461551601841612,-0.09403350445095272,-0.02299717277807389,0.02108250452063954,0.07164461476176531,-0.1693572430996503,0.03572917163371298,-0.026543989828561033
0.2397414,-0.10496313208606427,-0.036309598933748896,-0.018506812090578736,0.014489673041381532,0.06042942215056014,-0.18706120983359925,0.03130203892471993,0.014203960826325517
0.2402069,-0.09689441884797657,-0.0028185998678447533,-0.020040126435738777,0.015918369751072806,0.05146693024034617,-0.08745937933724993,0.02514007918793263,0.06294644905828914
0.2406724,-0.07423548286477337,0.011006158969705181,-0.019510653115708956,0.0075072807066785645,0.0549102918533538,0.019941964472440343,0.015971458165521455,0.06057252207178766
0.2411379,-0.04521698448391118,0.008323016958069848,-0.01614850862221413,0.006108524854198976,0.052120014083998474,0.0173427219801276,0.012486811486394828,0.0645019264393592
0.2416034,-0.010862427577648118,0.003657933815653773,-0.01174402837201748,0.00833480341999486,0.041186154925192904,-0.029852353317595167,0.011350363186839994,0.11745017826317286
0.242069,0.009377896072548747,0.021156282368831842,-0.012722239553104926,0.004204411393933839,0.02151993952800236,-0.057068656932966304,0.015822129891032904,0.1327823356005511
0.2425345,0.027655681558161355,0.03491904251224032,-0.013677256494162125,0.007184915461045966,0.001973627154687005,-0.08927381367144384,0.0194004536168621,0.11156821814075299
0.243,0.03816650254604195,0.03767817215926,-0.014334143668203635,0.006922144936348951,-0.005121098736730346,-0.11752144938786782,0.020188765190953147,0.08949565061700783
0.2434655,0.05019343637289639,0.039886924285690156,-0.013393721813495501,0.0036090721429013813,0.0021200913729245443,-0.12587507395628425,0.02045851604365942,0.04698285901240169
0.243931,0.06558346154039867,0.03769094991111773,-0.011401327911328637,-0.0023204232425282642,0.024939028328247296,-0.07420555073693824,0.02037459198256161,-0.08020693191603943
0.2443966,0.07401238724075537,0.026236017948517383,-0.010397180505770312,-0.00677916979551116,0.03283302242706463,-0.007422504159319364,0.014052750582567998,-0.23268099949672683
0.2448621,0.09207725736402914,0.015478983346217192,-0.006035938406915816,-0.006123856096029294,0.0213169,0.05781888151305977,0.0032691209528888875,-0.2698374197549401
0.2453276,0.103884807281167,-0.008362397452816974,-0.00662242563836851,-0.00796522563836851,0.012396492776938071,0.09284155476303652,-0.006668366707500386,-0.20456639047392697
0.2457931,0.10895164764078716,-0.05025432559505097,-0.011404980468359076,-0.01173266634684026,0.011350537106991625,0.08779209742883033,-0.017642444473403955,-0.08987443701150874
0.2462586,0.11620714293860863,-0.08294952894727128,-0.012128087848983896,-0.00910128193304886,0.022937042619462604,0.0681536795793576,-0.024014885495292636,0.017016635370053008
0.2467241,0.11849061843523051,-0.11392199721246436,-0.012901567738346604,-0.008548927212129633,0.0340734,0.08155799032845665,-0.012281182459413724,0.1450914604004108
0.2471897,0.11818688402877338,-0.1290202907433957,-0.013791554628302156,-0.008420354628302157,0.03866158148679138,0.10629753865707554,0.004730660408833141,0.20171744122182514
0.2476552,0.11744272815610265,-0.1254487902828708,-0.014735375726820349,-0.009465792187514886,0.0340734,0.1040875532920023,0.011165245479517175,0.1799336561060055
0.2481207,0.11582451938494152,-0.11110465109285354,-0.016741096738070175,-0.011970728984093567,0.016499101548546648,0.09682082074685075,0.011210107699131448,0.12761735346519804
0.2485862,0.11477880182503418,-0.08087291260141659,-0.021733896803828548,-0.014571128466575546,-0.007731973986178118,0.09668823804564329,0.005984177008526964,0.062197049111546596
0.2490517,0.11720197790904215,-0.028916354386956673,-0.029874929280418582,-0.016372530103945234,-0.027142169135128805,0.08049708305977428,-0.0015135600545654751,-0.004331416485949738
0.2495172,0.11959790997626839,0.01385587941237927,-0.0386946099762684,-0.014810045011865803,-0.030045,0.042575181148119624,-0.008237834967792823,-0.03872620447170828
0.2499828,0.123686639886718,0.034007389830211156,-0.042783339886718,-0.012765680056640999,-0.030045,0.006944994495826837,-0.013786825560545857,-0.04865589011341615
0.2504483,0.13205614726368628,0.06312445608923288,-0.04149229707793059,-0.011612594934752588,-0.0287022,-0.03452806621972771,-0.018419579739010355,-0.06540187765517073
0.2509138,0.13853221372889205,0.07889163716064557,-0.03467945093632562,-0.012606082356002838,-0.02897681961022443,-0.048504429313085906,-0.02133427066956468,-0.060503125193479314
0.2513793,0.14105842141377142,0.06701853629365423,-0.0310164874192214,-0.014879669272394277,-0.030745164989639993,-0.03334725845575139,-0.023607782334014362,-0.014526371084499896
0.2518448,0.1416972366571039,0.018260404985655877,-0.026615945386822173,-0.013349659469432031,-0.03312252743074826,0.011502477177187243,-0.024135900367235726,0.0723780097125084
0.2523103,0.1402468266580416,-0.02388988037820501,-0.019432928812087354,-0.017756730913795475,-0.032955857571837104,0.04957302002587512,-0.028189792114939365,0.07184765290031926
0.2527759,0.1367386285494248,-0.036031970019706504,-0.01151916975197078,-0.01971148713599785,-0.03140972679396569,0.059856419618102924,-0.025578577138714555,0.0023417769846882726
0.2532414,0.1341477904577006,-0.011257225474814909,-0.0013177930015470741,-0.02294993827917222,-0.03238129107836228,0.05694172676491315,-0.021044706949678072,-0.02032795984641784
0.2537069,0.13234628488719624,0.04087175123790938,0.007651526135512332,-0.024319320888194548,-0.03621972263730048,0.04954547185134524,-0.017744811614591904,0.013042229456528737
0.2541724,0.1291023841724824,0.10507691087935143,0.013326425165893527,-0.024080901540975506,-0.03920645065123204,0.03093019943624891,-0.017805190667418747,0.0009558054367783796
0.2546379,0.12620429799517513,0.14989406743743536,0.014225593920257629,-0.0218245629392173,-0.037368545908765545,0.023696285007006997,-0.024831525994253957,-0.042223854970469425
0.2551034,0.12242928080111672,0.18169481951613284,0.011734209455053048,-0.021182625854551353,-0.0394446,0.02957504040055835,-0.032684697179982,-0.004562395635900905
0.255569,0.11286136744477454,0.2369251954806687,0.005807278668444825,-0.02301028276607568,-0.04349360074546137,0.017268360421488004,-0.03500558616962161,0.08622563644735055
0.2560345,0.10373448187911577,0.24392398254195802,-0.00034066117987812696,-0.024277601161680425,-0.04522854916788287,-0.015053713219169939,-0.028236854115091404,0.15638860282591469
0.2565,0.09844894123194867,0.20907014523825201,-0.006114745245442447,-0.022048851415971422,-0.041895429048369445,-0.0410611574398073,-0.02403750333858613,0.15642561687557588
0.2569655,0.09000209785910784,0.14515171133883556,-0.016928858907875363,-0.019270180587821234,-0.040067220881731855,-0.053137407347765446,-0.012888505206873287,0.10108048243799916
0.257431,0.08007898891617754,0.09138394340100482,-0.025095903672048395,-0.019503794273336674,-0.03537459041044294,-0.04274330790444632,0.0012339460159692846,0.048087150248367204
0.2578966,0.07888375068476755,0.046750225239049294,-0.036049029348032155,-0.017393883934736086,-0.031203246679307944,-0.031908572478266346,0.0078102497716183075,-0.0027815089240684804
0.2583621,0.0751779963571442,0.03904544189261644,-0.029493576610337215,-0.016085287827579287,-0.028226912172420716,-0.02181863280736349,0.018842398934005442,-0.07236836075128765
0.2588276,0.0711097426051715,0.04778690444423895,-0.02675994408500488,-0.013089587574445529,-0.030082823082570657,-0.002456954742021063,0.03460253952165308,-0.10596006348849289
0.2592931,0.07009043260360544,0.03537369949040567,-0.0260166,-0.009236097661069066,-0.03684014363891852,0.014465713666477992,0.05583775730539651,-0.07044286184909128
0.2597586,0.06348313230669651,-0.02215071917436869,-0.03643712478058923,-0.006909536158474734,-0.03031128190113262,0.033566454659904814,0.07815714247089153,-0.02170107262058303
0.2602241,0.06403878476471254,-0.12513207835688098,-0.0502598822975302,-0.006005572188229962,-0.013215454342390841,0.06960102588935105,0.08800557928488936,-0.0015259024671823462
0.2606897,0.06112762064286497,-0.22031834576415138,-0.07646500793334372,-0.007277603468746577,-0.0072432586294628185,0.10159340924077466,0.08199841047722266,0.014627818254776208
0.2611552,0.05558612818205379,-0.26965462767813697,-0.09287942096006067,-0.009648842540044587,-0.008663483451322918,0.0780309182934498,0.05219518721277223,0.028511286737857043
0.2616207,0.050265117257764565,-0.289633398186047,-0.10048324670210595,-0.011675260432984542,-0.01887316802006474,0.0562754771317453,0.020071909670684365,0.053985474352195785
0.2620862,0.04536615991696121,-0.2959505131603984,-0.09584220602797582,-0.012448780013111387,-0.023643167027531487,0.08437986826309214,0.011176472902541113,0.03683923886933045
0.2625517,0.038551398750618054,-0.2895736255374812,-0.06704224920088951,-0.012602562578086372,-0.02716925913463405,0.12354548241673388,0.018070800624690974,-0.11984431020596861
0.2630172,0.03304476399515566,-0.2731721294540559,-0.02550647486667703,-0.013197579001391452,-0.030779750499665002,0.10790835558833241,0.018586103415404037,-0.27339920580635424
0.2634828,0.030232872529163072,-0.25919551851384887,0.006823398518312738,-0.015276410438675309,-0.03181203187135352,0.005441434538209194,0.0007961503852024062,-0.34005333625729295
0.2639483,0.028402233273008393,-0.2409163414003215,0.022274514128172003,-0.016728063251503243,-0.027365973677968343,-0.10749689693170499,-0.019392030521419325,-0.34211149611442826
0.2644138,0.02291511775208558,-0.21027166277180642,0.018271628746482832,-0.017951456499989187,-0.014198040226751167,-0.1411181838788766,-0.034698858881710426,-0.2503882496605759
0.2648793,0.01256232327478939,-0.19120956846613552,0.022325338673536754,-0.015253703312040115,-0.00467102189759054,-0.049917920069020134,-0.04051023520997149,-0.15254645087063287
0.2653448,0.0064074768015241895,-0.14710875490149364,0.008303264179175861,-0.011069859540334754,0.0013774009319870856,0.09599766588430313,-0.04258028696669939,-0.12526033195512323
0.2658103,-0.0038808216763830004,-0.10668766126318163,0.0006333650817613804,-0.016206308857780422,0.002607809370663493,0.17753497952516903,-0.05102879948711693,-0.15065709151286025
0.2662759,-0.007796774351268439,-0.0793661689208834,-0.006733211460168707,-0.018081687175634218,-0.004983407185380114,0.14060301730775498,-0.04699332992352016,-0.17020643023918544
0.2667414,-0.011932826492675583,-0.07410632393380315,-0.01614279017130064,-0.01925252478676063,-0.01197519593279927,0.055799527385009824,-0.04493157691915432,-0.19804410637749267
0.2672069,-0.013605589065212075,-0.07291149352484852,-0.021877904949867712,-0.019013558704969704,-0.013050578893066038,0.024973045202810556,-0.04708227165527267,-0.22194064337217026
0.2676724,-0.014112364022234754,-0.04159065051752002,-0.03013738391320796,-0.016178171966576074,-0.013348580109026797,-0.052531598976005546,-0.041944134953770786,-0.24437458083017902
0.2681379,-0.017836130858124497,0.007492394380212217,-0.03434959543469489,-0.014965519781174193,-0.014887346763860183,-0.19978549559732017,-0.014196841996564253,-0.22921836977011226
0.2686034,-0.019844369952561138,0.05949210074136715,-0.055248473612263455,-0.014984822585637622,-0.022454557091117662,-0.3080837836123435,0.024183253821244654,-0.18280702552265304
0.269069,-0.02268225873159471,0.10632771329672716,-0.07659615489902764,-0.015862220670609162,-0.02310058428614652,-0.2681084488607264,0.03307164804730994,-0.1687004502033541
0.2695345,-0.017395769336180873,0.18401453509061258,-0.08980517174459574,-0.016642474397896283,-0.02053572869008663,-0.08653868275771688,-0.0021456519960555316,-0.186424649342755
0.27,-0.026177476999363222,0.23735332767107295,-0.10411749455269081,-0.009711658977030784,-0.02095085177828886,0.09783009602085034,-0.026367854682733644,-0.18676579385412498
0.2704655,-0.022646719361634555,0.2351229861737927,-0.10930325861813586,-0.011717200322560975,-0.030315493405674326,0.21196944936521517,-0.04268406361276493,-0.10119780214049481
0.270931,-0.022332123944546405,0.1851025022832989,-0.09782057275104888,-0.010930758636471088,-0.036921997164525475,0.19498139055571606,-0.05621157283429439,0.0057641711031711906
0.2713966,-0.020253510232914426,0.13280918622989932,-0.07266924168072361,-0.01288164187324829,-0.03746950303994399,0.11560588385868949,-0.04852301561121625,0.07325524917841164
0.2718621,-0.021602038572808013,0.10021512643827588,-0.041173791428180444,-0.010354201311823599,-0.03495935195714575,0.049441628865334285,-0.03145526704572469,0.14987429682970502
0.2723276,-0.018945532865014235,0.07406591888677878,-0.015895940287697793,-0.009396025332307378,-0.029407026803278655,-0.027833060393682798,-0.02152318608777853,0.25690287409633533
0.2727931,-0.020067508456616708,0.03854689519983832,0.0067735835857851935,-0.007848444277894152,-0.03670506381948753,-0.1563508002371068,-0.02922114735040986,0.3319045974141004
0.2732586,-0.019538968593619793,0.03174764383079423,0.01146985867128907,-0.013135803337243212,-0.0345085314063802,-0.30100579006335754,-0.04516467675962821,0.32029870589779363
0.2737241,-0.0196384,0.021852739846250226,0.00043459361472611684,-0.010238311473729908,-0.03410692114737299,-0.34508446983979285,-0.07439512786925136,0.28624513706115
0.2741897,-0.01978118275240395,0.01416077159186693,-0.020741920912878072,-0.007046922181166023,-0.03898881005694003,-0.20396862408376104,-0.11591467291037313,0.2727723125935159
0.2746552,-0.016700018561744925,0.026361051862568236,-0.03545423302417514,-0.005985845287487869,-0.04125612202188866,-0.05194169552051189,-0.1464518115206165,0.20658316311819203
0.2751207,-0.018180983577616237,0.045576707139057274,-0.01928191872624751,-0.008061028009573996,-0.030846902797320663,0.07090604475305998,-0.13811131625002906,0.03016964760357882
0.2755862,-0.020590637566215975,0.026884553220740508,0.005431047353094198,-0.005620411494628627,-0.02040479414030377,0.1354808490608446,-0.09595816608199875,-0.187529503927182
0.2760517,-0.01979113902635621,-0.0029802032651666042,0.024344185621000537,-0.005397309623175087,-0.011101285621868764,0.04733980523302299,-0.03917453640984472,-0.31618688328486716
0.2765172,-0.021707392852175426,-0.019626636387470774,0.03409240206563474,-0.0012341844161436683,0.010709435190254296,-0.09079330959330453,-0.005609743546398631,-0.2725770743631065
0.2769828,-0.020047540524684052,-0.02031767565585507,0.029226398997883336,-0.00329532540044755,0.03156682846098349,-0.17703833195863514,-0.0057725736245287625,-0.15849930236007007
0.2774483,-0.021849554602365658,0.013143051233821344,0.004516093713699263,-0.003005708892057271,0.0340314653353692,-0.17352099294956316,0.0022402174707663296,-0.06576441226127575
0.2779138,-0.021649944398186023,0.06279173595494603,-0.02294642414864358,-0.003140224148643578,0.02451560914646567,-0.14687325322213282,0.01953421721070248,-0.008470257121233959
0.2783793,-0.02073342869815948,0.11446089690841629,-0.05401470231868778,-0.005344808622244088,0.02312041509891525,-0.11401068746715544,0.01789872585395867,0.02991473733577718
0.2788448,-0.028725274591171183,0.14646374320397973,-0.07870581091850502,0.0013733909540556335,0.02735165580042858,-0.03502664877541378,0.0035400875519200643,0.040421177510384015
0.2793103,-0.02822035813508467,0.1601108807004687,-0.08441418856775165,-0.0006775670909852082,0.01928651403031227,0.03633587017249986,0.00275423091611771,0.0552591091976259
0.2797759,-0.028497467881679544,0.1503960776864838,-0.08030330351126364,6.12170131769989e-05,0.007412018527083167,0.03274628797473936,0.010124245932656668,0.10738271016929758
0.2802414,-0.02099717443236844,0.12355693710137053,-0.07047502305515899,-0.0007877970159537112,-8.721715619392981e-05,-0.02826812392007149,0.005811831432032855,0.17294370589896507
0.2807069,-0.018163751313482888,0.08693727417582431,-0.05761584247127309,0.000995062955860025,-0.0034108739054309256,-0.05900472635342783,-0.008907857701928467,0.1621394669877332
0.2811724,-0.01606387468234655,0.0487071012706138,-0.04798049522768689,0.00012320369840775188,-0.007136340362636731,-0.03321563923763172,-0.022576157886513615,0.07422083431970983
0.2816379,-0.018276206366269653,0.05423151713059303,-0.053973196816865174,0.0011683565826412822,-0.008155427661961479,0.027341618938532066,-0.029851257797560173,-0.004139726519720611
0.2821034,-0.0201989807556971,0.07715827180056635,-0.047517596641516016,-0.0002330715868461544,-0.01087760671696797,0.053882405599126396,-0.03208508278261932,-0.04109050671696797
0.282569,-0.017253905105969802,0.07669062263872164,-0.028503600369393187,-0.0014245718859153727,-0.015837150875937327,0.012459651122199449,-0.0350949628117118,-0.06548787723814731
0.2830345,-0.019389275402127946,0.04463730467605209,-0.01854751597222077,-0.0046086016138504006,-0.01699781564200667,-0.09353565894864158,-0.03680583257675863,-0.08644729056286901
0.2835,-0.01997175972361695,0.0010803239969458885,-0.019600357441780063,-0.007147139038595109,-0.019835042918119553,-0.16681045015917972,-0.0342210373993674,-0.09318051847819374
0.2839655,-0.019150086464105983,-0.056777616509654766,-0.020193617347351207,-0.008628813659265851,-0.019404206776582472,-0.16508982065668562,-0.0340945516546672,-0.07297177862035432
0.284431,-0.018260243670117218,-0.12455496687328592,0.000991691258120147,-0.008863935090567189,-0.014951687807582888,-0.11684955255468588,-0.04153139159657411,-0.035244741191686
0.2848966,-0.01053977608869895,-0.18824031699615412,0.047840079037523985,-0.008299764092972582,-0.013908315201709454,-0.06070645012579519,-0.04076443351811498,0.009483677717272572
0.2853621,-0.007686527538395501,-0.2255000783650931,0.09315578157897376,-0.005627885025597,-0.013274914170932834,-0.04230320333025195,-0.040059208488456025,0.018808888239477666
0.2858276,-0.004798752725871506,-0.22957817378282758,0.1241327897022632,-0.0028075018172476706,-0.014297798788501554,-0.024954183330548427,-0.03559890605749224,-0.026821584709009465
0.2862931,-0.0022372400650887514,-0.20937076979623484,0.13380961530966473,-0.0010998267100591676,-0.015436248859960556,0.002083836302993778,-0.029906655700197224,-0.08175154631149267
0.2867586,0.0018463,-0.15567803287261367,0.12857733706771313,0.000867883184846331,-0.01698148318484633,0.03247776102416058,-0.020292803563688056,-0.10130443312517823
0.2872241,0.0018463,-0.10859845474690263,0.11322525906205223,0.0011603045478869435,-0.01727390454788694,0.04358977281970385,-0.013274690850713358,-0.06972310013267712
0.2876897,-0.0013401110086286938,-0.04911018797611216,0.09785704079079988,-0.001644634778855963,-0.016327177243014766,0.013173746069067292,-0.012493975115544858,-0.04697972460892384
0.2881552,-0.004269583480887897,-0.009103005296518741,0.07595070738911908,0.002554501185214924,-0.015159296296203361,-0.06533250057413326,-0.02088011090781542,-0.058220589814469696
0.2886207,-0.008810695033935568,0.0017205504966064432,0.05104456902488854,0.0028545133375747662,-0.015698699891591644,-0.13527255623124088,-0.025344096027148454,-0.09912081322916641
0.2890862,-0.008184794767567012,-0.0068348162648255205,0.03473446749499962,0.005615463817242326,-0.015241044664762365,-0.10774432027984943,-0.014773095285792244,-0.17987128890177884
0.2895517,-0.008121107533643632,-0.010690495809576817,0.00423084345660918,0.005893559934830085,-0.012717408992796091,0.009269413795168999,-0.002214895410084857,-0.2235627637257613
0.2900172,-0.005996553714542354,-0.002453186537559021,-0.03871144006780762,0.004786112939109124,-0.016406580632529057,0.10614776268720459,0.00243787908895153,-0.18091185392525413
0.2904828,-0.004469773006647464,0.00647258739110156,-0.09007986828061426,0.005565070869993137,-0.013714657808370145,0.10064547929504687,-0.013765196358343779,-0.06250512380442087
0.2909483,-0.003111967465148405,0.01080123074072856,-0.12852720418956823,0.00156953074072856,-0.010208258110314443,0.05250366844084586,-0.030075020316603317,0.1017255680664706
0.2914138,-0.006387574075664234,0.034056362804097504,-0.13796629350945258,-0.0008560198856328003,-0.010368675747338399,0.03960343770774273,-0.030309958399214732,0.27559076321808795
0.2918793,-0.008233000844871172,0.06138585464780681,-0.11082603338603486,-0.007421610414377897,-0.01533272287296813,0.0037953644912066395,-0.018343933819051018,0.27219437899400917
0.2923448,-0.007338151633007382,0.08526046400709783,-0.09083831075066631,-0.008203448854658738,-0.008849561408341462,-0.09359357589352216,-0.003130948861047578,0.06873942345838596
0.2928103,-0.004333876094287875,0.09885066625452511,-0.05456098176160975,-0.009323872605341472,-0.01699290566732187,-0.22051066987403584,-0.005055400737240214,-0.13871682715660275
0.2932759,-0.005272372340084197,0.11139606763471877,-0.01722255637368563,-0.00832331906410449,-0.01773607477845193,-0.29448321392254667,-0.018006020436537814,-0.233462001846594
0.2937414,-0.004687153430902107,0.15251183143520444,0.015342522506387249,-0.012109721324823712,-0.016853556334155324,-0.23481680728981064,-0.038465552803610754,-0.1992610980790254
0.2942069,-0.0018486655064875509,0.16912703588192668,0.027504608710501494,-0.010532969796895716,-0.021535313090032867,-0.09594299623181206,-0.03830712504650209,-0.08952652855983943
0.2946724,-0.0028084022119396583,0.16824382545651542,0.026225927861394067,-0.010911450831193284,-0.02237843727174229,0.0003779981453652431,-0.04157028134366946,-0.004514652411051498
0.2951379,0.002359206288212288,0.14343197277648478,-8.84335117274812e-05,-0.011548232379638684,-0.021690137330442213,0.026314643037179127,-0.0349199800068969,0.007580251996586371
0.2956034,0.010035309954176987,0.1097481638938243,-0.0363877402142981,-0.010176376362116109,-0.019023397925117643,-0.023403747317410094,-0.019168762299816726,0.0019890808791509797
0.296069,0.01333185468607612,0.08893907051533864,-0.040596050370451185,-0.009596102444432323,-0.016088371223862672,-0.13346796429614277,-0.014843763333515156,-0.007438390222270708
0.2965345,0.01633602415300379,0.1144211574952691,-0.01994564006475585,-0.00821003355919899,-0.011537900677596968,-0.21286596042259065,-0.009191642287797222,-0.008732128625769746
0.297,0.020949372842784367,0.15858891331726777,0.010057378984382805,-0.009086955123234281,-0.0077369635786078165,-0.19987100544542938,-0.004620189927020435,0.006262903879602233
0.2974655,0.02465429068130847,0.16861927451948258,0.03622368044272953,-0.009226518719677956,-0.004589217784765708,-0.11424919238654317,-0.002877485513359134,0.058353154289209376
0.297931,0.017186212764791226,0.1671381421760435,0.04946106106303483,-0.012642994992100665,-0.00604848955795626,0.010209381718847136,-0.004374435335482472,0.07825090692277827
0.2983966,0.01671768949206245,0.15958419443919747,0.06705108629076227,-0.013986103917799676,-0.0135958,0.10715554967286985,-0.006353617627037403,0.0046460827696840805
0.2988621,0.011884060468345317,0.15784002683477086,0.08108336314518765,-0.014700987575999934,-0.02325936499381036,0.13058528922149887,-0.006243227727966241,-0.04182257549942776
0.2993276,0.006192533377861792,0.12623810690649534,0.08637276553472698,-0.016988533244276415,-0.028259300267170752,0.1288259672900651,-0.0018879887849891513,0.00825376053588336
0.2997931,0.005304789166305955,0.06594008451815171,0.09238860527573375,-0.01916997833261191,-0.0214781670248177,0.11047736711517066,-0.00609065436034383,0.06430974083802259
0.3002586,0.006823581739596784,0.01902825355476941,0.09610612508486545,-0.020630103790110325,-0.013921609924424158,0.07116450991310586,-0.02287662203919524,0.05137966704983732
0.3007241,0.0042274379616241255,-0.024731691044461775,0.09337540117567208,-0.024001583264595627,-0.01077280807472747,0.012883188696890828,-0.03938377069905277,0.005771380913251466
0.3011897,0.00022918177023763023,-0.0663867786706383,0.049184771963807106,-0.02458433056117899,-0.004692226125708147,-0.025538114135032552,-0.049559344121598306,0.010162367869077288
0.3016552,-0.003683932284254008,-0.10439107618021425,-0.019790039657832707,-0.023902942322341244,0.0007212561158265701,-0.01229768935375265,-0.058981116457993865,0.0535836830710635
0.3021207,-0.0006470867914774663,-0.14018211550858176,-0.09179228197873833,-0.0231584930051077,0.003715419847394215,0.009020070145613044,-0.05618596969487775,0.10579332686778035
0.3025862,-0.0019276981374129786,-0.1622697590968803,-0.18403962182870046,-0.017609835491814108,0.006553331144742183,0.00999354409873345,-0.01640292200424962,0.11014984685000496
0.3030517,-0.004552591498388281,-0.18643552712291597,-0.2990906493623216,-0.013625588387609055,0.0011481439087978693,-0.028131469476324243,0.034114771493056396,0.06976267942465479
0.3035172,-0.007373105737214212,-0.19495266170798956,-0.3838005639260424,-0.011064566510959247,-0.004003245693256828,-0.06577094218942547,0.05848021050341461,0.07468770920427627
0.3039828,-0.013398570299834307,-0.21538693457250238,-0.40042991537692807,-0.005939445542951825,-0.0031153853322766286,-0.08967675066859451,0.06916186048421441,0.10387578424839361
0.3044483,-0.01649587058634505,-0.2307187267137856,-0.3467070708227612,-0.004352241570013629,0.002659758653278735,-0.06762440011164618,0.06018267803908967,0.09514956442115013
0.3049138,-0.02001598025499224,-0.24771355727927172,-0.23723223167315138,-0.0023289098725038804,0.013091921019968955,-0.021302724737838043,0.04650516353379463,0.1169718947167186
0.3053793,-0.0199247992154253,-0.2428003581859335,-0.10038903639349105,0.00020301484612478764,0.02065483424143596,0.021210095450813617,0.0490765179844236,0.16085467418721675
0.3058448,-0.015619521097813543,-0.20918276950908607,-0.016523681058384462,0.002359124835443047,0.0067332662330584,0.026879723575829472,0.051390701218402356,0.09906465482354392
0.3063103,-0.01704873592228668,-0.17279871662099106,0.012102486330385943,-0.0035543463573745326,-0.0032555007738538826,0.02657729650349692,0.055658388224759874,-0.046407131347608196
0.3067759,-0.009955488303228816,-0.14209366826661501,0.0007697396223107738,-0.005035011457182972,-0.018042726724904944,0.020326189983039887,0.04115149070180452,-0.16844118662341775
0.3072414,-0.001785277741315854,-0.11523492904984814,-0.013290620213815834,-0.008322034728209832,-0.02794164870199779,-0.011961913401591697,0.015912842451439833,-0.18704157150128797
0.3077069,0.007431566212252831,-0.08507576930362662,-0.023004773884127087,-0.01373847010918836,-0.038976594534269264,-0.038580170109188364,-0.0014440018874693629,-0.15270511691254374
0.3081724,0.011721134165775344,-0.06432569585203077,-0.04753986164353296,-0.016094058028287988,-0.04725448675470862,-0.02366218768941307,-0.005037083096741189,-0.1009752217671668
0.3086379,0.009712856241792465,-0.03730546133491617,-0.09345397377123864,-0.016136414014716965,-0.04647880901305556,0.003405520145370405,0.005117960297386442,-0.024375111040852545
0.3091034,0.014161619572516158,-0.013982936204960009,-0.14006746924396188,-0.019746686832172403,-0.04326184496538456,0.04835680522303604,0.017288514866455003,0.029216583367556146
0.309569,0.012634841873493664,0.008648421128225746,-0.2209769874908194,-0.023169590138841657,-0.03265759038453545,0.06511087131970465,0.01731157093674683,0.010591635317843469
0.3100345,0.00683729958605188,0.029948552493261036,-0.35631724434827305,-0.019541832152369255,-0.031967147767568024,0.038366364275216724,0.025844580812387212,-0.05394799223943836
0.3105,0.0003455934071025201,0.043785773968624285,-0.4428635441076191,-0.018567564936045212,-0.019653725911152074,-0.00019367533640176032,0.07473372208706518,-0.058832628657792235
0.3109655,-0.008251005518635182,0.054054383767574626,-0.41655330121344175,-0.018309471262544695,-0.019044682045497266,-0.014677806379673863,0.11140606858134335,0.04901609484508446
0.311431,-0.014242128829580952,0.06153974132530862,-0.30084500619173593,-0.019517856567542066,-0.020713325705649033,-0.013395189753361441,0.09357322141526005,0.1991702055897981
0.3118966,-0.01659125226109994,0.0644985457422298,-0.15469235599533762,-0.020281056623682087,-0.02450448196728251,-0.014307232072094457,0.03314361372419209,0.2277916016814854
